"1cP5 - RawData"
"Wavelength nm.","T%"
200.00,0.001
201.00,-0.000
202.00,0.001
203.00,0.001
204.00,0.003
205.00,-0.000
206.00,0.003
207.00,0.001
208.00,0.000
209.00,0.001
210.00,0.002
211.00,0.002
212.00,0.001
213.00,0.001
214.00,0.003
215.00,0.001
216.00,-0.002
217.00,-0.000
218.00,0.002
219.00,0.001
220.00,0.001
221.00,-0.000
222.00,0.003
223.00,0.001
224.00,0.003
225.00,0.002
226.00,-0.001
227.00,-0.000
228.00,-0.001
229.00,-0.000
230.00,0.002
231.00,0.001
232.00,0.001
233.00,-0.001
234.00,0.000
235.00,0.002
236.00,-0.001
237.00,0.003
238.00,0.001
239.00,-0.000
240.00,-0.000
241.00,0.001
242.00,0.001
243.00,0.000
244.00,-0.000
245.00,-0.000
246.00,-0.001
247.00,-0.002
248.00,0.002
249.00,-0.003
250.00,0.001
251.00,-0.001
252.00,0.000
253.00,0.000
254.00,-0.001
255.00,0.000
256.00,-0.003
257.00,-0.001
258.00,0.001
259.00,0.001
260.00,0.000
261.00,0.001
262.00,0.000
263.00,0.001
264.00,0.000
265.00,0.001
266.00,0.001
267.00,-0.000
268.00,-0.000
269.00,0.001
270.00,-0.001
271.00,0.001
272.00,-0.000
273.00,-0.000
274.00,-0.000
275.00,-0.000
276.00,0.000
277.00,-0.000
278.00,0.000
279.00,0.001
280.00,0.000
281.00,-0.001
282.00,0.001
283.00,0.001
284.00,0.001
285.00,0.002
286.00,-0.000
287.00,-0.001
288.00,-0.001
289.00,-0.000
290.00,-0.001
291.00,-0.000
292.00,0.000
293.00,0.000
294.00,0.000
295.00,-0.000
296.00,0.001
297.00,0.000
298.00,0.001
299.00,0.003
300.00,0.001
301.00,-0.001
302.00,-0.000
303.00,0.000
304.00,0.001
305.00,0.002
306.00,0.003
307.00,0.002
308.00,0.003
309.00,0.010
310.00,0.016
311.00,0.023
312.00,0.039
313.00,0.057
314.00,0.086
315.00,0.125
316.00,0.178
317.00,0.248
318.00,0.337
319.00,0.453
320.00,0.607
321.00,0.788
322.00,1.011
323.00,1.281
324.00,1.574
325.00,1.896
326.00,2.245
327.00,2.653
328.00,3.094
329.00,3.562
330.00,4.096
331.00,4.626
332.00,5.207
333.00,5.826
334.00,6.414
335.00,7.027
336.00,7.667
337.00,8.323
338.00,8.928
339.00,9.538
340.00,10.166
341.00,10.792
342.00,11.373
343.00,11.927
344.00,12.536
345.00,13.038
346.00,13.528
347.00,13.956
348.00,14.427
349.00,14.811
350.00,15.246
351.00,15.608
352.00,15.931
353.00,16.283
354.00,16.577
355.00,16.878
356.00,17.126
357.00,17.343
358.00,17.594
359.00,17.848
360.00,18.044
361.00,18.173
362.00,18.337
363.00,18.489
364.00,18.563
365.00,18.649
366.00,18.773
367.00,18.825
368.00,18.872
369.00,18.935
370.00,18.948
371.00,18.935
372.00,18.987
373.00,18.856
374.00,18.926
375.00,18.907
376.00,18.770
377.00,18.694
378.00,18.604
379.00,18.520
380.00,18.484
381.00,18.463
382.00,18.426
383.00,18.472
384.00,18.488
385.00,18.536
386.00,18.568
387.00,18.652
388.00,18.697
389.00,18.670
390.00,18.741
391.00,18.755
392.00,18.775
393.00,18.800
394.00,18.811
395.00,18.858
396.00,18.807
397.00,18.819
398.00,18.807
399.00,18.801
400.00,18.810
401.00,18.787
402.00,18.775
403.00,18.779
404.00,18.758
405.00,18.740
406.00,18.718
407.00,18.670
408.00,18.677
409.00,18.631
410.00,18.564
411.00,18.599
412.00,18.518
413.00,18.553
414.00,18.512
415.00,18.509
416.00,18.574
417.00,18.524
418.00,18.578
419.00,18.648
420.00,18.681
421.00,18.666
422.00,18.730
423.00,18.684
424.00,18.833
425.00,18.772
426.00,18.812
427.00,18.875
428.00,18.904
429.00,18.940
430.00,18.981
431.00,19.059
432.00,19.063
433.00,19.128
434.00,19.185
435.00,19.277
436.00,19.319
437.00,19.364
438.00,19.450
439.00,19.509
440.00,19.580
441.00,19.626
442.00,19.711
443.00,19.755
444.00,19.897
445.00,19.992
446.00,20.086
447.00,20.159
448.00,20.275
449.00,20.377
450.00,20.497
451.00,20.557
452.00,20.672
453.00,20.788
454.00,20.900
455.00,20.998
456.00,21.131
457.00,21.233
458.00,21.327
459.00,21.492
460.00,21.628
461.00,21.763
462.00,21.840
463.00,21.989
464.00,22.166
465.00,22.273
466.00,22.389
467.00,22.562
468.00,22.638
469.00,22.755
470.00,22.824
471.00,22.968
472.00,23.085
473.00,23.180
474.00,23.320
475.00,23.442
476.00,23.520
477.00,23.677
478.00,23.817
479.00,24.001
480.00,24.122
481.00,24.243
482.00,24.390
483.00,24.588
484.00,24.723
485.00,24.876
486.00,25.045
487.00,25.167
488.00,25.340
489.00,25.472
490.00,25.646
491.00,25.785
492.00,26.044
493.00,26.192
494.00,26.191
495.00,26.370
496.00,26.470
497.00,26.609
498.00,26.751
499.00,26.878
500.00,27.083
501.00,27.183
502.00,27.335
503.00,27.469
504.00,27.527
505.00,27.674
506.00,27.800
507.00,27.874
508.00,28.026
509.00,28.189
510.00,28.327
511.00,28.412
512.00,28.602
513.00,28.766
514.00,28.836
515.00,29.005
516.00,29.125
517.00,29.230
518.00,29.380
519.00,29.408
520.00,29.452
521.00,29.641
522.00,29.678
523.00,29.763
524.00,29.882
525.00,30.001
526.00,30.144
527.00,30.217
528.00,30.265
529.00,30.424
530.00,30.594
531.00,30.700
532.00,30.770
533.00,30.870
534.00,30.981
535.00,31.111
536.00,31.181
537.00,31.264
538.00,31.335
539.00,31.380
540.00,31.513
541.00,31.550
542.00,31.577
543.00,31.657
544.00,31.759
545.00,31.827
546.00,31.883
547.00,32.048
548.00,32.106
549.00,32.173
550.00,32.256
551.00,32.374
552.00,32.417
553.00,32.437
554.00,32.517
555.00,32.571
556.00,32.625
557.00,32.723
558.00,32.797
559.00,32.839
560.00,32.934
561.00,33.003
562.00,33.029
563.00,33.079
564.00,33.162
565.00,33.190
566.00,33.210
567.00,33.240
568.00,33.300
569.00,33.354
570.00,33.409
571.00,33.446
572.00,33.464
573.00,33.437
574.00,33.523
575.00,33.523
576.00,33.511
577.00,33.609
578.00,33.670
579.00,33.765
580.00,33.786
581.00,33.880
582.00,33.988
583.00,33.994
584.00,34.048
585.00,34.208
586.00,34.203
587.00,34.188
588.00,34.175
589.00,34.148
590.00,34.297
591.00,34.389
592.00,34.366
593.00,34.364
594.00,34.524
595.00,34.612
596.00,34.571
597.00,34.618
598.00,34.670
599.00,34.696
600.00,34.777
601.00,34.860
602.00,34.822
603.00,34.778
604.00,34.946
605.00,35.127
606.00,35.085
607.00,35.128
608.00,35.292
609.00,35.367
610.00,35.276
611.00,35.308
612.00,35.312
613.00,35.414
614.00,35.489
615.00,35.540
616.00,35.686
617.00,35.672
618.00,35.640
619.00,35.733
620.00,35.768
621.00,35.851
622.00,35.922
623.00,36.004
624.00,36.084
625.00,36.157
626.00,36.242
627.00,36.265
628.00,36.269
629.00,36.305
630.00,36.422
631.00,36.411
632.00,36.537
633.00,36.654
634.00,36.766
635.00,36.836
636.00,36.862
637.00,36.960
638.00,36.957
639.00,37.036
640.00,37.182
641.00,37.215
642.00,37.324
643.00,37.357
644.00,37.423
645.00,37.465
646.00,37.720
647.00,37.794
648.00,37.803
649.00,37.856
650.00,37.913
651.00,38.056
652.00,38.217
653.00,38.178
654.00,38.241
655.00,38.439
656.00,38.751
657.00,38.722
658.00,38.719
659.00,38.831
660.00,38.899
661.00,38.928
662.00,38.990
663.00,39.182
664.00,39.452
665.00,39.649
666.00,39.456
667.00,39.616
668.00,39.614
669.00,39.964
670.00,40.210
671.00,40.160
672.00,40.143
673.00,40.344
674.00,40.403
675.00,40.485
676.00,40.797
677.00,40.929
678.00,40.683
679.00,40.930
680.00,41.094
681.00,41.185
682.00,41.236
683.00,41.327
684.00,41.535
685.00,41.618
686.00,41.637
687.00,41.730
688.00,41.863
689.00,41.829
690.00,42.184
691.00,42.446
692.00,42.121
693.00,42.081
694.00,42.342
695.00,42.575
696.00,42.556
697.00,42.621
698.00,42.701
699.00,43.054
700.00,42.896
701.00,43.093
702.00,43.413
703.00,43.601
704.00,43.602
705.00,43.522
706.00,43.565
707.00,43.722
708.00,43.570
709.00,44.048
710.00,44.448
711.00,43.991
712.00,44.189
713.00,44.285
714.00,44.288
715.00,44.391
716.00,44.418
717.00,44.592
718.00,44.759
719.00,44.800
720.00,44.780
721.00,49.199
722.00,49.200
723.00,49.230
724.00,49.288
725.00,49.344
726.00,49.376
727.00,49.417
728.00,49.468
729.00,49.517
730.00,49.526
731.00,49.564
732.00,49.614
733.00,49.754
734.00,49.759
735.00,49.703
736.00,49.826
737.00,49.882
738.00,50.027
739.00,49.978
740.00,50.069
741.00,50.124
742.00,50.102
743.00,50.145
744.00,50.181
745.00,50.236
746.00,50.239
747.00,50.161
748.00,50.224
749.00,50.229
750.00,50.268
751.00,50.256
752.00,50.283
753.00,50.292
754.00,50.351
755.00,50.405
756.00,50.475
757.00,50.421
758.00,50.468
759.00,50.454
760.00,50.473
761.00,50.476
762.00,50.467
763.00,50.506
764.00,50.597
765.00,50.617
766.00,50.669
767.00,50.718
768.00,50.714
769.00,50.641
770.00,50.775
771.00,50.765
772.00,50.719
773.00,50.728
774.00,50.824
775.00,50.790
776.00,50.750
777.00,50.852
778.00,50.804
779.00,50.888
780.00,50.774
781.00,50.947
782.00,50.905
783.00,50.795
784.00,50.806
785.00,50.835
786.00,50.883
787.00,50.841
788.00,50.920
789.00,50.913
790.00,50.847
791.00,50.973
792.00,50.894
793.00,50.880
794.00,50.866
795.00,50.863
796.00,50.790
797.00,50.856
798.00,50.877
799.00,50.818
800.00,50.770
801.00,50.811
802.00,50.762
803.00,50.842
804.00,50.761
805.00,50.834
806.00,50.736
807.00,50.737
808.00,50.765
809.00,50.720
810.00,50.761
811.00,50.709
812.00,50.772
813.00,50.709
814.00,50.659
815.00,50.651
816.00,50.685
817.00,50.708
818.00,50.598
819.00,50.632
820.00,50.617
821.00,50.640
822.00,50.702
823.00,50.535
824.00,50.662
825.00,50.546
826.00,50.611
827.00,50.623
828.00,50.608
829.00,50.546
830.00,50.548
831.00,52.914
832.00,52.926
833.00,52.861
834.00,52.872
835.00,52.815
836.00,52.853
837.00,52.797
838.00,52.812
839.00,52.766
840.00,52.715
841.00,52.760
842.00,52.745
843.00,52.742
844.00,52.715
845.00,52.691
846.00,52.678
847.00,52.644
848.00,52.657
849.00,52.573
850.00,52.548
851.00,52.519
852.00,52.544
853.00,52.501
854.00,52.470
855.00,52.422
856.00,52.470
857.00,52.411
858.00,52.381
859.00,52.380
860.00,52.399
861.00,52.398
862.00,52.337
863.00,52.353
864.00,52.305
865.00,52.319
866.00,52.298
867.00,52.300
868.00,52.289
869.00,52.279
870.00,52.316
871.00,52.267
872.00,52.226
873.00,52.219
874.00,52.317
875.00,52.203
876.00,52.216
877.00,52.282
878.00,52.325
879.00,52.183
880.00,52.158
881.00,52.132
882.00,52.173
883.00,52.126
884.00,52.078
885.00,52.092
886.00,52.096
887.00,52.049
888.00,52.013
889.00,52.006
890.00,51.994
891.00,51.989
892.00,51.899
893.00,52.076
894.00,51.928
895.00,51.913
896.00,51.906
897.00,51.870
898.00,51.866
899.00,51.849
900.00,51.812
901.00,51.834
902.00,51.843
903.00,51.795
904.00,51.768
905.00,51.791
906.00,51.752
907.00,51.727
908.00,51.688
909.00,51.675
910.00,51.637
911.00,51.637
912.00,51.636
913.00,51.590
914.00,51.584
915.00,51.554
916.00,51.539
917.00,51.523
918.00,51.491
919.00,51.482
920.00,51.416
921.00,51.452
922.00,51.436
923.00,51.392
924.00,51.388
925.00,51.399
926.00,51.390
927.00,51.348
928.00,51.331
929.00,51.345
930.00,51.297
931.00,51.275
932.00,51.286
933.00,51.273
934.00,51.247
935.00,51.197
936.00,51.181
937.00,51.176
938.00,51.162
939.00,51.152
940.00,51.106
941.00,51.109
942.00,51.070
943.00,51.049
944.00,51.046
945.00,51.043
946.00,51.018
947.00,51.011
948.00,50.978
949.00,50.957
950.00,50.963
951.00,50.912
952.00,50.922
953.00,50.879
954.00,50.839
955.00,50.798
956.00,50.806
957.00,50.765
958.00,50.775
959.00,50.711
960.00,50.722
961.00,50.718
962.00,50.695
963.00,50.698
964.00,50.656
965.00,50.655
966.00,50.644
967.00,50.644
968.00,50.611
969.00,50.658
970.00,50.614
971.00,50.636
972.00,50.589
973.00,50.637
974.00,50.645
975.00,50.606
976.00,50.613
977.00,50.587
978.00,50.625
979.00,50.585
980.00,50.630
981.00,50.637
982.00,50.583
983.00,50.621
984.00,50.582
985.00,50.618
986.00,50.575
987.00,50.584
988.00,50.567
989.00,50.553
990.00,50.548
991.00,50.540
992.00,50.538
993.00,50.500
994.00,50.499
995.00,50.465
996.00,50.464
997.00,50.468
998.00,50.431
999.00,50.455
1000.00,50.408
1001.00,50.400
1002.00,50.407
1003.00,50.400
1004.00,50.379
1005.00,50.358
1006.00,50.364
1007.00,50.326
1008.00,50.337
1009.00,50.307
1010.00,50.315
1011.00,50.312
1012.00,50.271
1013.00,50.285
1014.00,50.245
1015.00,50.244
1016.00,50.226
1017.00,50.207
1018.00,50.216
1019.00,50.180
1020.00,50.177
1021.00,50.157
1022.00,50.143
1023.00,50.106
1024.00,50.160
1025.00,50.092
1026.00,50.067
1027.00,50.060
1028.00,50.047
1029.00,50.046
1030.00,50.009
1031.00,50.024
1032.00,49.987
1033.00,49.979
1034.00,49.946
1035.00,49.931
1036.00,49.885
1037.00,49.881
1038.00,49.884
1039.00,49.837
1040.00,49.831
1041.00,49.803
1042.00,49.789
1043.00,49.755
1044.00,49.819
1045.00,49.769
1046.00,49.779
1047.00,49.784
1048.00,49.797
1049.00,49.827
1050.00,49.813
1051.00,49.883
1052.00,49.869
1053.00,49.867
1054.00,49.882
1055.00,49.902
1056.00,49.908
1057.00,49.918
1058.00,49.893
1059.00,49.887
1060.00,49.899
1061.00,49.844
1062.00,49.852
1063.00,49.859
1064.00,49.841
1065.00,49.846
1066.00,49.831
1067.00,49.839
1068.00,49.864
1069.00,49.816
1070.00,49.819
1071.00,49.796
1072.00,49.810
1073.00,49.772
1074.00,49.774
1075.00,49.759
1076.00,49.759
1077.00,49.749
1078.00,49.706
1079.00,49.723
1080.00,49.702
1081.00,49.701
1082.00,49.708
1083.00,49.692
1084.00,49.713
1085.00,49.733
1086.00,49.679
1087.00,49.678
1088.00,49.662
1089.00,49.659
1090.00,49.657
1091.00,49.658
1092.00,49.661
1093.00,49.648
1094.00,49.623
1095.00,49.628
1096.00,49.621
1097.00,49.631
1098.00,49.613
1099.00,49.593
1100.00,49.563
1101.00,49.568
1102.00,49.542
1103.00,49.555
1104.00,49.536
1105.00,49.512
1106.00,49.512
1107.00,49.523
1108.00,49.507
1109.00,49.514
1110.00,49.497
1111.00,49.478
1112.00,49.484
1113.00,49.473
1114.00,49.465
1115.00,49.469
1116.00,49.446
1117.00,49.436
1118.00,49.429
1119.00,49.399
1120.00,49.407
1121.00,49.401
1122.00,49.374
1123.00,49.383
1124.00,49.379
1125.00,49.373
1126.00,49.378
1127.00,49.374
1128.00,49.378
1129.00,49.369
1130.00,49.345
1131.00,49.338
1132.00,49.332
1133.00,49.327
1134.00,49.329
1135.00,49.301
1136.00,49.307
1137.00,49.326
1138.00,49.313
1139.00,49.331
1140.00,49.316
1141.00,49.295
1142.00,49.290
1143.00,49.325
1144.00,49.284
1145.00,49.292
1146.00,49.275
1147.00,49.280
1148.00,49.291
1149.00,49.301
1150.00,49.296
1151.00,49.299
1152.00,49.277
1153.00,49.289
1154.00,49.273
1155.00,49.274
1156.00,49.281
1157.00,49.279
1158.00,49.261
1159.00,49.276
1160.00,49.257
1161.00,49.280
1162.00,49.280
1163.00,49.257
1164.00,49.282
1165.00,49.276
1166.00,49.274
1167.00,49.281
1168.00,49.290
1169.00,49.268
1170.00,49.281
1171.00,49.248
1172.00,49.258
1173.00,49.261
1174.00,49.245
1175.00,49.250
1176.00,49.262
1177.00,49.224
1178.00,49.244
1179.00,49.242
1180.00,49.233
1181.00,49.256
1182.00,49.234
1183.00,49.231
1184.00,49.245
1185.00,49.253
1186.00,49.255
1187.00,49.259
1188.00,49.246
1189.00,49.265
1190.00,49.236
1191.00,49.252
1192.00,49.293
1193.00,49.238
1194.00,49.267
1195.00,49.240
1196.00,49.249
1197.00,49.257
1198.00,49.245
1199.00,49.238
1200.00,49.251
1201.00,49.263
1202.00,49.234
1203.00,49.242
1204.00,49.245
1205.00,49.262
1206.00,49.252
1207.00,49.253
1208.00,49.245
1209.00,49.258
1210.00,49.252
1211.00,49.262
1212.00,49.274
1213.00,49.242
1214.00,49.267
1215.00,49.237
1216.00,49.248
1217.00,49.250
1218.00,49.233
1219.00,49.270
1220.00,49.248
1221.00,49.253
1222.00,49.254
1223.00,49.255
1224.00,49.246
1225.00,49.252
1226.00,49.248
1227.00,49.264
1228.00,49.285
1229.00,49.275
1230.00,49.301
1231.00,49.287
1232.00,49.315
1233.00,49.329
1234.00,49.312
1235.00,49.317
1236.00,49.327
1237.00,49.319
1238.00,49.325
1239.00,49.345
1240.00,49.313
1241.00,49.342
1242.00,49.342
1243.00,49.344
1244.00,49.337
1245.00,49.362
1246.00,49.379
1247.00,49.363
1248.00,49.357
1249.00,49.385
1250.00,49.393
1251.00,49.360
1252.00,49.374
1253.00,49.369
1254.00,49.382
1255.00,49.379
1256.00,49.363
1257.00,49.370
1258.00,49.413
1259.00,49.386
1260.00,49.423
1261.00,49.431
1262.00,49.409
1263.00,49.424
1264.00,49.427
1265.00,49.417
1266.00,49.430
1267.00,49.448
1268.00,49.437
1269.00,49.445
1270.00,49.453
1271.00,49.469
1272.00,49.483
1273.00,49.482
1274.00,49.492
1275.00,49.497
1276.00,49.482
1277.00,49.497
1278.00,49.498
1279.00,49.503
1280.00,49.507
1281.00,49.514
1282.00,49.526
1283.00,49.529
1284.00,49.522
1285.00,49.528
1286.00,49.548
1287.00,49.533
1288.00,49.554
1289.00,49.525
1290.00,49.587
1291.00,49.571
1292.00,49.554
1293.00,49.568
1294.00,49.605
1295.00,49.595
1296.00,49.591
1297.00,49.614
1298.00,49.666
1299.00,49.615
1300.00,49.644
1301.00,49.631
1302.00,49.664
1303.00,49.647
1304.00,49.647
1305.00,49.686
1306.00,49.667
1307.00,49.687
1308.00,49.693
1309.00,49.709
1310.00,49.715
1311.00,49.701
1312.00,49.708
1313.00,49.729
1314.00,49.726
1315.00,49.747
1316.00,49.755
1317.00,49.769
1318.00,49.768
1319.00,49.774
1320.00,49.766
1321.00,49.947
1322.00,49.935
1323.00,49.915
1324.00,49.924
1325.00,49.896
1326.00,49.926
1327.00,49.927
1328.00,49.927
1329.00,49.928
1330.00,49.941
1331.00,49.944
1332.00,49.959
1333.00,49.959
1334.00,49.979
1335.00,49.987
1336.00,50.025
1337.00,50.044
1338.00,50.118
1339.00,50.135
1340.00,50.210
1341.00,50.270
1342.00,50.324
1343.00,50.406
1344.00,50.425
1345.00,50.469
1346.00,50.555
1347.00,50.553
1348.00,50.560
1349.00,50.583
1350.00,50.594
1351.00,50.624
1352.00,50.649
1353.00,50.605
1354.00,50.648
1355.00,50.618
1356.00,50.677
1357.00,50.668
1358.00,50.675
1359.00,50.653
1360.00,50.713
1361.00,50.758
1362.00,50.676
1363.00,50.801
1364.00,50.775
1365.00,50.692
1366.00,50.718
1367.00,50.688
1368.00,50.638
1369.00,50.702
1370.00,50.707
1371.00,50.597
1372.00,50.651
1373.00,50.697
1374.00,50.691
1375.00,50.689
1376.00,50.730
1377.00,50.541
1378.00,50.737
1379.00,50.689
1380.00,50.733
1381.00,50.721
1382.00,50.757
1383.00,50.749
1384.00,50.725
1385.00,50.753
1386.00,50.743
1387.00,50.662
1388.00,50.653
1389.00,50.755
1390.00,50.799
1391.00,50.684
1392.00,50.671
1393.00,50.704
1394.00,50.697
1395.00,50.727
1396.00,50.650
1397.00,50.740
1398.00,50.718
1399.00,50.728
1400.00,50.482
1401.00,50.677
1402.00,50.736
1403.00,50.685
1404.00,50.725
1405.00,50.728
1406.00,50.770
1407.00,50.788
1408.00,50.777
1409.00,50.992
1410.00,50.811
1411.00,50.755
1412.00,50.857
1413.00,50.790
1414.00,50.776
1415.00,50.819
1416.00,50.831
1417.00,50.864
1418.00,50.846
1419.00,50.861
1420.00,50.899
1421.00,50.947
1422.00,50.944
1423.00,50.979
1424.00,50.977
1425.00,50.974
1426.00,50.983
1427.00,51.001
1428.00,51.003
1429.00,51.019
1430.00,51.035
1431.00,51.055
1432.00,51.078
1433.00,51.070
1434.00,51.087
1435.00,51.154
1436.00,51.163
1437.00,51.154
1438.00,51.156
1439.00,51.203
1440.00,51.214
1441.00,51.212
1442.00,51.248
1443.00,51.272
1444.00,51.336
1445.00,51.290
1446.00,51.319
1447.00,51.332
1448.00,51.392
1449.00,51.371
1450.00,51.379
1451.00,51.399
1452.00,51.415
1453.00,51.427
1454.00,51.443
1455.00,51.461
1456.00,51.499
1457.00,51.485
1458.00,51.507
1459.00,51.534
1460.00,51.563
1461.00,51.558
1462.00,51.589
1463.00,51.594
1464.00,51.619
1465.00,51.641
1466.00,51.621
1467.00,51.663
1468.00,51.718
1469.00,51.684
1470.00,51.750
1471.00,51.753
1472.00,51.734
1473.00,51.738
1474.00,51.768
1475.00,51.795
1476.00,51.820
1477.00,51.782
1478.00,51.839
1479.00,51.855
1480.00,51.841
1481.00,51.868
1482.00,51.891
1483.00,51.910
1484.00,51.926
1485.00,51.906
1486.00,51.943
1487.00,51.958
1488.00,51.990
1489.00,51.984
1490.00,52.003
1491.00,52.006
1492.00,52.046
1493.00,52.018
1494.00,52.066
1495.00,52.049
1496.00,52.075
1497.00,52.058
1498.00,52.110
1499.00,52.105
1500.00,52.129
1501.00, 
1502.00, 
1503.00, 
1504.00, 
1505.00, 
1506.00, 
1507.00, 
1508.00, 
1509.00, 
1510.00, 
1511.00, 
1512.00, 
1513.00, 
1514.00, 
1515.00, 
1516.00, 
1517.00, 
1518.00, 
1519.00, 
1520.00, 
1521.00, 
1522.00, 
1523.00, 
1524.00, 
1525.00, 
1526.00, 
1527.00, 
1528.00, 
1529.00, 
1530.00, 
1531.00, 
1532.00, 
1533.00, 
1534.00, 
1535.00, 
1536.00, 
1537.00, 
1538.00, 
1539.00, 
1540.00, 
1541.00, 
1542.00, 
1543.00, 
1544.00, 
1545.00, 
1546.00, 
1547.00, 
1548.00, 
1549.00, 
1550.00, 
1551.00, 
1552.00, 
1553.00, 
1554.00, 
1555.00, 
1556.00, 
1557.00, 
1558.00, 
1559.00, 
1560.00, 
1561.00, 
1562.00, 
1563.00, 
1564.00, 
1565.00, 
1566.00, 
1567.00, 
1568.00, 
1569.00, 
1570.00, 
1571.00, 
1572.00, 
1573.00, 
1574.00, 
1575.00, 
1576.00, 
1577.00, 
1578.00, 
1579.00, 
1580.00, 
1581.00, 
1582.00, 
1583.00, 
1584.00, 
1585.00, 
1586.00, 
1587.00, 
1588.00, 
1589.00, 
1590.00, 
1591.00, 
1592.00, 
1593.00, 
1594.00, 
1595.00, 
1596.00, 
1597.00, 
1598.00, 
1599.00, 
1600.00, 
1601.00, 
1602.00, 
1603.00, 
1604.00, 
1605.00, 
1606.00, 
1607.00, 
1608.00, 
1609.00, 
1610.00, 
1611.00, 
1612.00, 
1613.00, 
1614.00, 
1615.00, 
1616.00, 
1617.00, 
1618.00, 
1619.00, 
1620.00, 
1621.00, 
1622.00, 
1623.00, 
1624.00, 
1625.00, 
1626.00, 
1627.00, 
1628.00, 
1629.00, 
1630.00, 
1631.00, 
1632.00, 
1633.00, 
1634.00, 
1635.00, 
1636.00, 
1637.00, 
1638.00, 
1639.00, 
1640.00, 
1641.00, 
1642.00, 
1643.00, 
1644.00, 
1645.00, 
1646.00, 
1647.00, 
1648.00, 
1649.00, 
1650.00, 
1651.00, 
1652.00, 
1653.00, 
1654.00, 
1655.00, 
1656.00, 
1657.00, 
1658.00, 
1659.00, 
1660.00, 
1661.00, 
1662.00, 
1663.00, 
1664.00, 
1665.00, 
1666.00, 
1667.00, 
1668.00, 
1669.00, 
1670.00, 
1671.00, 
1672.00, 
1673.00, 
1674.00, 
1675.00, 
1676.00, 
1677.00, 
1678.00, 
1679.00, 
1680.00, 
1681.00, 
1682.00, 
1683.00, 
1684.00, 
1685.00, 
1686.00, 
1687.00, 
1688.00, 
1689.00, 
1690.00, 
1691.00, 
1692.00, 
1693.00, 
1694.00, 
1695.00, 
1696.00, 
1697.00, 
1698.00, 
1699.00, 
1700.00, 
1701.00, 
1702.00, 
1703.00, 
1704.00, 
1705.00, 
1706.00, 
1707.00, 
1708.00, 
1709.00, 
1710.00, 
1711.00, 
1712.00, 
1713.00, 
1714.00, 
1715.00, 
1716.00, 
1717.00, 
1718.00, 
1719.00, 
1720.00, 
1721.00, 
1722.00, 
1723.00, 
1724.00, 
1725.00, 
1726.00, 
1727.00, 
1728.00, 
1729.00, 
1730.00, 
1731.00, 
1732.00, 
1733.00, 
1734.00, 
1735.00, 
1736.00, 
1737.00, 
1738.00, 
1739.00, 
1740.00, 
1741.00, 
1742.00, 
1743.00, 
1744.00, 
1745.00, 
1746.00, 
1747.00, 
1748.00, 
1749.00, 
1750.00, 
1751.00, 
1752.00, 
1753.00, 
1754.00, 
1755.00, 
1756.00, 
1757.00, 
1758.00, 
1759.00, 
1760.00, 
1761.00, 
1762.00, 
1763.00, 
1764.00, 
1765.00, 
1766.00, 
1767.00, 
1768.00, 
1769.00, 
1770.00, 
1771.00, 
1772.00, 
1773.00, 
1774.00, 
1775.00, 
1776.00, 
1777.00, 
1778.00, 
1779.00, 
1780.00, 
1781.00, 
1782.00, 
1783.00, 
1784.00, 
1785.00, 
1786.00, 
1787.00, 
1788.00, 
1789.00, 
1790.00, 
1791.00, 
1792.00, 
1793.00, 
1794.00, 
1795.00, 
1796.00, 
1797.00, 
1798.00, 
1799.00, 
1800.00, 
1801.00, 
1802.00, 
1803.00, 
1804.00, 
1805.00, 
1806.00, 
1807.00, 
1808.00, 
1809.00, 
1810.00, 
1811.00, 
1812.00, 
1813.00, 
1814.00, 
1815.00, 
1816.00, 
1817.00, 
1818.00, 
1819.00, 
1820.00, 
1821.00, 
1822.00, 
1823.00, 
1824.00, 
1825.00, 
1826.00, 
1827.00, 
1828.00, 
1829.00, 
1830.00, 
1831.00, 
1832.00, 
1833.00, 
1834.00, 
1835.00, 
1836.00, 
1837.00, 
1838.00, 
1839.00, 
1840.00, 
1841.00, 
1842.00, 
1843.00, 
1844.00, 
1845.00, 
1846.00, 
1847.00, 
1848.00, 
1849.00, 
1850.00, 
1851.00, 
1852.00, 
1853.00, 
1854.00, 
1855.00, 
1856.00, 
1857.00, 
1858.00, 
1859.00, 
1860.00, 
1861.00, 
1862.00, 
1863.00, 
1864.00, 
1865.00, 
1866.00, 
1867.00, 
1868.00, 
1869.00, 
1870.00, 
1871.00, 
1872.00, 
1873.00, 
1874.00, 
1875.00, 
1876.00, 
1877.00, 
1878.00, 
1879.00, 
1880.00, 
1881.00, 
1882.00, 
1883.00, 
1884.00, 
1885.00, 
1886.00, 
1887.00, 
1888.00, 
1889.00, 
1890.00, 
1891.00, 
1892.00, 
1893.00, 
1894.00, 
1895.00, 
1896.00, 
1897.00, 
1898.00, 
1899.00, 
1900.00, 
1901.00, 
1902.00, 
1903.00, 
1904.00, 
1905.00, 
1906.00, 
1907.00, 
1908.00, 
1909.00, 
1910.00, 
1911.00, 
1912.00, 
1913.00, 
1914.00, 
1915.00, 
1916.00, 
1917.00, 
1918.00, 
1919.00, 
1920.00, 
1921.00, 
1922.00, 
1923.00, 
1924.00, 
1925.00, 
1926.00, 
1927.00, 
1928.00, 
1929.00, 
1930.00, 
1931.00, 
1932.00, 
1933.00, 
1934.00, 
1935.00, 
1936.00, 
1937.00, 
1938.00, 
1939.00, 
1940.00, 
1941.00, 
1942.00, 
1943.00, 
1944.00, 
1945.00, 
1946.00, 
1947.00, 
1948.00, 
1949.00, 
1950.00, 
1951.00, 
1952.00, 
1953.00, 
1954.00, 
1955.00, 
1956.00, 
1957.00, 
1958.00, 
1959.00, 
1960.00, 
1961.00, 
1962.00, 
1963.00, 
1964.00, 
1965.00, 
1966.00, 
1967.00, 
1968.00, 
1969.00, 
1970.00, 
1971.00, 
1972.00, 
1973.00, 
1974.00, 
1975.00, 
1976.00, 
1977.00, 
1978.00, 
1979.00, 
1980.00, 
1981.00, 
1982.00, 
1983.00, 
1984.00, 
1985.00, 
1986.00, 
1987.00, 
1988.00, 
1989.00, 
1990.00, 
1991.00, 
1992.00, 
1993.00, 
1994.00, 
1995.00, 
1996.00, 
1997.00, 
1998.00, 
1999.00, 
2000.00, 
2001.00, 
2002.00, 
2003.00, 
2004.00, 
2005.00, 
2006.00, 
2007.00, 
2008.00, 
2009.00, 
2010.00, 
2011.00, 
2012.00, 
2013.00, 
2014.00, 
2015.00, 
2016.00, 
2017.00, 
2018.00, 
2019.00, 
2020.00, 
2021.00, 
2022.00, 
2023.00, 
2024.00, 
2025.00, 
2026.00, 
2027.00, 
2028.00, 
2029.00, 
2030.00, 
2031.00, 
2032.00, 
2033.00, 
2034.00, 
2035.00, 
2036.00, 
2037.00, 
2038.00, 
2039.00, 
2040.00, 
2041.00, 
2042.00, 
2043.00, 
2044.00, 
2045.00, 
2046.00, 
2047.00, 
2048.00, 
2049.00, 
2050.00, 
2051.00, 
2052.00, 
2053.00, 
2054.00, 
2055.00, 
2056.00, 
2057.00, 
2058.00, 
2059.00, 
2060.00, 
2061.00, 
2062.00, 
2063.00, 
2064.00, 
2065.00, 
2066.00, 
2067.00, 
2068.00, 
2069.00, 
2070.00, 
2071.00, 
2072.00, 
2073.00, 
2074.00, 
2075.00, 
2076.00, 
2077.00, 
2078.00, 
2079.00, 
2080.00, 
2081.00, 
2082.00, 
2083.00, 
2084.00, 
2085.00, 
2086.00, 
2087.00, 
2088.00, 
2089.00, 
2090.00, 
2091.00, 
2092.00, 
2093.00, 
2094.00, 
2095.00, 
2096.00, 
2097.00, 
2098.00, 
2099.00, 
2100.00, 
2101.00, 
2102.00, 
2103.00, 
2104.00, 
2105.00, 
2106.00, 
2107.00, 
2108.00, 
2109.00, 
2110.00, 
2111.00, 
2112.00, 
2113.00, 
2114.00, 
2115.00, 
2116.00, 
2117.00, 
2118.00, 
2119.00, 
2120.00, 
2121.00, 
2122.00, 
2123.00, 
2124.00, 
2125.00, 
2126.00, 
2127.00, 
2128.00, 
2129.00, 
2130.00, 
2131.00, 
2132.00, 
2133.00, 
2134.00, 
2135.00, 
2136.00, 
2137.00, 
2138.00, 
2139.00, 
2140.00, 
2141.00, 
2142.00, 
2143.00, 
2144.00, 
2145.00, 
2146.00, 
2147.00, 
2148.00, 
2149.00, 
2150.00, 
2151.00, 
2152.00, 
2153.00, 
2154.00, 
2155.00, 
2156.00, 
2157.00, 
2158.00, 
2159.00, 
2160.00, 
2161.00, 
2162.00, 
2163.00, 
2164.00, 
2165.00, 
2166.00, 
2167.00, 
2168.00, 
2169.00, 
2170.00, 
2171.00, 
2172.00, 
2173.00, 
2174.00, 
2175.00, 
2176.00, 
2177.00, 
2178.00, 
2179.00, 
2180.00, 
2181.00, 
2182.00, 
2183.00, 
2184.00, 
2185.00, 
2186.00, 
2187.00, 
2188.00, 
2189.00, 
2190.00, 
2191.00, 
2192.00, 
2193.00, 
2194.00, 
2195.00, 
2196.00, 
2197.00, 
2198.00, 
2199.00, 
2200.00, 
2201.00, 
2202.00, 
2203.00, 
2204.00, 
2205.00, 
2206.00, 
2207.00, 
2208.00, 
2209.00, 
2210.00, 
2211.00, 
2212.00, 
2213.00, 
2214.00, 
2215.00, 
2216.00, 
2217.00, 
2218.00, 
2219.00, 
2220.00, 
2221.00, 
2222.00, 
2223.00, 
2224.00, 
2225.00, 
2226.00, 
2227.00, 
2228.00, 
2229.00, 
2230.00, 
2231.00, 
2232.00, 
2233.00, 
2234.00, 
2235.00, 
2236.00, 
2237.00, 
2238.00, 
2239.00, 
2240.00, 
2241.00, 
2242.00, 
2243.00, 
2244.00, 
2245.00, 
2246.00, 
2247.00, 
2248.00, 
2249.00, 
2250.00, 
2251.00, 
2252.00, 
2253.00, 
2254.00, 
2255.00, 
2256.00, 
2257.00, 
2258.00, 
2259.00, 
2260.00, 
2261.00, 
2262.00, 
2263.00, 
2264.00, 
2265.00, 
2266.00, 
2267.00, 
2268.00, 
2269.00, 
2270.00, 
2271.00, 
2272.00, 
2273.00, 
2274.00, 
2275.00, 
2276.00, 
2277.00, 
2278.00, 
2279.00, 
2280.00, 
2281.00, 
2282.00, 
2283.00, 
2284.00, 
2285.00, 
2286.00, 
2287.00, 
2288.00, 
2289.00, 
2290.00, 
2291.00, 
2292.00, 
2293.00, 
2294.00, 
2295.00, 
2296.00, 
2297.00, 
2298.00, 
2299.00, 
2300.00, 
2301.00, 
2302.00, 
2303.00, 
2304.00, 
2305.00, 
2306.00, 
2307.00, 
2308.00, 
2309.00, 
2310.00, 
2311.00, 
2312.00, 
2313.00, 
2314.00, 
2315.00, 
2316.00, 
2317.00, 
2318.00, 
2319.00, 
2320.00, 
2321.00, 
2322.00, 
2323.00, 
2324.00, 
2325.00, 
2326.00, 
2327.00, 
2328.00, 
2329.00, 
2330.00, 
2331.00, 
2332.00, 
2333.00, 
2334.00, 
2335.00, 
2336.00, 
2337.00, 
2338.00, 
2339.00, 
2340.00, 
2341.00, 
2342.00, 
2343.00, 
2344.00, 
2345.00, 
2346.00, 
2347.00, 
2348.00, 
2349.00, 
2350.00, 
2351.00, 
2352.00, 
2353.00, 
2354.00, 
2355.00, 
2356.00, 
2357.00, 
2358.00, 
2359.00, 
2360.00, 
2361.00, 
2362.00, 
2363.00, 
2364.00, 
2365.00, 
2366.00, 
2367.00, 
2368.00, 
2369.00, 
2370.00, 
2371.00, 
2372.00, 
2373.00, 
2374.00, 
2375.00, 
2376.00, 
2377.00, 
2378.00, 
2379.00, 
2380.00, 
2381.00, 
2382.00, 
2383.00, 
2384.00, 
2385.00, 
2386.00, 
2387.00, 
2388.00, 
2389.00, 
2390.00, 
2391.00, 
2392.00, 
2393.00, 
2394.00, 
2395.00, 
2396.00, 
2397.00, 
2398.00, 
2399.00, 
2400.00, 
2401.00, 
2402.00, 
2403.00, 
2404.00, 
2405.00, 
2406.00, 
2407.00, 
2408.00, 
2409.00, 
2410.00, 
2411.00, 
2412.00, 
2413.00, 
2414.00, 
2415.00, 
2416.00, 
2417.00, 
2418.00, 
2419.00, 
2420.00, 
2421.00, 
2422.00, 
2423.00, 
2424.00, 
2425.00, 
2426.00, 
2427.00, 
2428.00, 
2429.00, 
2430.00, 
2431.00, 
2432.00, 
2433.00, 
2434.00, 
2435.00, 
2436.00, 
2437.00, 
2438.00, 
2439.00, 
2440.00, 
2441.00, 
2442.00, 
2443.00, 
2444.00, 
2445.00, 
2446.00, 
2447.00, 
2448.00, 
2449.00, 
2450.00, 
2451.00, 
2452.00, 
2453.00, 
2454.00, 
2455.00, 
2456.00, 
2457.00, 
2458.00, 
2459.00, 
2460.00, 
2461.00, 
2462.00, 
2463.00, 
2464.00, 
2465.00, 
2466.00, 
2467.00, 
2468.00, 
2469.00, 
2470.00, 
2471.00, 
2472.00, 
2473.00, 
2474.00, 
2475.00, 
2476.00, 
2477.00, 
2478.00, 
2479.00, 
2480.00, 
2481.00, 
2482.00, 
2483.00, 
2484.00, 
2485.00, 
2486.00, 
2487.00, 
2488.00, 
2489.00, 
2490.00, 
2491.00, 
2492.00, 
2493.00, 
2494.00, 
2495.00, 
2496.00, 
2497.00, 
2498.00, 
2499.00, 
2500.00, 
2501.00, 
2502.00, 
2503.00, 
2504.00, 
2505.00, 
2506.00, 
2507.00, 
2508.00, 
2509.00, 
2510.00, 
2511.00, 
2512.00, 
2513.00, 
2514.00, 
2515.00, 
2516.00, 
2517.00, 
2518.00, 
2519.00, 
2520.00, 
2521.00, 
2522.00, 
2523.00, 
2524.00, 
2525.00, 
2526.00, 
2527.00, 
2528.00, 
2529.00, 
2530.00, 
2531.00, 
2532.00, 
2533.00, 
2534.00, 
2535.00, 
2536.00, 
2537.00, 
2538.00, 
2539.00, 
2540.00, 
2541.00, 
2542.00, 
2543.00, 
2544.00, 
2545.00, 
2546.00, 
2547.00, 
2548.00, 
2549.00, 
2550.00, 
2551.00, 
2552.00, 
2553.00, 
2554.00, 
2555.00, 
2556.00, 
2557.00, 
2558.00, 
2559.00, 
2560.00, 
2561.00, 
2562.00, 
2563.00, 
2564.00, 
2565.00, 
2566.00, 
2567.00, 
2568.00, 
2569.00, 
2570.00, 
2571.00, 
2572.00, 
2573.00, 
2574.00, 
2575.00, 
2576.00, 
2577.00, 
2578.00, 
2579.00, 
2580.00, 
2581.00, 
2582.00, 
2583.00, 
2584.00, 
2585.00, 
2586.00, 
2587.00, 
2588.00, 
2589.00, 
2590.00, 
2591.00, 
2592.00, 
2593.00, 
2594.00, 
2595.00, 
2596.00, 
2597.00, 
2598.00, 
2599.00, 
2600.00, 
