"2aP2 - RawData"
"Wavelength nm.","T%"
200.00,0.003
201.00,0.000
202.00,-0.001
203.00,0.002
204.00,-0.000
205.00,0.002
206.00,0.003
207.00,0.001
208.00,0.001
209.00,-0.000
210.00,-0.001
211.00,0.000
212.00,0.000
213.00,0.001
214.00,0.001
215.00,0.002
216.00,0.000
217.00,0.002
218.00,-0.001
219.00,0.002
220.00,0.002
221.00,0.001
222.00,0.002
223.00,0.002
224.00,0.000
225.00,-0.001
226.00,0.003
227.00,0.001
228.00,0.003
229.00,0.001
230.00,0.001
231.00,0.001
232.00,0.002
233.00,0.002
234.00,0.002
235.00,0.003
236.00,0.001
237.00,0.002
238.00,0.001
239.00,0.003
240.00,0.003
241.00,-0.000
242.00,0.002
243.00,0.001
244.00,0.000
245.00,0.002
246.00,0.001
247.00,0.000
248.00,0.000
249.00,0.001
250.00,0.001
251.00,0.001
252.00,0.002
253.00,0.000
254.00,0.002
255.00,0.001
256.00,0.000
257.00,0.001
258.00,-0.000
259.00,0.001
260.00,0.001
261.00,0.003
262.00,-0.000
263.00,0.001
264.00,-0.000
265.00,0.000
266.00,-0.001
267.00,0.000
268.00,-0.001
269.00,-0.000
270.00,0.001
271.00,0.002
272.00,0.000
273.00,0.000
274.00,0.002
275.00,0.000
276.00,-0.000
277.00,0.000
278.00,-0.000
279.00,-0.000
280.00,0.001
281.00,0.001
282.00,-0.000
283.00,0.001
284.00,0.001
285.00,-0.002
286.00,-0.001
287.00,-0.000
288.00,0.000
289.00,-0.001
290.00,0.000
291.00,0.001
292.00,-0.001
293.00,-0.000
294.00,0.000
295.00,0.000
296.00,-0.001
297.00,0.000
298.00,0.001
299.00,0.001
300.00,0.001
301.00,0.003
302.00,0.005
303.00,0.005
304.00,0.011
305.00,0.015
306.00,0.023
307.00,0.032
308.00,0.050
309.00,0.080
310.00,0.110
311.00,0.149
312.00,0.208
313.00,0.278
314.00,0.360
315.00,0.464
316.00,0.589
317.00,0.751
318.00,0.932
319.00,1.137
320.00,1.373
321.00,1.659
322.00,1.959
323.00,2.292
324.00,2.648
325.00,3.026
326.00,3.423
327.00,3.842
328.00,4.297
329.00,4.747
330.00,5.222
331.00,5.705
332.00,6.182
333.00,6.732
334.00,7.195
335.00,7.692
336.00,8.197
337.00,8.645
338.00,9.179
339.00,9.644
340.00,10.109
341.00,10.562
342.00,10.962
343.00,11.387
344.00,11.807
345.00,12.173
346.00,12.504
347.00,12.792
348.00,13.137
349.00,13.411
350.00,13.670
351.00,13.950
352.00,14.142
353.00,14.401
354.00,14.600
355.00,14.788
356.00,14.981
357.00,15.091
358.00,15.285
359.00,15.458
360.00,15.597
361.00,15.661
362.00,15.761
363.00,15.870
364.00,15.898
365.00,15.968
366.00,16.027
367.00,16.072
368.00,16.083
369.00,16.139
370.00,16.177
371.00,16.145
372.00,16.168
373.00,16.140
374.00,16.127
375.00,16.130
376.00,16.035
377.00,16.000
378.00,15.960
379.00,15.870
380.00,15.899
381.00,15.850
382.00,15.810
383.00,15.816
384.00,15.825
385.00,15.822
386.00,15.772
387.00,15.854
388.00,15.813
389.00,15.814
390.00,15.857
391.00,15.861
392.00,15.889
393.00,15.882
394.00,15.869
395.00,15.895
396.00,15.840
397.00,15.829
398.00,15.816
399.00,15.818
400.00,15.807
401.00,15.811
402.00,15.786
403.00,15.788
404.00,15.785
405.00,15.744
406.00,15.752
407.00,15.696
408.00,15.704
409.00,15.669
410.00,15.645
411.00,15.636
412.00,15.618
413.00,15.641
414.00,15.617
415.00,15.648
416.00,15.723
417.00,15.675
418.00,15.681
419.00,15.752
420.00,15.796
421.00,15.827
422.00,15.822
423.00,15.890
424.00,15.950
425.00,15.937
426.00,15.960
427.00,16.011
428.00,16.046
429.00,16.075
430.00,16.132
431.00,16.212
432.00,16.231
433.00,16.295
434.00,16.344
435.00,16.430
436.00,16.486
437.00,16.552
438.00,16.621
439.00,16.689
440.00,16.774
441.00,16.839
442.00,16.913
443.00,17.007
444.00,17.091
445.00,17.178
446.00,17.301
447.00,17.354
448.00,17.472
449.00,17.566
450.00,17.678
451.00,17.764
452.00,17.855
453.00,17.988
454.00,18.083
455.00,18.186
456.00,18.301
457.00,18.399
458.00,18.497
459.00,18.649
460.00,18.789
461.00,18.923
462.00,19.032
463.00,19.163
464.00,19.285
465.00,19.446
466.00,19.562
467.00,19.698
468.00,19.808
469.00,19.923
470.00,20.010
471.00,20.117
472.00,20.264
473.00,20.364
474.00,20.499
475.00,20.653
476.00,20.714
477.00,20.886
478.00,21.003
479.00,21.217
480.00,21.340
481.00,21.469
482.00,21.648
483.00,21.801
484.00,21.984
485.00,22.109
486.00,22.285
487.00,22.461
488.00,22.572
489.00,22.736
490.00,22.914
491.00,23.030
492.00,23.260
493.00,23.434
494.00,23.441
495.00,23.603
496.00,23.760
497.00,23.873
498.00,24.036
499.00,24.161
500.00,24.363
501.00,24.435
502.00,24.605
503.00,24.736
504.00,24.739
505.00,24.963
506.00,25.124
507.00,25.216
508.00,25.366
509.00,25.536
510.00,25.662
511.00,25.766
512.00,25.929
513.00,26.038
514.00,26.206
515.00,26.374
516.00,26.435
517.00,26.508
518.00,26.713
519.00,26.790
520.00,26.887
521.00,27.015
522.00,27.094
523.00,27.197
524.00,27.303
525.00,27.423
526.00,27.579
527.00,27.631
528.00,27.677
529.00,27.838
530.00,28.049
531.00,28.080
532.00,28.237
533.00,28.243
534.00,28.424
535.00,28.523
536.00,28.596
537.00,28.698
538.00,28.764
539.00,28.823
540.00,28.922
541.00,29.025
542.00,29.035
543.00,29.117
544.00,29.193
545.00,29.302
546.00,29.355
547.00,29.528
548.00,29.594
549.00,29.648
550.00,29.721
551.00,29.842
552.00,29.910
553.00,29.940
554.00,30.058
555.00,30.121
556.00,30.176
557.00,30.243
558.00,30.348
559.00,30.419
560.00,30.477
561.00,30.516
562.00,30.600
563.00,30.664
564.00,30.697
565.00,30.760
566.00,30.798
567.00,30.836
568.00,30.875
569.00,30.944
570.00,30.989
571.00,31.042
572.00,31.059
573.00,31.074
574.00,31.149
575.00,31.139
576.00,31.148
577.00,31.268
578.00,31.361
579.00,31.430
580.00,31.490
581.00,31.635
582.00,31.703
583.00,31.720
584.00,31.850
585.00,31.869
586.00,31.913
587.00,31.947
588.00,32.018
589.00,32.020
590.00,32.127
591.00,32.132
592.00,32.019
593.00,32.178
594.00,32.338
595.00,32.383
596.00,32.433
597.00,32.468
598.00,32.581
599.00,32.622
600.00,32.661
601.00,32.700
602.00,32.716
603.00,32.795
604.00,32.860
605.00,32.968
606.00,32.972
607.00,33.010
608.00,33.160
609.00,33.258
610.00,33.185
611.00,33.203
612.00,33.268
613.00,33.342
614.00,33.388
615.00,33.454
616.00,33.546
617.00,33.591
618.00,33.562
619.00,33.768
620.00,33.893
621.00,33.891
622.00,33.945
623.00,34.010
624.00,34.139
625.00,34.204
626.00,34.228
627.00,34.294
628.00,34.342
629.00,34.405
630.00,34.509
631.00,34.573
632.00,34.650
633.00,34.736
634.00,34.985
635.00,35.016
636.00,35.090
637.00,35.178
638.00,35.282
639.00,35.412
640.00,35.498
641.00,35.533
642.00,35.649
643.00,35.714
644.00,35.844
645.00,35.937
646.00,36.087
647.00,36.170
648.00,36.240
649.00,36.317
650.00,36.380
651.00,36.618
652.00,36.731
653.00,36.696
654.00,36.798
655.00,37.031
656.00,37.344
657.00,37.184
658.00,37.303
659.00,37.332
660.00,37.542
661.00,37.624
662.00,37.736
663.00,37.896
664.00,38.174
665.00,38.354
666.00,38.289
667.00,38.409
668.00,38.487
669.00,38.671
670.00,38.993
671.00,39.047
672.00,39.094
673.00,39.216
674.00,39.290
675.00,39.418
676.00,39.687
677.00,39.838
678.00,39.681
679.00,39.942
680.00,40.075
681.00,40.258
682.00,40.274
683.00,40.327
684.00,40.584
685.00,40.789
686.00,40.775
687.00,40.835
688.00,40.949
689.00,40.978
690.00,41.170
691.00,41.623
692.00,41.431
693.00,41.519
694.00,41.781
695.00,41.889
696.00,41.978
697.00,42.082
698.00,42.121
699.00,42.420
700.00,42.620
701.00,42.559
702.00,42.753
703.00,43.011
704.00,43.013
705.00,42.997
706.00,43.182
707.00,43.298
708.00,43.187
709.00,43.698
710.00,44.035
711.00,43.597
712.00,43.712
713.00,43.992
714.00,44.066
715.00,44.107
716.00,44.056
717.00,44.455
718.00,44.705
719.00,44.589
720.00,44.725
721.00,49.034
722.00,48.995
723.00,49.146
724.00,49.194
725.00,49.240
726.00,49.286
727.00,49.355
728.00,49.471
729.00,49.536
730.00,49.600
731.00,49.684
732.00,49.687
733.00,49.839
734.00,49.900
735.00,49.875
736.00,49.990
737.00,50.026
738.00,50.198
739.00,50.286
740.00,50.328
741.00,50.387
742.00,50.413
743.00,50.510
744.00,50.430
745.00,50.605
746.00,50.500
747.00,50.542
748.00,50.683
749.00,50.661
750.00,50.735
751.00,50.687
752.00,50.749
753.00,50.734
754.00,50.869
755.00,50.897
756.00,50.972
757.00,51.061
758.00,51.046
759.00,51.077
760.00,51.111
761.00,51.118
762.00,51.180
763.00,51.254
764.00,51.219
765.00,51.342
766.00,51.372
767.00,51.433
768.00,51.459
769.00,51.328
770.00,51.515
771.00,51.544
772.00,51.521
773.00,51.627
774.00,51.616
775.00,51.659
776.00,51.672
777.00,51.728
778.00,51.715
779.00,51.801
780.00,51.760
781.00,51.871
782.00,51.809
783.00,51.778
784.00,51.800
785.00,51.783
786.00,51.849
787.00,51.918
788.00,51.936
789.00,51.988
790.00,51.891
791.00,52.010
792.00,51.953
793.00,51.953
794.00,51.983
795.00,51.945
796.00,51.914
797.00,51.970
798.00,51.951
799.00,51.927
800.00,51.977
801.00,51.956
802.00,51.991
803.00,51.970
804.00,51.932
805.00,51.978
806.00,52.006
807.00,51.959
808.00,52.014
809.00,51.991
810.00,51.980
811.00,51.971
812.00,51.975
813.00,51.897
814.00,51.885
815.00,51.955
816.00,51.966
817.00,51.956
818.00,51.932
819.00,51.870
820.00,51.860
821.00,51.937
822.00,51.979
823.00,51.886
824.00,51.909
825.00,51.860
826.00,51.952
827.00,51.853
828.00,51.963
829.00,51.925
830.00,51.932
831.00,54.104
832.00,54.106
833.00,54.066
834.00,54.064
835.00,53.993
836.00,54.072
837.00,54.006
838.00,54.019
839.00,53.993
840.00,53.952
841.00,54.003
842.00,53.956
843.00,53.957
844.00,53.956
845.00,53.916
846.00,53.942
847.00,53.906
848.00,53.921
849.00,53.824
850.00,53.792
851.00,53.886
852.00,53.805
853.00,53.785
854.00,53.769
855.00,53.721
856.00,53.732
857.00,53.706
858.00,53.650
859.00,53.645
860.00,53.639
861.00,53.639
862.00,53.583
863.00,53.634
864.00,53.604
865.00,53.600
866.00,53.767
867.00,53.599
868.00,53.609
869.00,53.593
870.00,53.628
871.00,53.609
872.00,53.618
873.00,53.582
874.00,53.606
875.00,53.562
876.00,53.597
877.00,53.538
878.00,53.555
879.00,53.521
880.00,53.511
881.00,53.449
882.00,53.512
883.00,53.473
884.00,53.453
885.00,53.472
886.00,53.457
887.00,53.447
888.00,53.399
889.00,53.399
890.00,53.371
891.00,53.356
892.00,53.320
893.00,53.299
894.00,53.313
895.00,53.282
896.00,53.249
897.00,53.255
898.00,53.248
899.00,53.229
900.00,53.226
901.00,53.212
902.00,53.215
903.00,53.183
904.00,53.176
905.00,53.134
906.00,53.148
907.00,53.119
908.00,53.072
909.00,53.020
910.00,53.153
911.00,53.044
912.00,53.033
913.00,52.991
914.00,52.989
915.00,52.963
916.00,52.945
917.00,52.865
918.00,53.042
919.00,52.884
920.00,52.849
921.00,52.857
922.00,52.860
923.00,52.821
924.00,52.819
925.00,52.817
926.00,52.787
927.00,52.766
928.00,52.736
929.00,52.744
930.00,52.702
931.00,52.699
932.00,52.695
933.00,52.688
934.00,52.634
935.00,52.597
936.00,52.597
937.00,52.591
938.00,52.588
939.00,52.577
940.00,52.547
941.00,52.545
942.00,52.510
943.00,52.510
944.00,52.465
945.00,52.460
946.00,52.445
947.00,52.448
948.00,52.409
949.00,52.393
950.00,52.375
951.00,52.367
952.00,52.348
953.00,52.307
954.00,52.288
955.00,52.248
956.00,52.257
957.00,52.195
958.00,52.206
959.00,52.146
960.00,52.136
961.00,52.140
962.00,52.123
963.00,52.086
964.00,52.101
965.00,52.070
966.00,52.074
967.00,52.098
968.00,52.028
969.00,52.084
970.00,52.048
971.00,52.071
972.00,52.018
973.00,52.067
974.00,52.085
975.00,52.050
976.00,52.050
977.00,52.041
978.00,52.084
979.00,52.025
980.00,52.069
981.00,52.065
982.00,52.037
983.00,52.065
984.00,52.020
985.00,52.058
986.00,52.005
987.00,52.013
988.00,51.995
989.00,51.978
990.00,51.966
991.00,51.967
992.00,51.970
993.00,51.933
994.00,51.928
995.00,51.909
996.00,51.912
997.00,51.909
998.00,51.877
999.00,51.910
1000.00,51.837
1001.00,51.848
1002.00,51.848
1003.00,51.833
1004.00,51.824
1005.00,51.786
1006.00,51.808
1007.00,51.757
1008.00,51.774
1009.00,51.737
1010.00,51.746
1011.00,51.746
1012.00,51.704
1013.00,51.724
1014.00,51.671
1015.00,51.694
1016.00,51.652
1017.00,51.640
1018.00,51.638
1019.00,51.592
1020.00,51.586
1021.00,51.565
1022.00,51.579
1023.00,51.509
1024.00,51.537
1025.00,51.518
1026.00,51.485
1027.00,51.477
1028.00,51.505
1029.00,51.475
1030.00,51.426
1031.00,51.429
1032.00,51.396
1033.00,51.391
1034.00,51.348
1035.00,51.317
1036.00,51.297
1037.00,51.295
1038.00,51.285
1039.00,51.244
1040.00,51.261
1041.00,51.233
1042.00,51.210
1043.00,51.198
1044.00,51.250
1045.00,51.203
1046.00,51.204
1047.00,51.218
1048.00,51.232
1049.00,51.229
1050.00,51.212
1051.00,51.267
1052.00,51.254
1053.00,51.251
1054.00,51.257
1055.00,51.287
1056.00,51.280
1057.00,51.289
1058.00,51.303
1059.00,51.285
1060.00,51.299
1061.00,51.261
1062.00,51.262
1063.00,51.265
1064.00,51.254
1065.00,51.243
1066.00,51.241
1067.00,51.221
1068.00,51.250
1069.00,51.189
1070.00,51.189
1071.00,51.173
1072.00,51.189
1073.00,51.161
1074.00,51.173
1075.00,51.148
1076.00,51.170
1077.00,51.153
1078.00,51.101
1079.00,51.116
1080.00,51.103
1081.00,51.108
1082.00,51.082
1083.00,51.089
1084.00,51.081
1085.00,51.078
1086.00,51.071
1087.00,51.073
1088.00,51.070
1089.00,51.074
1090.00,51.043
1091.00,51.031
1092.00,51.022
1093.00,51.009
1094.00,50.977
1095.00,50.985
1096.00,50.963
1097.00,50.952
1098.00,50.953
1099.00,50.952
1100.00,50.917
1101.00,50.928
1102.00,50.913
1103.00,50.942
1104.00,50.944
1105.00,50.893
1106.00,50.888
1107.00,50.883
1108.00,50.858
1109.00,50.865
1110.00,50.840
1111.00,50.830
1112.00,50.821
1113.00,50.820
1114.00,50.811
1115.00,50.802
1116.00,50.802
1117.00,50.785
1118.00,50.792
1119.00,50.784
1120.00,50.772
1121.00,50.780
1122.00,50.753
1123.00,50.751
1124.00,50.730
1125.00,50.732
1126.00,50.723
1127.00,50.716
1128.00,50.722
1129.00,50.715
1130.00,50.698
1131.00,50.716
1132.00,50.713
1133.00,50.687
1134.00,50.680
1135.00,50.657
1136.00,50.647
1137.00,50.652
1138.00,50.636
1139.00,50.656
1140.00,50.641
1141.00,50.627
1142.00,50.626
1143.00,50.632
1144.00,50.594
1145.00,50.613
1146.00,50.596
1147.00,50.604
1148.00,50.612
1149.00,50.615
1150.00,50.601
1151.00,50.603
1152.00,50.577
1153.00,50.590
1154.00,50.574
1155.00,50.579
1156.00,50.575
1157.00,50.562
1158.00,50.559
1159.00,50.574
1160.00,50.568
1161.00,50.578
1162.00,50.573
1163.00,50.563
1164.00,50.578
1165.00,50.580
1166.00,50.571
1167.00,50.562
1168.00,50.573
1169.00,50.554
1170.00,50.562
1171.00,50.518
1172.00,50.524
1173.00,50.529
1174.00,50.533
1175.00,50.543
1176.00,50.541
1177.00,50.525
1178.00,50.539
1179.00,50.532
1180.00,50.533
1181.00,50.534
1182.00,50.508
1183.00,50.505
1184.00,50.515
1185.00,50.512
1186.00,50.496
1187.00,50.497
1188.00,50.496
1189.00,50.506
1190.00,50.494
1191.00,50.502
1192.00,50.518
1193.00,50.487
1194.00,50.505
1195.00,50.479
1196.00,50.490
1197.00,50.499
1198.00,50.494
1199.00,50.480
1200.00,50.497
1201.00,50.510
1202.00,50.481
1203.00,50.481
1204.00,50.459
1205.00,50.494
1206.00,50.473
1207.00,50.469
1208.00,50.481
1209.00,50.475
1210.00,50.467
1211.00,50.466
1212.00,50.477
1213.00,50.443
1214.00,50.468
1215.00,50.443
1216.00,50.454
1217.00,50.457
1218.00,50.433
1219.00,50.475
1220.00,50.451
1221.00,50.457
1222.00,50.441
1223.00,50.464
1224.00,50.455
1225.00,50.450
1226.00,50.471
1227.00,50.457
1228.00,50.489
1229.00,50.465
1230.00,50.495
1231.00,50.487
1232.00,50.498
1233.00,50.503
1234.00,50.508
1235.00,50.509
1236.00,50.504
1237.00,50.501
1238.00,50.519
1239.00,50.520
1240.00,50.488
1241.00,50.523
1242.00,50.509
1243.00,50.496
1244.00,50.483
1245.00,50.522
1246.00,50.530
1247.00,50.510
1248.00,50.516
1249.00,50.522
1250.00,50.543
1251.00,50.513
1252.00,50.540
1253.00,50.537
1254.00,50.550
1255.00,50.551
1256.00,50.525
1257.00,50.535
1258.00,50.561
1259.00,50.543
1260.00,50.562
1261.00,50.567
1262.00,50.539
1263.00,50.556
1264.00,50.566
1265.00,50.556
1266.00,50.576
1267.00,50.580
1268.00,50.583
1269.00,50.600
1270.00,50.598
1271.00,50.619
1272.00,50.617
1273.00,50.609
1274.00,50.611
1275.00,50.619
1276.00,50.602
1277.00,50.611
1278.00,50.628
1279.00,50.620
1280.00,50.610
1281.00,50.620
1282.00,50.634
1283.00,50.624
1284.00,50.596
1285.00,50.636
1286.00,50.656
1287.00,50.617
1288.00,50.635
1289.00,50.628
1290.00,50.666
1291.00,50.640
1292.00,50.640
1293.00,50.652
1294.00,50.686
1295.00,50.675
1296.00,50.685
1297.00,50.694
1298.00,50.723
1299.00,50.702
1300.00,50.717
1301.00,50.719
1302.00,50.745
1303.00,50.720
1304.00,50.719
1305.00,50.747
1306.00,50.722
1307.00,50.743
1308.00,50.750
1309.00,50.751
1310.00,50.761
1311.00,50.747
1312.00,50.754
1313.00,50.777
1314.00,50.785
1315.00,50.796
1316.00,50.781
1317.00,50.806
1318.00,50.815
1319.00,50.811
1320.00,50.811
1321.00,50.982
1322.00,50.952
1323.00,50.945
1324.00,50.944
1325.00,50.929
1326.00,50.949
1327.00,50.952
1328.00,50.938
1329.00,50.942
1330.00,50.954
1331.00,50.939
1332.00,50.951
1333.00,50.956
1334.00,50.976
1335.00,50.977
1336.00,51.004
1337.00,51.041
1338.00,51.106
1339.00,51.123
1340.00,51.207
1341.00,51.260
1342.00,51.323
1343.00,51.402
1344.00,51.407
1345.00,51.457
1346.00,51.509
1347.00,51.538
1348.00,51.543
1349.00,51.582
1350.00,51.581
1351.00,51.596
1352.00,51.593
1353.00,51.593
1354.00,51.610
1355.00,51.555
1356.00,51.644
1357.00,51.645
1358.00,51.653
1359.00,51.545
1360.00,51.684
1361.00,51.723
1362.00,51.577
1363.00,51.763
1364.00,51.744
1365.00,51.640
1366.00,51.686
1367.00,51.642
1368.00,51.579
1369.00,51.652
1370.00,51.664
1371.00,51.576
1372.00,51.618
1373.00,51.651
1374.00,51.640
1375.00,51.613
1376.00,51.627
1377.00,51.631
1378.00,51.723
1379.00,51.687
1380.00,51.670
1381.00,51.710
1382.00,51.602
1383.00,51.645
1384.00,51.596
1385.00,51.611
1386.00,51.655
1387.00,51.603
1388.00,51.576
1389.00,51.637
1390.00,51.674
1391.00,51.627
1392.00,51.578
1393.00,51.606
1394.00,51.602
1395.00,51.594
1396.00,51.547
1397.00,51.662
1398.00,51.685
1399.00,51.655
1400.00,51.377
1401.00,51.610
1402.00,51.684
1403.00,51.658
1404.00,51.643
1405.00,51.667
1406.00,51.691
1407.00,51.678
1408.00,51.680
1409.00,51.664
1410.00,51.718
1411.00,51.652
1412.00,51.767
1413.00,51.734
1414.00,51.651
1415.00,51.713
1416.00,51.723
1417.00,51.742
1418.00,51.726
1419.00,51.737
1420.00,51.785
1421.00,51.830
1422.00,51.799
1423.00,51.836
1424.00,51.831
1425.00,51.847
1426.00,51.853
1427.00,51.852
1428.00,51.866
1429.00,51.882
1430.00,51.889
1431.00,51.927
1432.00,51.938
1433.00,51.940
1434.00,51.940
1435.00,52.000
1436.00,51.997
1437.00,51.977
1438.00,51.995
1439.00,52.024
1440.00,52.032
1441.00,52.023
1442.00,52.053
1443.00,52.086
1444.00,52.156
1445.00,52.092
1446.00,52.115
1447.00,52.145
1448.00,52.199
1449.00,52.176
1450.00,52.179
1451.00,52.186
1452.00,52.202
1453.00,52.203
1454.00,52.218
1455.00,52.230
1456.00,52.264
1457.00,52.254
1458.00,52.270
1459.00,52.301
1460.00,52.315
1461.00,52.325
1462.00,52.343
1463.00,52.359
1464.00,52.394
1465.00,52.402
1466.00,52.395
1467.00,52.441
1468.00,52.489
1469.00,52.444
1470.00,52.468
1471.00,52.489
1472.00,52.489
1473.00,52.507
1474.00,52.521
1475.00,52.540
1476.00,52.552
1477.00,52.510
1478.00,52.568
1479.00,52.600
1480.00,52.606
1481.00,52.633
1482.00,52.641
1483.00,52.652
1484.00,52.657
1485.00,52.655
1486.00,52.684
1487.00,52.696
1488.00,52.719
1489.00,52.711
1490.00,52.730
1491.00,52.727
1492.00,52.748
1493.00,52.744
1494.00,52.760
1495.00,52.764
1496.00,52.804
1497.00,52.765
1498.00,52.801
1499.00,52.803
1500.00,52.827
1501.00, 
1502.00, 
1503.00, 
1504.00, 
1505.00, 
1506.00, 
1507.00, 
1508.00, 
1509.00, 
1510.00, 
1511.00, 
1512.00, 
1513.00, 
1514.00, 
1515.00, 
1516.00, 
1517.00, 
1518.00, 
1519.00, 
1520.00, 
1521.00, 
1522.00, 
1523.00, 
1524.00, 
1525.00, 
1526.00, 
1527.00, 
1528.00, 
1529.00, 
1530.00, 
1531.00, 
1532.00, 
1533.00, 
1534.00, 
1535.00, 
1536.00, 
1537.00, 
1538.00, 
1539.00, 
1540.00, 
1541.00, 
1542.00, 
1543.00, 
1544.00, 
1545.00, 
1546.00, 
1547.00, 
1548.00, 
1549.00, 
1550.00, 
1551.00, 
1552.00, 
1553.00, 
1554.00, 
1555.00, 
1556.00, 
1557.00, 
1558.00, 
1559.00, 
1560.00, 
1561.00, 
1562.00, 
1563.00, 
1564.00, 
1565.00, 
1566.00, 
1567.00, 
1568.00, 
1569.00, 
1570.00, 
1571.00, 
1572.00, 
1573.00, 
1574.00, 
1575.00, 
1576.00, 
1577.00, 
1578.00, 
1579.00, 
1580.00, 
1581.00, 
1582.00, 
1583.00, 
1584.00, 
1585.00, 
1586.00, 
1587.00, 
1588.00, 
1589.00, 
1590.00, 
1591.00, 
1592.00, 
1593.00, 
1594.00, 
1595.00, 
1596.00, 
1597.00, 
1598.00, 
1599.00, 
1600.00, 
1601.00, 
1602.00, 
1603.00, 
1604.00, 
1605.00, 
1606.00, 
1607.00, 
1608.00, 
1609.00, 
1610.00, 
1611.00, 
1612.00, 
1613.00, 
1614.00, 
1615.00, 
1616.00, 
1617.00, 
1618.00, 
1619.00, 
1620.00, 
1621.00, 
1622.00, 
1623.00, 
1624.00, 
1625.00, 
1626.00, 
1627.00, 
1628.00, 
1629.00, 
1630.00, 
1631.00, 
1632.00, 
1633.00, 
1634.00, 
1635.00, 
1636.00, 
1637.00, 
1638.00, 
1639.00, 
1640.00, 
1641.00, 
1642.00, 
1643.00, 
1644.00, 
1645.00, 
1646.00, 
1647.00, 
1648.00, 
1649.00, 
1650.00, 
1651.00, 
1652.00, 
1653.00, 
1654.00, 
1655.00, 
1656.00, 
1657.00, 
1658.00, 
1659.00, 
1660.00, 
1661.00, 
1662.00, 
1663.00, 
1664.00, 
1665.00, 
1666.00, 
1667.00, 
1668.00, 
1669.00, 
1670.00, 
1671.00, 
1672.00, 
1673.00, 
1674.00, 
1675.00, 
1676.00, 
1677.00, 
1678.00, 
1679.00, 
1680.00, 
1681.00, 
1682.00, 
1683.00, 
1684.00, 
1685.00, 
1686.00, 
1687.00, 
1688.00, 
1689.00, 
1690.00, 
1691.00, 
1692.00, 
1693.00, 
1694.00, 
1695.00, 
1696.00, 
1697.00, 
1698.00, 
1699.00, 
1700.00, 
1701.00, 
1702.00, 
1703.00, 
1704.00, 
1705.00, 
1706.00, 
1707.00, 
1708.00, 
1709.00, 
1710.00, 
1711.00, 
1712.00, 
1713.00, 
1714.00, 
1715.00, 
1716.00, 
1717.00, 
1718.00, 
1719.00, 
1720.00, 
1721.00, 
1722.00, 
1723.00, 
1724.00, 
1725.00, 
1726.00, 
1727.00, 
1728.00, 
1729.00, 
1730.00, 
1731.00, 
1732.00, 
1733.00, 
1734.00, 
1735.00, 
1736.00, 
1737.00, 
1738.00, 
1739.00, 
1740.00, 
1741.00, 
1742.00, 
1743.00, 
1744.00, 
1745.00, 
1746.00, 
1747.00, 
1748.00, 
1749.00, 
1750.00, 
1751.00, 
1752.00, 
1753.00, 
1754.00, 
1755.00, 
1756.00, 
1757.00, 
1758.00, 
1759.00, 
1760.00, 
1761.00, 
1762.00, 
1763.00, 
1764.00, 
1765.00, 
1766.00, 
1767.00, 
1768.00, 
1769.00, 
1770.00, 
1771.00, 
1772.00, 
1773.00, 
1774.00, 
1775.00, 
1776.00, 
1777.00, 
1778.00, 
1779.00, 
1780.00, 
1781.00, 
1782.00, 
1783.00, 
1784.00, 
1785.00, 
1786.00, 
1787.00, 
1788.00, 
1789.00, 
1790.00, 
1791.00, 
1792.00, 
1793.00, 
1794.00, 
1795.00, 
1796.00, 
1797.00, 
1798.00, 
1799.00, 
1800.00, 
1801.00, 
1802.00, 
1803.00, 
1804.00, 
1805.00, 
1806.00, 
1807.00, 
1808.00, 
1809.00, 
1810.00, 
1811.00, 
1812.00, 
1813.00, 
1814.00, 
1815.00, 
1816.00, 
1817.00, 
1818.00, 
1819.00, 
1820.00, 
1821.00, 
1822.00, 
1823.00, 
1824.00, 
1825.00, 
1826.00, 
1827.00, 
1828.00, 
1829.00, 
1830.00, 
1831.00, 
1832.00, 
1833.00, 
1834.00, 
1835.00, 
1836.00, 
1837.00, 
1838.00, 
1839.00, 
1840.00, 
1841.00, 
1842.00, 
1843.00, 
1844.00, 
1845.00, 
1846.00, 
1847.00, 
1848.00, 
1849.00, 
1850.00, 
1851.00, 
1852.00, 
1853.00, 
1854.00, 
1855.00, 
1856.00, 
1857.00, 
1858.00, 
1859.00, 
1860.00, 
1861.00, 
1862.00, 
1863.00, 
1864.00, 
1865.00, 
1866.00, 
1867.00, 
1868.00, 
1869.00, 
1870.00, 
1871.00, 
1872.00, 
1873.00, 
1874.00, 
1875.00, 
1876.00, 
1877.00, 
1878.00, 
1879.00, 
1880.00, 
1881.00, 
1882.00, 
1883.00, 
1884.00, 
1885.00, 
1886.00, 
1887.00, 
1888.00, 
1889.00, 
1890.00, 
1891.00, 
1892.00, 
1893.00, 
1894.00, 
1895.00, 
1896.00, 
1897.00, 
1898.00, 
1899.00, 
1900.00, 
1901.00, 
1902.00, 
1903.00, 
1904.00, 
1905.00, 
1906.00, 
1907.00, 
1908.00, 
1909.00, 
1910.00, 
1911.00, 
1912.00, 
1913.00, 
1914.00, 
1915.00, 
1916.00, 
1917.00, 
1918.00, 
1919.00, 
1920.00, 
1921.00, 
1922.00, 
1923.00, 
1924.00, 
1925.00, 
1926.00, 
1927.00, 
1928.00, 
1929.00, 
1930.00, 
1931.00, 
1932.00, 
1933.00, 
1934.00, 
1935.00, 
1936.00, 
1937.00, 
1938.00, 
1939.00, 
1940.00, 
1941.00, 
1942.00, 
1943.00, 
1944.00, 
1945.00, 
1946.00, 
1947.00, 
1948.00, 
1949.00, 
1950.00, 
1951.00, 
1952.00, 
1953.00, 
1954.00, 
1955.00, 
1956.00, 
1957.00, 
1958.00, 
1959.00, 
1960.00, 
1961.00, 
1962.00, 
1963.00, 
1964.00, 
1965.00, 
1966.00, 
1967.00, 
1968.00, 
1969.00, 
1970.00, 
1971.00, 
1972.00, 
1973.00, 
1974.00, 
1975.00, 
1976.00, 
1977.00, 
1978.00, 
1979.00, 
1980.00, 
1981.00, 
1982.00, 
1983.00, 
1984.00, 
1985.00, 
1986.00, 
1987.00, 
1988.00, 
1989.00, 
1990.00, 
1991.00, 
1992.00, 
1993.00, 
1994.00, 
1995.00, 
1996.00, 
1997.00, 
1998.00, 
1999.00, 
2000.00, 
2001.00, 
2002.00, 
2003.00, 
2004.00, 
2005.00, 
2006.00, 
2007.00, 
2008.00, 
2009.00, 
2010.00, 
2011.00, 
2012.00, 
2013.00, 
2014.00, 
2015.00, 
2016.00, 
2017.00, 
2018.00, 
2019.00, 
2020.00, 
2021.00, 
2022.00, 
2023.00, 
2024.00, 
2025.00, 
2026.00, 
2027.00, 
2028.00, 
2029.00, 
2030.00, 
2031.00, 
2032.00, 
2033.00, 
2034.00, 
2035.00, 
2036.00, 
2037.00, 
2038.00, 
2039.00, 
2040.00, 
2041.00, 
2042.00, 
2043.00, 
2044.00, 
2045.00, 
2046.00, 
2047.00, 
2048.00, 
2049.00, 
2050.00, 
2051.00, 
2052.00, 
2053.00, 
2054.00, 
2055.00, 
2056.00, 
2057.00, 
2058.00, 
2059.00, 
2060.00, 
2061.00, 
2062.00, 
2063.00, 
2064.00, 
2065.00, 
2066.00, 
2067.00, 
2068.00, 
2069.00, 
2070.00, 
2071.00, 
2072.00, 
2073.00, 
2074.00, 
2075.00, 
2076.00, 
2077.00, 
2078.00, 
2079.00, 
2080.00, 
2081.00, 
2082.00, 
2083.00, 
2084.00, 
2085.00, 
2086.00, 
2087.00, 
2088.00, 
2089.00, 
2090.00, 
2091.00, 
2092.00, 
2093.00, 
2094.00, 
2095.00, 
2096.00, 
2097.00, 
2098.00, 
2099.00, 
2100.00, 
2101.00, 
2102.00, 
2103.00, 
2104.00, 
2105.00, 
2106.00, 
2107.00, 
2108.00, 
2109.00, 
2110.00, 
2111.00, 
2112.00, 
2113.00, 
2114.00, 
2115.00, 
2116.00, 
2117.00, 
2118.00, 
2119.00, 
2120.00, 
2121.00, 
2122.00, 
2123.00, 
2124.00, 
2125.00, 
2126.00, 
2127.00, 
2128.00, 
2129.00, 
2130.00, 
2131.00, 
2132.00, 
2133.00, 
2134.00, 
2135.00, 
2136.00, 
2137.00, 
2138.00, 
2139.00, 
2140.00, 
2141.00, 
2142.00, 
2143.00, 
2144.00, 
2145.00, 
2146.00, 
2147.00, 
2148.00, 
2149.00, 
2150.00, 
2151.00, 
2152.00, 
2153.00, 
2154.00, 
2155.00, 
2156.00, 
2157.00, 
2158.00, 
2159.00, 
2160.00, 
2161.00, 
2162.00, 
2163.00, 
2164.00, 
2165.00, 
2166.00, 
2167.00, 
2168.00, 
2169.00, 
2170.00, 
2171.00, 
2172.00, 
2173.00, 
2174.00, 
2175.00, 
2176.00, 
2177.00, 
2178.00, 
2179.00, 
2180.00, 
2181.00, 
2182.00, 
2183.00, 
2184.00, 
2185.00, 
2186.00, 
2187.00, 
2188.00, 
2189.00, 
2190.00, 
2191.00, 
2192.00, 
2193.00, 
2194.00, 
2195.00, 
2196.00, 
2197.00, 
2198.00, 
2199.00, 
2200.00, 
2201.00, 
2202.00, 
2203.00, 
2204.00, 
2205.00, 
2206.00, 
2207.00, 
2208.00, 
2209.00, 
2210.00, 
2211.00, 
2212.00, 
2213.00, 
2214.00, 
2215.00, 
2216.00, 
2217.00, 
2218.00, 
2219.00, 
2220.00, 
2221.00, 
2222.00, 
2223.00, 
2224.00, 
2225.00, 
2226.00, 
2227.00, 
2228.00, 
2229.00, 
2230.00, 
2231.00, 
2232.00, 
2233.00, 
2234.00, 
2235.00, 
2236.00, 
2237.00, 
2238.00, 
2239.00, 
2240.00, 
2241.00, 
2242.00, 
2243.00, 
2244.00, 
2245.00, 
2246.00, 
2247.00, 
2248.00, 
2249.00, 
2250.00, 
2251.00, 
2252.00, 
2253.00, 
2254.00, 
2255.00, 
2256.00, 
2257.00, 
2258.00, 
2259.00, 
2260.00, 
2261.00, 
2262.00, 
2263.00, 
2264.00, 
2265.00, 
2266.00, 
2267.00, 
2268.00, 
2269.00, 
2270.00, 
2271.00, 
2272.00, 
2273.00, 
2274.00, 
2275.00, 
2276.00, 
2277.00, 
2278.00, 
2279.00, 
2280.00, 
2281.00, 
2282.00, 
2283.00, 
2284.00, 
2285.00, 
2286.00, 
2287.00, 
2288.00, 
2289.00, 
2290.00, 
2291.00, 
2292.00, 
2293.00, 
2294.00, 
2295.00, 
2296.00, 
2297.00, 
2298.00, 
2299.00, 
2300.00, 
2301.00, 
2302.00, 
2303.00, 
2304.00, 
2305.00, 
2306.00, 
2307.00, 
2308.00, 
2309.00, 
2310.00, 
2311.00, 
2312.00, 
2313.00, 
2314.00, 
2315.00, 
2316.00, 
2317.00, 
2318.00, 
2319.00, 
2320.00, 
2321.00, 
2322.00, 
2323.00, 
2324.00, 
2325.00, 
2326.00, 
2327.00, 
2328.00, 
2329.00, 
2330.00, 
2331.00, 
2332.00, 
2333.00, 
2334.00, 
2335.00, 
2336.00, 
2337.00, 
2338.00, 
2339.00, 
2340.00, 
2341.00, 
2342.00, 
2343.00, 
2344.00, 
2345.00, 
2346.00, 
2347.00, 
2348.00, 
2349.00, 
2350.00, 
2351.00, 
2352.00, 
2353.00, 
2354.00, 
2355.00, 
2356.00, 
2357.00, 
2358.00, 
2359.00, 
2360.00, 
2361.00, 
2362.00, 
2363.00, 
2364.00, 
2365.00, 
2366.00, 
2367.00, 
2368.00, 
2369.00, 
2370.00, 
2371.00, 
2372.00, 
2373.00, 
2374.00, 
2375.00, 
2376.00, 
2377.00, 
2378.00, 
2379.00, 
2380.00, 
2381.00, 
2382.00, 
2383.00, 
2384.00, 
2385.00, 
2386.00, 
2387.00, 
2388.00, 
2389.00, 
2390.00, 
2391.00, 
2392.00, 
2393.00, 
2394.00, 
2395.00, 
2396.00, 
2397.00, 
2398.00, 
2399.00, 
2400.00, 
2401.00, 
2402.00, 
2403.00, 
2404.00, 
2405.00, 
2406.00, 
2407.00, 
2408.00, 
2409.00, 
2410.00, 
2411.00, 
2412.00, 
2413.00, 
2414.00, 
2415.00, 
2416.00, 
2417.00, 
2418.00, 
2419.00, 
2420.00, 
2421.00, 
2422.00, 
2423.00, 
2424.00, 
2425.00, 
2426.00, 
2427.00, 
2428.00, 
2429.00, 
2430.00, 
2431.00, 
2432.00, 
2433.00, 
2434.00, 
2435.00, 
2436.00, 
2437.00, 
2438.00, 
2439.00, 
2440.00, 
2441.00, 
2442.00, 
2443.00, 
2444.00, 
2445.00, 
2446.00, 
2447.00, 
2448.00, 
2449.00, 
2450.00, 
2451.00, 
2452.00, 
2453.00, 
2454.00, 
2455.00, 
2456.00, 
2457.00, 
2458.00, 
2459.00, 
2460.00, 
2461.00, 
2462.00, 
2463.00, 
2464.00, 
2465.00, 
2466.00, 
2467.00, 
2468.00, 
2469.00, 
2470.00, 
2471.00, 
2472.00, 
2473.00, 
2474.00, 
2475.00, 
2476.00, 
2477.00, 
2478.00, 
2479.00, 
2480.00, 
2481.00, 
2482.00, 
2483.00, 
2484.00, 
2485.00, 
2486.00, 
2487.00, 
2488.00, 
2489.00, 
2490.00, 
2491.00, 
2492.00, 
2493.00, 
2494.00, 
2495.00, 
2496.00, 
2497.00, 
2498.00, 
2499.00, 
2500.00, 
2501.00, 
2502.00, 
2503.00, 
2504.00, 
2505.00, 
2506.00, 
2507.00, 
2508.00, 
2509.00, 
2510.00, 
2511.00, 
2512.00, 
2513.00, 
2514.00, 
2515.00, 
2516.00, 
2517.00, 
2518.00, 
2519.00, 
2520.00, 
2521.00, 
2522.00, 
2523.00, 
2524.00, 
2525.00, 
2526.00, 
2527.00, 
2528.00, 
2529.00, 
2530.00, 
2531.00, 
2532.00, 
2533.00, 
2534.00, 
2535.00, 
2536.00, 
2537.00, 
2538.00, 
2539.00, 
2540.00, 
2541.00, 
2542.00, 
2543.00, 
2544.00, 
2545.00, 
2546.00, 
2547.00, 
2548.00, 
2549.00, 
2550.00, 
2551.00, 
2552.00, 
2553.00, 
2554.00, 
2555.00, 
2556.00, 
2557.00, 
2558.00, 
2559.00, 
2560.00, 
2561.00, 
2562.00, 
2563.00, 
2564.00, 
2565.00, 
2566.00, 
2567.00, 
2568.00, 
2569.00, 
2570.00, 
2571.00, 
2572.00, 
2573.00, 
2574.00, 
2575.00, 
2576.00, 
2577.00, 
2578.00, 
2579.00, 
2580.00, 
2581.00, 
2582.00, 
2583.00, 
2584.00, 
2585.00, 
2586.00, 
2587.00, 
2588.00, 
2589.00, 
2590.00, 
2591.00, 
2592.00, 
2593.00, 
2594.00, 
2595.00, 
2596.00, 
2597.00, 
2598.00, 
2599.00, 
2600.00, 
