"2cP1 - RawData"
"Wavelength nm.","T%"
200.00,-0.002
201.00,0.002
202.00,-0.001
203.00,0.003
204.00,0.001
205.00,-0.002
206.00,-0.002
207.00,0.001
208.00,0.002
209.00,0.003
210.00,0.001
211.00,0.002
212.00,-0.000
213.00,0.002
214.00,0.002
215.00,-0.001
216.00,0.001
217.00,0.006
218.00,-0.000
219.00,-0.002
220.00,0.002
221.00,0.001
222.00,0.003
223.00,-0.001
224.00,-0.001
225.00,0.001
226.00,0.003
227.00,0.001
228.00,0.002
229.00,0.000
230.00,0.001
231.00,0.001
232.00,-0.003
233.00,0.000
234.00,0.002
235.00,0.003
236.00,-0.000
237.00,-0.001
238.00,0.001
239.00,0.000
240.00,0.000
241.00,0.002
242.00,0.000
243.00,0.001
244.00,0.001
245.00,0.000
246.00,0.000
247.00,0.003
248.00,0.001
249.00,0.001
250.00,-0.001
251.00,-0.000
252.00,0.003
253.00,0.000
254.00,0.000
255.00,-0.001
256.00,-0.000
257.00,-0.000
258.00,0.000
259.00,0.000
260.00,-0.000
261.00,0.001
262.00,0.000
263.00,0.001
264.00,0.000
265.00,-0.001
266.00,-0.000
267.00,0.001
268.00,0.000
269.00,-0.000
270.00,0.000
271.00,0.001
272.00,0.000
273.00,0.001
274.00,-0.000
275.00,0.001
276.00,0.001
277.00,-0.000
278.00,0.001
279.00,-0.001
280.00,-0.000
281.00,0.000
282.00,0.002
283.00,0.001
284.00,-0.000
285.00,0.000
286.00,0.001
287.00,0.001
288.00,-0.001
289.00,-0.000
290.00,-0.001
291.00,0.000
292.00,-0.002
293.00,-0.002
294.00,0.000
295.00,-0.000
296.00,-0.000
297.00,0.000
298.00,0.002
299.00,0.001
300.00,0.003
301.00,0.002
302.00,0.006
303.00,0.008
304.00,0.010
305.00,0.017
306.00,0.024
307.00,0.037
308.00,0.058
309.00,0.089
310.00,0.125
311.00,0.172
312.00,0.231
313.00,0.314
314.00,0.410
315.00,0.546
316.00,0.704
317.00,0.882
318.00,1.076
319.00,1.315
320.00,1.606
321.00,1.927
322.00,2.306
323.00,2.697
324.00,3.141
325.00,3.568
326.00,4.049
327.00,4.569
328.00,5.090
329.00,5.644
330.00,6.228
331.00,6.778
332.00,7.390
333.00,8.012
334.00,8.590
335.00,9.213
336.00,9.839
337.00,10.415
338.00,11.028
339.00,11.585
340.00,12.111
341.00,12.658
342.00,13.221
343.00,13.611
344.00,14.194
345.00,14.590
346.00,15.030
347.00,15.453
348.00,15.830
349.00,16.231
350.00,16.523
351.00,16.833
352.00,17.138
353.00,17.407
354.00,17.682
355.00,17.937
356.00,18.186
357.00,18.380
358.00,18.593
359.00,18.768
360.00,18.918
361.00,19.068
362.00,19.209
363.00,19.358
364.00,19.480
365.00,19.581
366.00,19.674
367.00,19.733
368.00,19.743
369.00,19.831
370.00,19.853
371.00,19.884
372.00,19.904
373.00,19.859
374.00,19.871
375.00,19.848
376.00,19.866
377.00,19.797
378.00,19.754
379.00,19.715
380.00,19.685
381.00,19.653
382.00,19.651
383.00,19.643
384.00,19.654
385.00,19.684
386.00,19.726
387.00,19.735
388.00,19.757
389.00,19.745
390.00,19.780
391.00,19.848
392.00,19.813
393.00,19.814
394.00,19.783
395.00,19.851
396.00,19.870
397.00,19.855
398.00,19.844
399.00,19.861
400.00,19.845
401.00,19.869
402.00,19.828
403.00,19.839
404.00,19.856
405.00,19.835
406.00,19.831
407.00,19.776
408.00,19.768
409.00,19.737
410.00,19.707
411.00,19.704
412.00,19.656
413.00,19.667
414.00,19.655
415.00,19.643
416.00,19.700
417.00,19.717
418.00,19.728
419.00,19.716
420.00,19.753
421.00,19.788
422.00,19.854
423.00,19.891
424.00,19.991
425.00,19.916
426.00,19.964
427.00,20.036
428.00,20.040
429.00,20.065
430.00,20.127
431.00,20.166
432.00,20.202
433.00,20.262
434.00,20.289
435.00,20.366
436.00,20.416
437.00,20.447
438.00,20.493
439.00,20.621
440.00,20.711
441.00,20.780
442.00,20.858
443.00,20.937
444.00,21.012
445.00,21.097
446.00,21.218
447.00,21.274
448.00,21.379
449.00,21.479
450.00,21.565
451.00,21.644
452.00,21.748
453.00,21.856
454.00,21.978
455.00,22.075
456.00,22.183
457.00,22.297
458.00,22.379
459.00,22.491
460.00,22.634
461.00,22.740
462.00,22.843
463.00,22.978
464.00,23.109
465.00,23.216
466.00,23.323
467.00,23.445
468.00,23.561
469.00,23.685
470.00,23.777
471.00,23.901
472.00,24.008
473.00,24.101
474.00,24.226
475.00,24.355
476.00,24.442
477.00,24.593
478.00,24.732
479.00,24.869
480.00,25.024
481.00,25.148
482.00,25.302
483.00,25.445
484.00,25.575
485.00,25.751
486.00,25.889
487.00,26.053
488.00,26.173
489.00,26.357
490.00,26.478
491.00,26.626
492.00,26.783
493.00,26.908
494.00,26.941
495.00,26.967
496.00,27.218
497.00,27.338
498.00,27.513
499.00,27.635
500.00,27.783
501.00,27.901
502.00,28.061
503.00,28.149
504.00,28.270
505.00,28.394
506.00,28.533
507.00,28.618
508.00,28.705
509.00,28.821
510.00,28.937
511.00,29.172
512.00,29.311
513.00,29.389
514.00,29.552
515.00,29.687
516.00,29.792
517.00,29.897
518.00,30.032
519.00,30.087
520.00,30.182
521.00,30.281
522.00,30.365
523.00,30.447
524.00,30.503
525.00,30.623
526.00,30.823
527.00,30.907
528.00,30.967
529.00,31.064
530.00,31.166
531.00,31.322
532.00,31.389
533.00,31.507
534.00,31.608
535.00,31.689
536.00,31.789
537.00,31.883
538.00,31.897
539.00,32.058
540.00,32.172
541.00,32.238
542.00,32.309
543.00,32.323
544.00,32.449
545.00,32.498
546.00,32.584
547.00,32.696
548.00,32.755
549.00,32.843
550.00,32.964
551.00,33.003
552.00,33.097
553.00,33.145
554.00,33.261
555.00,33.307
556.00,33.350
557.00,33.406
558.00,33.515
559.00,33.539
560.00,33.634
561.00,33.698
562.00,33.734
563.00,33.797
564.00,33.877
565.00,33.898
566.00,33.930
567.00,33.982
568.00,34.017
569.00,34.065
570.00,34.096
571.00,34.179
572.00,34.198
573.00,34.254
574.00,34.345
575.00,34.395
576.00,34.359
577.00,34.486
578.00,34.517
579.00,34.586
580.00,34.718
581.00,34.765
582.00,34.881
583.00,34.912
584.00,35.028
585.00,35.083
586.00,35.110
587.00,35.200
588.00,35.232
589.00,35.252
590.00,35.313
591.00,35.347
592.00,35.406
593.00,35.444
594.00,35.515
595.00,35.550
596.00,35.640
597.00,35.673
598.00,35.736
599.00,35.775
600.00,35.839
601.00,35.892
602.00,35.952
603.00,36.007
604.00,36.057
605.00,36.115
606.00,36.169
607.00,36.162
608.00,36.301
609.00,36.194
610.00,36.153
611.00,36.364
612.00,36.441
613.00,36.516
614.00,36.534
615.00,36.615
616.00,36.716
617.00,36.738
618.00,36.804
619.00,36.873
620.00,36.854
621.00,36.908
622.00,37.000
623.00,36.997
624.00,37.087
625.00,37.165
626.00,37.206
627.00,37.359
628.00,37.430
629.00,37.519
630.00,37.550
631.00,37.583
632.00,37.708
633.00,37.748
634.00,37.847
635.00,37.954
636.00,37.994
637.00,38.153
638.00,38.185
639.00,38.254
640.00,38.297
641.00,38.388
642.00,38.450
643.00,38.549
644.00,38.651
645.00,38.714
646.00,38.781
647.00,38.890
648.00,38.909
649.00,39.069
650.00,39.082
651.00,39.197
652.00,39.331
653.00,39.328
654.00,39.409
655.00,39.453
656.00,39.680
657.00,39.768
658.00,39.894
659.00,39.862
660.00,39.994
661.00,40.048
662.00,40.185
663.00,40.319
664.00,40.462
665.00,40.523
666.00,40.589
667.00,40.713
668.00,40.799
669.00,41.015
670.00,40.964
671.00,41.149
672.00,41.089
673.00,41.151
674.00,41.352
675.00,41.579
676.00,41.650
677.00,41.728
678.00,41.702
679.00,41.868
680.00,41.995
681.00,42.053
682.00,42.135
683.00,42.308
684.00,42.447
685.00,42.525
686.00,42.522
687.00,42.682
688.00,42.728
689.00,42.786
690.00,42.822
691.00,43.016
692.00,43.108
693.00,43.114
694.00,43.146
695.00,43.352
696.00,43.351
697.00,43.493
698.00,43.680
699.00,43.853
700.00,44.019
701.00,43.917
702.00,44.075
703.00,44.269
704.00,44.320
705.00,44.349
706.00,44.433
707.00,44.655
708.00,44.372
709.00,44.637
710.00,44.917
711.00,44.851
712.00,44.857
713.00,44.992
714.00,45.013
715.00,45.187
716.00,45.243
717.00,45.274
718.00,45.245
719.00,45.394
720.00,45.449
721.00,49.518
722.00,49.529
723.00,49.607
724.00,49.625
725.00,49.661
726.00,49.682
727.00,49.709
728.00,49.723
729.00,49.785
730.00,49.810
731.00,49.914
732.00,49.909
733.00,49.952
734.00,50.034
735.00,49.970
736.00,50.102
737.00,50.090
738.00,50.191
739.00,50.280
740.00,50.268
741.00,50.278
742.00,50.356
743.00,50.386
744.00,50.347
745.00,50.396
746.00,50.298
747.00,50.272
748.00,50.408
749.00,50.295
750.00,50.437
751.00,50.387
752.00,50.453
753.00,50.453
754.00,50.479
755.00,50.485
756.00,50.537
757.00,50.557
758.00,50.572
759.00,50.586
760.00,50.628
761.00,50.613
762.00,50.648
763.00,50.634
764.00,50.636
765.00,50.676
766.00,50.773
767.00,50.760
768.00,50.763
769.00,50.715
770.00,50.785
771.00,50.797
772.00,50.817
773.00,50.849
774.00,50.881
775.00,50.868
776.00,50.897
777.00,50.905
778.00,50.841
779.00,50.965
780.00,50.884
781.00,50.925
782.00,50.876
783.00,50.860
784.00,50.845
785.00,50.929
786.00,50.960
787.00,50.959
788.00,50.961
789.00,50.945
790.00,50.874
791.00,50.895
792.00,50.892
793.00,50.879
794.00,50.964
795.00,50.857
796.00,50.873
797.00,50.894
798.00,50.865
799.00,50.836
800.00,50.829
801.00,50.824
802.00,50.806
803.00,50.878
804.00,50.767
805.00,50.816
806.00,50.790
807.00,50.734
808.00,50.774
809.00,50.764
810.00,50.727
811.00,50.725
812.00,50.800
813.00,50.713
814.00,50.680
815.00,50.782
816.00,50.766
817.00,50.713
818.00,50.664
819.00,50.564
820.00,50.598
821.00,50.661
822.00,50.680
823.00,50.632
824.00,50.580
825.00,50.625
826.00,50.684
827.00,50.640
828.00,50.547
829.00,50.536
830.00,50.557
831.00,53.056
832.00,53.096
833.00,53.038
834.00,53.018
835.00,52.964
836.00,53.041
837.00,52.972
838.00,52.987
839.00,52.949
840.00,52.930
841.00,52.910
842.00,52.896
843.00,52.875
844.00,52.853
845.00,52.803
846.00,52.805
847.00,52.805
848.00,52.799
849.00,52.740
850.00,52.717
851.00,52.791
852.00,52.666
853.00,52.655
854.00,52.649
855.00,52.569
856.00,52.571
857.00,52.537
858.00,52.513
859.00,52.513
860.00,52.482
861.00,52.488
862.00,52.441
863.00,52.458
864.00,52.463
865.00,52.437
866.00,52.422
867.00,52.438
868.00,52.429
869.00,52.396
870.00,52.402
871.00,52.390
872.00,52.361
873.00,52.327
874.00,52.354
875.00,52.304
876.00,52.304
877.00,52.323
878.00,52.310
879.00,52.293
880.00,52.288
881.00,52.231
882.00,52.253
883.00,52.244
884.00,52.190
885.00,52.172
886.00,52.177
887.00,52.159
888.00,52.152
889.00,52.123
890.00,52.108
891.00,52.073
892.00,52.050
893.00,52.020
894.00,52.033
895.00,51.986
896.00,51.969
897.00,51.944
898.00,51.938
899.00,51.922
900.00,51.939
901.00,51.933
902.00,51.930
903.00,51.905
904.00,51.878
905.00,51.843
906.00,51.833
907.00,51.828
908.00,51.799
909.00,51.711
910.00,51.868
911.00,51.747
912.00,51.751
913.00,51.682
914.00,51.677
915.00,51.636
916.00,51.623
917.00,51.610
918.00,51.579
919.00,51.593
920.00,51.523
921.00,51.529
922.00,51.532
923.00,51.498
924.00,51.494
925.00,51.453
926.00,51.432
927.00,51.487
928.00,51.407
929.00,51.403
930.00,51.380
931.00,51.356
932.00,51.354
933.00,51.345
934.00,51.323
935.00,51.273
936.00,51.262
937.00,51.258
938.00,51.241
939.00,51.258
940.00,51.221
941.00,51.209
942.00,51.306
943.00,51.162
944.00,51.139
945.00,51.116
946.00,51.123
947.00,51.118
948.00,51.056
949.00,51.026
950.00,51.035
951.00,50.987
952.00,50.969
953.00,50.951
954.00,50.928
955.00,50.884
956.00,50.884
957.00,50.823
958.00,50.848
959.00,50.800
960.00,50.792
961.00,50.777
962.00,50.776
963.00,50.740
964.00,50.733
965.00,50.705
966.00,50.725
967.00,50.730
968.00,50.700
969.00,50.723
970.00,50.692
971.00,50.711
972.00,50.678
973.00,50.691
974.00,50.721
975.00,50.694
976.00,50.693
977.00,50.686
978.00,50.708
979.00,50.674
980.00,50.708
981.00,50.675
982.00,50.631
983.00,50.686
984.00,50.661
985.00,50.688
986.00,50.636
987.00,50.646
988.00,50.738
989.00,50.632
990.00,50.623
991.00,50.608
992.00,50.611
993.00,50.580
994.00,50.564
995.00,50.559
996.00,50.543
997.00,50.542
998.00,50.519
999.00,50.532
1000.00,50.490
1001.00,50.484
1002.00,50.462
1003.00,50.451
1004.00,50.446
1005.00,50.429
1006.00,50.434
1007.00,50.411
1008.00,50.414
1009.00,50.388
1010.00,50.376
1011.00,50.374
1012.00,50.319
1013.00,50.359
1014.00,50.307
1015.00,50.311
1016.00,50.284
1017.00,50.283
1018.00,50.260
1019.00,50.227
1020.00,50.212
1021.00,50.195
1022.00,50.196
1023.00,50.137
1024.00,50.163
1025.00,50.135
1026.00,50.125
1027.00,50.124
1028.00,50.090
1029.00,50.105
1030.00,50.066
1031.00,50.070
1032.00,50.037
1033.00,50.037
1034.00,49.999
1035.00,49.978
1036.00,49.952
1037.00,49.933
1038.00,49.916
1039.00,49.882
1040.00,49.895
1041.00,49.867
1042.00,49.843
1043.00,49.818
1044.00,49.883
1045.00,49.834
1046.00,49.836
1047.00,49.835
1048.00,49.850
1049.00,49.863
1050.00,49.862
1051.00,49.895
1052.00,49.909
1053.00,49.906
1054.00,49.912
1055.00,49.932
1056.00,49.927
1057.00,49.946
1058.00,49.933
1059.00,49.924
1060.00,49.935
1061.00,49.912
1062.00,49.906
1063.00,49.904
1064.00,49.867
1065.00,49.887
1066.00,49.872
1067.00,49.837
1068.00,49.867
1069.00,49.829
1070.00,49.819
1071.00,49.807
1072.00,49.817
1073.00,49.793
1074.00,49.806
1075.00,49.774
1076.00,49.775
1077.00,49.760
1078.00,49.739
1079.00,49.752
1080.00,49.728
1081.00,49.716
1082.00,49.703
1083.00,49.694
1084.00,49.700
1085.00,49.690
1086.00,49.683
1087.00,49.679
1088.00,49.663
1089.00,49.647
1090.00,49.659
1091.00,49.634
1092.00,49.635
1093.00,49.616
1094.00,49.609
1095.00,49.597
1096.00,49.583
1097.00,49.558
1098.00,49.569
1099.00,49.565
1100.00,49.542
1101.00,49.536
1102.00,49.530
1103.00,49.520
1104.00,49.514
1105.00,49.480
1106.00,49.492
1107.00,49.475
1108.00,49.458
1109.00,49.483
1110.00,49.490
1111.00,49.447
1112.00,49.456
1113.00,49.440
1114.00,49.437
1115.00,49.428
1116.00,49.415
1117.00,49.414
1118.00,49.417
1119.00,49.392
1120.00,49.397
1121.00,49.378
1122.00,49.366
1123.00,49.367
1124.00,49.361
1125.00,49.365
1126.00,49.339
1127.00,49.320
1128.00,49.326
1129.00,49.303
1130.00,49.297
1131.00,49.298
1132.00,49.304
1133.00,49.275
1134.00,49.284
1135.00,49.266
1136.00,49.246
1137.00,49.240
1138.00,49.233
1139.00,49.246
1140.00,49.241
1141.00,49.217
1142.00,49.233
1143.00,49.236
1144.00,49.218
1145.00,49.226
1146.00,49.214
1147.00,49.207
1148.00,49.210
1149.00,49.205
1150.00,49.202
1151.00,49.214
1152.00,49.175
1153.00,49.176
1154.00,49.170
1155.00,49.177
1156.00,49.168
1157.00,49.162
1158.00,49.165
1159.00,49.167
1160.00,49.150
1161.00,49.166
1162.00,49.158
1163.00,49.135
1164.00,49.143
1165.00,49.148
1166.00,49.127
1167.00,49.132
1168.00,49.141
1169.00,49.130
1170.00,49.132
1171.00,49.097
1172.00,49.126
1173.00,49.116
1174.00,49.110
1175.00,49.123
1176.00,49.121
1177.00,49.107
1178.00,49.115
1179.00,49.125
1180.00,49.109
1181.00,49.120
1182.00,49.111
1183.00,49.101
1184.00,49.095
1185.00,49.094
1186.00,49.093
1187.00,49.099
1188.00,49.074
1189.00,49.095
1190.00,49.074
1191.00,49.073
1192.00,49.085
1193.00,49.072
1194.00,49.101
1195.00,49.063
1196.00,49.074
1197.00,49.073
1198.00,49.069
1199.00,49.054
1200.00,49.061
1201.00,49.071
1202.00,49.044
1203.00,49.061
1204.00,49.032
1205.00,49.058
1206.00,49.055
1207.00,49.059
1208.00,49.057
1209.00,49.039
1210.00,49.045
1211.00,49.049
1212.00,49.052
1213.00,49.026
1214.00,49.046
1215.00,49.025
1216.00,49.036
1217.00,49.049
1218.00,49.023
1219.00,49.050
1220.00,49.033
1221.00,49.036
1222.00,49.042
1223.00,49.048
1224.00,49.049
1225.00,49.030
1226.00,49.030
1227.00,49.024
1228.00,49.042
1229.00,49.027
1230.00,49.066
1231.00,49.059
1232.00,49.061
1233.00,49.074
1234.00,49.074
1235.00,49.068
1236.00,49.074
1237.00,49.062
1238.00,49.080
1239.00,49.092
1240.00,49.072
1241.00,49.086
1242.00,49.085
1243.00,49.094
1244.00,49.070
1245.00,49.087
1246.00,49.102
1247.00,49.099
1248.00,49.095
1249.00,49.099
1250.00,49.110
1251.00,49.095
1252.00,49.124
1253.00,49.110
1254.00,49.119
1255.00,49.134
1256.00,49.079
1257.00,49.079
1258.00,49.121
1259.00,49.117
1260.00,49.130
1261.00,49.132
1262.00,49.129
1263.00,49.131
1264.00,49.143
1265.00,49.130
1266.00,49.144
1267.00,49.145
1268.00,49.161
1269.00,49.155
1270.00,49.152
1271.00,49.165
1272.00,49.174
1273.00,49.159
1274.00,49.181
1275.00,49.179
1276.00,49.170
1277.00,49.179
1278.00,49.190
1279.00,49.180
1280.00,49.198
1281.00,49.201
1282.00,49.217
1283.00,49.209
1284.00,49.191
1285.00,49.189
1286.00,49.202
1287.00,49.186
1288.00,49.223
1289.00,49.193
1290.00,49.218
1291.00,49.226
1292.00,49.248
1293.00,49.249
1294.00,49.253
1295.00,49.247
1296.00,49.254
1297.00,49.258
1298.00,49.276
1299.00,49.275
1300.00,49.269
1301.00,49.272
1302.00,49.281
1303.00,49.294
1304.00,49.271
1305.00,49.298
1306.00,49.277
1307.00,49.302
1308.00,49.311
1309.00,49.301
1310.00,49.323
1311.00,49.311
1312.00,49.304
1313.00,49.303
1314.00,49.306
1315.00,49.326
1316.00,49.325
1317.00,49.333
1318.00,49.346
1319.00,49.334
1320.00,49.346
1321.00,49.529
1322.00,49.536
1323.00,49.501
1324.00,49.515
1325.00,49.498
1326.00,49.525
1327.00,49.519
1328.00,49.510
1329.00,49.519
1330.00,49.519
1331.00,49.519
1332.00,49.529
1333.00,49.525
1334.00,49.550
1335.00,49.565
1336.00,49.608
1337.00,49.625
1338.00,49.695
1339.00,49.724
1340.00,49.793
1341.00,49.832
1342.00,49.906
1343.00,49.962
1344.00,49.990
1345.00,50.053
1346.00,50.104
1347.00,50.132
1348.00,50.160
1349.00,50.210
1350.00,50.178
1351.00,50.203
1352.00,50.200
1353.00,50.224
1354.00,50.225
1355.00,50.183
1356.00,50.215
1357.00,50.231
1358.00,50.216
1359.00,50.215
1360.00,50.292
1361.00,50.250
1362.00,50.152
1363.00,50.366
1364.00,50.246
1365.00,50.216
1366.00,50.273
1367.00,50.219
1368.00,50.171
1369.00,50.218
1370.00,50.224
1371.00,50.125
1372.00,50.186
1373.00,50.208
1374.00,50.186
1375.00,50.179
1376.00,50.232
1377.00,50.049
1378.00,50.235
1379.00,50.195
1380.00,50.212
1381.00,50.189
1382.00,50.130
1383.00,50.184
1384.00,50.173
1385.00,50.172
1386.00,50.221
1387.00,50.140
1388.00,50.120
1389.00,50.154
1390.00,50.274
1391.00,50.175
1392.00,50.136
1393.00,50.270
1394.00,50.159
1395.00,50.178
1396.00,50.091
1397.00,50.214
1398.00,49.991
1399.00,50.189
1400.00,49.906
1401.00,50.157
1402.00,50.189
1403.00,50.184
1404.00,50.161
1405.00,50.212
1406.00,50.196
1407.00,50.239
1408.00,50.224
1409.00,50.193
1410.00,50.236
1411.00,50.197
1412.00,50.273
1413.00,50.258
1414.00,50.196
1415.00,50.258
1416.00,50.275
1417.00,50.296
1418.00,50.280
1419.00,50.269
1420.00,50.319
1421.00,50.335
1422.00,50.325
1423.00,50.339
1424.00,50.355
1425.00,50.348
1426.00,50.372
1427.00,50.385
1428.00,50.410
1429.00,50.422
1430.00,50.425
1431.00,50.438
1432.00,50.449
1433.00,50.459
1434.00,50.469
1435.00,50.516
1436.00,50.512
1437.00,50.509
1438.00,50.528
1439.00,50.565
1440.00,50.583
1441.00,50.575
1442.00,50.596
1443.00,50.629
1444.00,50.648
1445.00,50.619
1446.00,50.643
1447.00,50.669
1448.00,50.707
1449.00,50.721
1450.00,50.700
1451.00,50.726
1452.00,50.730
1453.00,50.774
1454.00,50.773
1455.00,50.768
1456.00,50.796
1457.00,50.815
1458.00,50.804
1459.00,50.840
1460.00,50.835
1461.00,50.857
1462.00,50.867
1463.00,50.882
1464.00,50.897
1465.00,50.908
1466.00,50.907
1467.00,50.945
1468.00,50.988
1469.00,50.961
1470.00,50.981
1471.00,51.002
1472.00,51.012
1473.00,51.013
1474.00,51.042
1475.00,51.051
1476.00,51.065
1477.00,51.056
1478.00,51.096
1479.00,51.107
1480.00,51.093
1481.00,51.108
1482.00,51.143
1483.00,51.150
1484.00,51.169
1485.00,51.173
1486.00,51.177
1487.00,51.200
1488.00,51.208
1489.00,51.226
1490.00,51.240
1491.00,51.220
1492.00,51.250
1493.00,51.244
1494.00,51.267
1495.00,51.283
1496.00,51.268
1497.00,51.272
1498.00,51.286
1499.00,51.285
1500.00,51.318
1501.00, 
1502.00, 
1503.00, 
1504.00, 
1505.00, 
1506.00, 
1507.00, 
1508.00, 
1509.00, 
1510.00, 
1511.00, 
1512.00, 
1513.00, 
1514.00, 
1515.00, 
1516.00, 
1517.00, 
1518.00, 
1519.00, 
1520.00, 
1521.00, 
1522.00, 
1523.00, 
1524.00, 
1525.00, 
1526.00, 
1527.00, 
1528.00, 
1529.00, 
1530.00, 
1531.00, 
1532.00, 
1533.00, 
1534.00, 
1535.00, 
1536.00, 
1537.00, 
1538.00, 
1539.00, 
1540.00, 
1541.00, 
1542.00, 
1543.00, 
1544.00, 
1545.00, 
1546.00, 
1547.00, 
1548.00, 
1549.00, 
1550.00, 
1551.00, 
1552.00, 
1553.00, 
1554.00, 
1555.00, 
1556.00, 
1557.00, 
1558.00, 
1559.00, 
1560.00, 
1561.00, 
1562.00, 
1563.00, 
1564.00, 
1565.00, 
1566.00, 
1567.00, 
1568.00, 
1569.00, 
1570.00, 
1571.00, 
1572.00, 
1573.00, 
1574.00, 
1575.00, 
1576.00, 
1577.00, 
1578.00, 
1579.00, 
1580.00, 
1581.00, 
1582.00, 
1583.00, 
1584.00, 
1585.00, 
1586.00, 
1587.00, 
1588.00, 
1589.00, 
1590.00, 
1591.00, 
1592.00, 
1593.00, 
1594.00, 
1595.00, 
1596.00, 
1597.00, 
1598.00, 
1599.00, 
1600.00, 
1601.00, 
1602.00, 
1603.00, 
1604.00, 
1605.00, 
1606.00, 
1607.00, 
1608.00, 
1609.00, 
1610.00, 
1611.00, 
1612.00, 
1613.00, 
1614.00, 
1615.00, 
1616.00, 
1617.00, 
1618.00, 
1619.00, 
1620.00, 
1621.00, 
1622.00, 
1623.00, 
1624.00, 
1625.00, 
1626.00, 
1627.00, 
1628.00, 
1629.00, 
1630.00, 
1631.00, 
1632.00, 
1633.00, 
1634.00, 
1635.00, 
1636.00, 
1637.00, 
1638.00, 
1639.00, 
1640.00, 
1641.00, 
1642.00, 
1643.00, 
1644.00, 
1645.00, 
1646.00, 
1647.00, 
1648.00, 
1649.00, 
1650.00, 
1651.00, 
1652.00, 
1653.00, 
1654.00, 
1655.00, 
1656.00, 
1657.00, 
1658.00, 
1659.00, 
1660.00, 
1661.00, 
1662.00, 
1663.00, 
1664.00, 
1665.00, 
1666.00, 
1667.00, 
1668.00, 
1669.00, 
1670.00, 
1671.00, 
1672.00, 
1673.00, 
1674.00, 
1675.00, 
1676.00, 
1677.00, 
1678.00, 
1679.00, 
1680.00, 
1681.00, 
1682.00, 
1683.00, 
1684.00, 
1685.00, 
1686.00, 
1687.00, 
1688.00, 
1689.00, 
1690.00, 
1691.00, 
1692.00, 
1693.00, 
1694.00, 
1695.00, 
1696.00, 
1697.00, 
1698.00, 
1699.00, 
1700.00, 
1701.00, 
1702.00, 
1703.00, 
1704.00, 
1705.00, 
1706.00, 
1707.00, 
1708.00, 
1709.00, 
1710.00, 
1711.00, 
1712.00, 
1713.00, 
1714.00, 
1715.00, 
1716.00, 
1717.00, 
1718.00, 
1719.00, 
1720.00, 
1721.00, 
1722.00, 
1723.00, 
1724.00, 
1725.00, 
1726.00, 
1727.00, 
1728.00, 
1729.00, 
1730.00, 
1731.00, 
1732.00, 
1733.00, 
1734.00, 
1735.00, 
1736.00, 
1737.00, 
1738.00, 
1739.00, 
1740.00, 
1741.00, 
1742.00, 
1743.00, 
1744.00, 
1745.00, 
1746.00, 
1747.00, 
1748.00, 
1749.00, 
1750.00, 
1751.00, 
1752.00, 
1753.00, 
1754.00, 
1755.00, 
1756.00, 
1757.00, 
1758.00, 
1759.00, 
1760.00, 
1761.00, 
1762.00, 
1763.00, 
1764.00, 
1765.00, 
1766.00, 
1767.00, 
1768.00, 
1769.00, 
1770.00, 
1771.00, 
1772.00, 
1773.00, 
1774.00, 
1775.00, 
1776.00, 
1777.00, 
1778.00, 
1779.00, 
1780.00, 
1781.00, 
1782.00, 
1783.00, 
1784.00, 
1785.00, 
1786.00, 
1787.00, 
1788.00, 
1789.00, 
1790.00, 
1791.00, 
1792.00, 
1793.00, 
1794.00, 
1795.00, 
1796.00, 
1797.00, 
1798.00, 
1799.00, 
1800.00, 
1801.00, 
1802.00, 
1803.00, 
1804.00, 
1805.00, 
1806.00, 
1807.00, 
1808.00, 
1809.00, 
1810.00, 
1811.00, 
1812.00, 
1813.00, 
1814.00, 
1815.00, 
1816.00, 
1817.00, 
1818.00, 
1819.00, 
1820.00, 
1821.00, 
1822.00, 
1823.00, 
1824.00, 
1825.00, 
1826.00, 
1827.00, 
1828.00, 
1829.00, 
1830.00, 
1831.00, 
1832.00, 
1833.00, 
1834.00, 
1835.00, 
1836.00, 
1837.00, 
1838.00, 
1839.00, 
1840.00, 
1841.00, 
1842.00, 
1843.00, 
1844.00, 
1845.00, 
1846.00, 
1847.00, 
1848.00, 
1849.00, 
1850.00, 
1851.00, 
1852.00, 
1853.00, 
1854.00, 
1855.00, 
1856.00, 
1857.00, 
1858.00, 
1859.00, 
1860.00, 
1861.00, 
1862.00, 
1863.00, 
1864.00, 
1865.00, 
1866.00, 
1867.00, 
1868.00, 
1869.00, 
1870.00, 
1871.00, 
1872.00, 
1873.00, 
1874.00, 
1875.00, 
1876.00, 
1877.00, 
1878.00, 
1879.00, 
1880.00, 
1881.00, 
1882.00, 
1883.00, 
1884.00, 
1885.00, 
1886.00, 
1887.00, 
1888.00, 
1889.00, 
1890.00, 
1891.00, 
1892.00, 
1893.00, 
1894.00, 
1895.00, 
1896.00, 
1897.00, 
1898.00, 
1899.00, 
1900.00, 
1901.00, 
1902.00, 
1903.00, 
1904.00, 
1905.00, 
1906.00, 
1907.00, 
1908.00, 
1909.00, 
1910.00, 
1911.00, 
1912.00, 
1913.00, 
1914.00, 
1915.00, 
1916.00, 
1917.00, 
1918.00, 
1919.00, 
1920.00, 
1921.00, 
1922.00, 
1923.00, 
1924.00, 
1925.00, 
1926.00, 
1927.00, 
1928.00, 
1929.00, 
1930.00, 
1931.00, 
1932.00, 
1933.00, 
1934.00, 
1935.00, 
1936.00, 
1937.00, 
1938.00, 
1939.00, 
1940.00, 
1941.00, 
1942.00, 
1943.00, 
1944.00, 
1945.00, 
1946.00, 
1947.00, 
1948.00, 
1949.00, 
1950.00, 
1951.00, 
1952.00, 
1953.00, 
1954.00, 
1955.00, 
1956.00, 
1957.00, 
1958.00, 
1959.00, 
1960.00, 
1961.00, 
1962.00, 
1963.00, 
1964.00, 
1965.00, 
1966.00, 
1967.00, 
1968.00, 
1969.00, 
1970.00, 
1971.00, 
1972.00, 
1973.00, 
1974.00, 
1975.00, 
1976.00, 
1977.00, 
1978.00, 
1979.00, 
1980.00, 
1981.00, 
1982.00, 
1983.00, 
1984.00, 
1985.00, 
1986.00, 
1987.00, 
1988.00, 
1989.00, 
1990.00, 
1991.00, 
1992.00, 
1993.00, 
1994.00, 
1995.00, 
1996.00, 
1997.00, 
1998.00, 
1999.00, 
2000.00, 
2001.00, 
2002.00, 
2003.00, 
2004.00, 
2005.00, 
2006.00, 
2007.00, 
2008.00, 
2009.00, 
2010.00, 
2011.00, 
2012.00, 
2013.00, 
2014.00, 
2015.00, 
2016.00, 
2017.00, 
2018.00, 
2019.00, 
2020.00, 
2021.00, 
2022.00, 
2023.00, 
2024.00, 
2025.00, 
2026.00, 
2027.00, 
2028.00, 
2029.00, 
2030.00, 
2031.00, 
2032.00, 
2033.00, 
2034.00, 
2035.00, 
2036.00, 
2037.00, 
2038.00, 
2039.00, 
2040.00, 
2041.00, 
2042.00, 
2043.00, 
2044.00, 
2045.00, 
2046.00, 
2047.00, 
2048.00, 
2049.00, 
2050.00, 
2051.00, 
2052.00, 
2053.00, 
2054.00, 
2055.00, 
2056.00, 
2057.00, 
2058.00, 
2059.00, 
2060.00, 
2061.00, 
2062.00, 
2063.00, 
2064.00, 
2065.00, 
2066.00, 
2067.00, 
2068.00, 
2069.00, 
2070.00, 
2071.00, 
2072.00, 
2073.00, 
2074.00, 
2075.00, 
2076.00, 
2077.00, 
2078.00, 
2079.00, 
2080.00, 
2081.00, 
2082.00, 
2083.00, 
2084.00, 
2085.00, 
2086.00, 
2087.00, 
2088.00, 
2089.00, 
2090.00, 
2091.00, 
2092.00, 
2093.00, 
2094.00, 
2095.00, 
2096.00, 
2097.00, 
2098.00, 
2099.00, 
2100.00, 
2101.00, 
2102.00, 
2103.00, 
2104.00, 
2105.00, 
2106.00, 
2107.00, 
2108.00, 
2109.00, 
2110.00, 
2111.00, 
2112.00, 
2113.00, 
2114.00, 
2115.00, 
2116.00, 
2117.00, 
2118.00, 
2119.00, 
2120.00, 
2121.00, 
2122.00, 
2123.00, 
2124.00, 
2125.00, 
2126.00, 
2127.00, 
2128.00, 
2129.00, 
2130.00, 
2131.00, 
2132.00, 
2133.00, 
2134.00, 
2135.00, 
2136.00, 
2137.00, 
2138.00, 
2139.00, 
2140.00, 
2141.00, 
2142.00, 
2143.00, 
2144.00, 
2145.00, 
2146.00, 
2147.00, 
2148.00, 
2149.00, 
2150.00, 
2151.00, 
2152.00, 
2153.00, 
2154.00, 
2155.00, 
2156.00, 
2157.00, 
2158.00, 
2159.00, 
2160.00, 
2161.00, 
2162.00, 
2163.00, 
2164.00, 
2165.00, 
2166.00, 
2167.00, 
2168.00, 
2169.00, 
2170.00, 
2171.00, 
2172.00, 
2173.00, 
2174.00, 
2175.00, 
2176.00, 
2177.00, 
2178.00, 
2179.00, 
2180.00, 
2181.00, 
2182.00, 
2183.00, 
2184.00, 
2185.00, 
2186.00, 
2187.00, 
2188.00, 
2189.00, 
2190.00, 
2191.00, 
2192.00, 
2193.00, 
2194.00, 
2195.00, 
2196.00, 
2197.00, 
2198.00, 
2199.00, 
2200.00, 
2201.00, 
2202.00, 
2203.00, 
2204.00, 
2205.00, 
2206.00, 
2207.00, 
2208.00, 
2209.00, 
2210.00, 
2211.00, 
2212.00, 
2213.00, 
2214.00, 
2215.00, 
2216.00, 
2217.00, 
2218.00, 
2219.00, 
2220.00, 
2221.00, 
2222.00, 
2223.00, 
2224.00, 
2225.00, 
2226.00, 
2227.00, 
2228.00, 
2229.00, 
2230.00, 
2231.00, 
2232.00, 
2233.00, 
2234.00, 
2235.00, 
2236.00, 
2237.00, 
2238.00, 
2239.00, 
2240.00, 
2241.00, 
2242.00, 
2243.00, 
2244.00, 
2245.00, 
2246.00, 
2247.00, 
2248.00, 
2249.00, 
2250.00, 
2251.00, 
2252.00, 
2253.00, 
2254.00, 
2255.00, 
2256.00, 
2257.00, 
2258.00, 
2259.00, 
2260.00, 
2261.00, 
2262.00, 
2263.00, 
2264.00, 
2265.00, 
2266.00, 
2267.00, 
2268.00, 
2269.00, 
2270.00, 
2271.00, 
2272.00, 
2273.00, 
2274.00, 
2275.00, 
2276.00, 
2277.00, 
2278.00, 
2279.00, 
2280.00, 
2281.00, 
2282.00, 
2283.00, 
2284.00, 
2285.00, 
2286.00, 
2287.00, 
2288.00, 
2289.00, 
2290.00, 
2291.00, 
2292.00, 
2293.00, 
2294.00, 
2295.00, 
2296.00, 
2297.00, 
2298.00, 
2299.00, 
2300.00, 
2301.00, 
2302.00, 
2303.00, 
2304.00, 
2305.00, 
2306.00, 
2307.00, 
2308.00, 
2309.00, 
2310.00, 
2311.00, 
2312.00, 
2313.00, 
2314.00, 
2315.00, 
2316.00, 
2317.00, 
2318.00, 
2319.00, 
2320.00, 
2321.00, 
2322.00, 
2323.00, 
2324.00, 
2325.00, 
2326.00, 
2327.00, 
2328.00, 
2329.00, 
2330.00, 
2331.00, 
2332.00, 
2333.00, 
2334.00, 
2335.00, 
2336.00, 
2337.00, 
2338.00, 
2339.00, 
2340.00, 
2341.00, 
2342.00, 
2343.00, 
2344.00, 
2345.00, 
2346.00, 
2347.00, 
2348.00, 
2349.00, 
2350.00, 
2351.00, 
2352.00, 
2353.00, 
2354.00, 
2355.00, 
2356.00, 
2357.00, 
2358.00, 
2359.00, 
2360.00, 
2361.00, 
2362.00, 
2363.00, 
2364.00, 
2365.00, 
2366.00, 
2367.00, 
2368.00, 
2369.00, 
2370.00, 
2371.00, 
2372.00, 
2373.00, 
2374.00, 
2375.00, 
2376.00, 
2377.00, 
2378.00, 
2379.00, 
2380.00, 
2381.00, 
2382.00, 
2383.00, 
2384.00, 
2385.00, 
2386.00, 
2387.00, 
2388.00, 
2389.00, 
2390.00, 
2391.00, 
2392.00, 
2393.00, 
2394.00, 
2395.00, 
2396.00, 
2397.00, 
2398.00, 
2399.00, 
2400.00, 
2401.00, 
2402.00, 
2403.00, 
2404.00, 
2405.00, 
2406.00, 
2407.00, 
2408.00, 
2409.00, 
2410.00, 
2411.00, 
2412.00, 
2413.00, 
2414.00, 
2415.00, 
2416.00, 
2417.00, 
2418.00, 
2419.00, 
2420.00, 
2421.00, 
2422.00, 
2423.00, 
2424.00, 
2425.00, 
2426.00, 
2427.00, 
2428.00, 
2429.00, 
2430.00, 
2431.00, 
2432.00, 
2433.00, 
2434.00, 
2435.00, 
2436.00, 
2437.00, 
2438.00, 
2439.00, 
2440.00, 
2441.00, 
2442.00, 
2443.00, 
2444.00, 
2445.00, 
2446.00, 
2447.00, 
2448.00, 
2449.00, 
2450.00, 
2451.00, 
2452.00, 
2453.00, 
2454.00, 
2455.00, 
2456.00, 
2457.00, 
2458.00, 
2459.00, 
2460.00, 
2461.00, 
2462.00, 
2463.00, 
2464.00, 
2465.00, 
2466.00, 
2467.00, 
2468.00, 
2469.00, 
2470.00, 
2471.00, 
2472.00, 
2473.00, 
2474.00, 
2475.00, 
2476.00, 
2477.00, 
2478.00, 
2479.00, 
2480.00, 
2481.00, 
2482.00, 
2483.00, 
2484.00, 
2485.00, 
2486.00, 
2487.00, 
2488.00, 
2489.00, 
2490.00, 
2491.00, 
2492.00, 
2493.00, 
2494.00, 
2495.00, 
2496.00, 
2497.00, 
2498.00, 
2499.00, 
2500.00, 
2501.00, 
2502.00, 
2503.00, 
2504.00, 
2505.00, 
2506.00, 
2507.00, 
2508.00, 
2509.00, 
2510.00, 
2511.00, 
2512.00, 
2513.00, 
2514.00, 
2515.00, 
2516.00, 
2517.00, 
2518.00, 
2519.00, 
2520.00, 
2521.00, 
2522.00, 
2523.00, 
2524.00, 
2525.00, 
2526.00, 
2527.00, 
2528.00, 
2529.00, 
2530.00, 
2531.00, 
2532.00, 
2533.00, 
2534.00, 
2535.00, 
2536.00, 
2537.00, 
2538.00, 
2539.00, 
2540.00, 
2541.00, 
2542.00, 
2543.00, 
2544.00, 
2545.00, 
2546.00, 
2547.00, 
2548.00, 
2549.00, 
2550.00, 
2551.00, 
2552.00, 
2553.00, 
2554.00, 
2555.00, 
2556.00, 
2557.00, 
2558.00, 
2559.00, 
2560.00, 
2561.00, 
2562.00, 
2563.00, 
2564.00, 
2565.00, 
2566.00, 
2567.00, 
2568.00, 
2569.00, 
2570.00, 
2571.00, 
2572.00, 
2573.00, 
2574.00, 
2575.00, 
2576.00, 
2577.00, 
2578.00, 
2579.00, 
2580.00, 
2581.00, 
2582.00, 
2583.00, 
2584.00, 
2585.00, 
2586.00, 
2587.00, 
2588.00, 
2589.00, 
2590.00, 
2591.00, 
2592.00, 
2593.00, 
2594.00, 
2595.00, 
2596.00, 
2597.00, 
2598.00, 
2599.00, 
2600.00, 
