"2cP2 - RawData"
"Wavelength nm.","T%"
200.00,0.003
201.00,0.001
202.00,0.001
203.00,0.003
204.00,0.000
205.00,0.004
206.00,0.000
207.00,0.005
208.00,-0.001
209.00,0.004
210.00,0.001
211.00,-0.000
212.00,0.002
213.00,-0.001
214.00,0.003
215.00,0.001
216.00,0.002
217.00,0.003
218.00,0.001
219.00,0.000
220.00,-0.001
221.00,0.001
222.00,0.002
223.00,-0.000
224.00,0.001
225.00,-0.002
226.00,0.001
227.00,0.001
228.00,-0.000
229.00,0.002
230.00,0.000
231.00,-0.000
232.00,0.001
233.00,0.000
234.00,-0.001
235.00,-0.001
236.00,0.002
237.00,-0.000
238.00,-0.001
239.00,-0.001
240.00,0.002
241.00,0.002
242.00,-0.000
243.00,0.001
244.00,0.001
245.00,-0.001
246.00,-0.001
247.00,-0.000
248.00,-0.001
249.00,0.002
250.00,0.002
251.00,0.001
252.00,0.001
253.00,0.002
254.00,-0.000
255.00,0.000
256.00,-0.000
257.00,-0.001
258.00,0.000
259.00,0.001
260.00,0.001
261.00,0.000
262.00,-0.000
263.00,-0.001
264.00,0.001
265.00,0.000
266.00,-0.001
267.00,-0.000
268.00,0.000
269.00,0.000
270.00,0.002
271.00,0.002
272.00,-0.000
273.00,0.001
274.00,-0.002
275.00,-0.000
276.00,0.001
277.00,-0.000
278.00,-0.001
279.00,0.001
280.00,-0.000
281.00,-0.001
282.00,0.001
283.00,0.000
284.00,0.001
285.00,0.001
286.00,0.000
287.00,0.000
288.00,-0.000
289.00,0.000
290.00,-0.000
291.00,-0.000
292.00,0.001
293.00,0.001
294.00,-0.002
295.00,0.000
296.00,0.001
297.00,-0.000
298.00,0.001
299.00,0.003
300.00,0.005
301.00,0.005
302.00,0.006
303.00,0.010
304.00,0.016
305.00,0.025
306.00,0.040
307.00,0.063
308.00,0.099
309.00,0.150
310.00,0.213
311.00,0.290
312.00,0.398
313.00,0.527
314.00,0.706
315.00,0.927
316.00,1.183
317.00,1.497
318.00,1.835
319.00,2.270
320.00,2.769
321.00,3.297
322.00,3.936
323.00,4.643
324.00,5.390
325.00,6.132
326.00,6.947
327.00,7.841
328.00,8.807
329.00,9.746
330.00,10.713
331.00,11.609
332.00,12.794
333.00,13.889
334.00,14.953
335.00,15.993
336.00,17.119
337.00,18.151
338.00,19.211
339.00,20.175
340.00,21.187
341.00,22.145
342.00,23.058
343.00,23.994
344.00,24.901
345.00,25.651
346.00,26.435
347.00,27.200
348.00,27.893
349.00,28.571
350.00,29.197
351.00,29.825
352.00,30.372
353.00,30.937
354.00,31.442
355.00,31.961
356.00,32.370
357.00,32.847
358.00,33.269
359.00,33.579
360.00,33.965
361.00,34.241
362.00,34.535
363.00,34.828
364.00,35.117
365.00,35.387
366.00,35.561
367.00,35.721
368.00,35.869
369.00,36.110
370.00,36.222
371.00,36.232
372.00,36.411
373.00,36.383
374.00,36.437
375.00,36.433
376.00,36.352
377.00,36.417
378.00,36.384
379.00,36.416
380.00,36.324
381.00,36.371
382.00,36.325
383.00,36.518
384.00,36.648
385.00,36.716
386.00,36.827
387.00,36.949
388.00,36.997
389.00,37.089
390.00,37.185
391.00,37.259
392.00,37.284
393.00,37.336
394.00,37.493
395.00,37.467
396.00,37.504
397.00,37.471
398.00,37.565
399.00,37.652
400.00,37.680
401.00,37.680
402.00,37.675
403.00,37.718
404.00,37.764
405.00,37.740
406.00,37.720
407.00,37.706
408.00,37.661
409.00,37.603
410.00,37.607
411.00,37.599
412.00,37.479
413.00,37.505
414.00,37.479
415.00,37.515
416.00,37.524
417.00,37.541
418.00,37.515
419.00,37.538
420.00,37.576
421.00,37.712
422.00,37.682
423.00,37.772
424.00,37.806
425.00,37.742
426.00,37.783
427.00,37.807
428.00,37.832
429.00,37.804
430.00,37.852
431.00,37.909
432.00,37.943
433.00,37.986
434.00,37.985
435.00,38.034
436.00,38.091
437.00,38.150
438.00,38.186
439.00,38.227
440.00,38.282
441.00,38.311
442.00,38.378
443.00,38.397
444.00,38.475
445.00,38.538
446.00,38.631
447.00,38.690
448.00,38.736
449.00,38.829
450.00,38.915
451.00,38.937
452.00,39.027
453.00,39.121
454.00,39.166
455.00,39.234
456.00,39.338
457.00,39.393
458.00,39.411
459.00,39.514
460.00,39.649
461.00,39.680
462.00,39.754
463.00,39.894
464.00,39.922
465.00,40.000
466.00,40.041
467.00,40.216
468.00,40.223
469.00,40.302
470.00,40.336
471.00,40.314
472.00,40.431
473.00,40.444
474.00,40.512
475.00,40.586
476.00,40.654
477.00,40.709
478.00,40.812
479.00,40.925
480.00,41.019
481.00,41.123
482.00,41.206
483.00,41.317
484.00,41.377
485.00,41.513
486.00,41.555
487.00,41.763
488.00,41.819
489.00,41.968
490.00,42.018
491.00,42.084
492.00,42.248
493.00,42.279
494.00,42.288
495.00,42.425
496.00,42.476
497.00,42.521
498.00,42.635
499.00,42.736
500.00,42.815
501.00,42.816
502.00,42.975
503.00,43.035
504.00,43.068
505.00,43.197
506.00,43.237
507.00,43.264
508.00,43.345
509.00,43.436
510.00,43.546
511.00,43.515
512.00,43.616
513.00,43.587
514.00,43.854
515.00,43.942
516.00,43.973
517.00,44.030
518.00,44.133
519.00,44.184
520.00,44.233
521.00,44.288
522.00,44.319
523.00,44.404
524.00,44.396
525.00,44.503
526.00,44.559
527.00,44.618
528.00,44.618
529.00,44.707
530.00,44.759
531.00,44.866
532.00,44.951
533.00,44.999
534.00,45.008
535.00,45.129
536.00,45.147
537.00,45.138
538.00,45.218
539.00,45.178
540.00,45.264
541.00,45.494
542.00,45.439
543.00,45.528
544.00,45.612
545.00,45.616
546.00,45.627
547.00,45.762
548.00,45.807
549.00,45.850
550.00,45.898
551.00,46.012
552.00,46.002
553.00,46.020
554.00,46.120
555.00,46.167
556.00,46.167
557.00,46.207
558.00,46.262
559.00,46.249
560.00,46.348
561.00,46.362
562.00,46.393
563.00,46.380
564.00,46.461
565.00,46.485
566.00,46.417
567.00,46.477
568.00,46.447
569.00,46.364
570.00,46.517
571.00,46.526
572.00,46.388
573.00,46.553
574.00,46.719
575.00,46.668
576.00,46.663
577.00,46.743
578.00,46.767
579.00,46.826
580.00,46.912
581.00,46.937
582.00,47.050
583.00,47.090
584.00,47.160
585.00,47.175
586.00,47.131
587.00,47.202
588.00,47.357
589.00,47.372
590.00,47.351
591.00,47.393
592.00,47.408
593.00,47.417
594.00,47.500
595.00,47.513
596.00,47.503
597.00,47.558
598.00,47.619
599.00,47.592
600.00,47.676
601.00,47.749
602.00,47.709
603.00,47.722
604.00,47.752
605.00,47.787
606.00,47.836
607.00,47.796
608.00,47.912
609.00,47.804
610.00,47.828
611.00,47.884
612.00,47.786
613.00,47.715
614.00,47.858
615.00,47.955
616.00,48.004
617.00,48.036
618.00,48.098
619.00,48.127
620.00,48.025
621.00,48.109
622.00,48.116
623.00,48.067
624.00,48.168
625.00,48.228
626.00,48.152
627.00,48.193
628.00,48.144
629.00,48.264
630.00,48.299
631.00,48.305
632.00,48.368
633.00,48.379
634.00,48.481
635.00,48.465
636.00,48.478
637.00,48.571
638.00,48.617
639.00,48.633
640.00,48.609
641.00,48.627
642.00,48.669
643.00,48.661
644.00,48.728
645.00,48.749
646.00,48.777
647.00,48.809
648.00,48.769
649.00,48.904
650.00,48.858
651.00,48.910
652.00,48.997
653.00,48.968
654.00,48.953
655.00,48.932
656.00,49.110
657.00,49.197
658.00,49.191
659.00,49.107
660.00,49.123
661.00,49.194
662.00,49.220
663.00,49.292
664.00,49.375
665.00,49.337
666.00,49.295
667.00,49.446
668.00,49.476
669.00,49.500
670.00,49.496
671.00,49.620
672.00,49.498
673.00,49.654
674.00,49.626
675.00,49.576
676.00,49.725
677.00,49.689
678.00,49.622
679.00,49.770
680.00,49.788
681.00,49.762
682.00,49.743
683.00,49.849
684.00,49.890
685.00,49.867
686.00,49.790
687.00,49.926
688.00,49.961
689.00,49.933
690.00,49.990
691.00,50.022
692.00,49.927
693.00,50.028
694.00,49.907
695.00,50.031
696.00,50.098
697.00,50.049
698.00,50.062
699.00,50.216
700.00,50.393
701.00,50.156
702.00,50.269
703.00,50.412
704.00,50.312
705.00,50.163
706.00,50.347
707.00,50.495
708.00,50.179
709.00,50.339
710.00,50.501
711.00,50.258
712.00,50.151
713.00,50.289
714.00,50.285
715.00,50.240
716.00,50.357
717.00,50.267
718.00,50.323
719.00,50.204
720.00,50.269
721.00,54.690
722.00,54.624
723.00,54.691
724.00,54.575
725.00,54.477
726.00,54.468
727.00,54.452
728.00,54.389
729.00,54.364
730.00,54.329
731.00,54.311
732.00,54.251
733.00,54.332
734.00,54.292
735.00,54.168
736.00,54.232
737.00,54.113
738.00,54.210
739.00,54.208
740.00,54.210
741.00,54.114
742.00,54.147
743.00,54.166
744.00,54.042
745.00,53.910
746.00,53.897
747.00,53.837
748.00,53.833
749.00,53.718
750.00,53.715
751.00,53.603
752.00,53.631
753.00,53.623
754.00,53.636
755.00,53.566
756.00,53.588
757.00,53.572
758.00,53.552
759.00,53.443
760.00,53.425
761.00,53.378
762.00,53.408
763.00,53.342
764.00,53.313
765.00,53.308
766.00,53.334
767.00,53.310
768.00,53.301
769.00,53.186
770.00,53.236
771.00,53.171
772.00,53.161
773.00,53.200
774.00,53.211
775.00,53.141
776.00,53.154
777.00,53.130
778.00,53.018
779.00,53.033
780.00,52.999
781.00,52.991
782.00,52.936
783.00,52.842
784.00,52.870
785.00,52.833
786.00,52.875
787.00,52.853
788.00,52.797
789.00,52.798
790.00,52.702
791.00,52.730
792.00,52.651
793.00,52.579
794.00,52.725
795.00,52.556
796.00,52.542
797.00,52.498
798.00,52.436
799.00,52.448
800.00,52.366
801.00,52.328
802.00,52.341
803.00,52.330
804.00,52.239
805.00,52.251
806.00,52.263
807.00,52.189
808.00,52.157
809.00,52.132
810.00,52.139
811.00,52.039
812.00,52.067
813.00,52.019
814.00,51.966
815.00,52.003
816.00,51.994
817.00,51.921
818.00,51.834
819.00,51.814
820.00,51.728
821.00,51.811
822.00,51.789
823.00,51.704
824.00,51.725
825.00,51.712
826.00,51.789
827.00,51.722
828.00,51.695
829.00,51.596
830.00,51.548
831.00,54.156
832.00,54.134
833.00,54.089
834.00,54.079
835.00,53.990
836.00,54.042
837.00,53.990
838.00,53.948
839.00,53.938
840.00,53.899
841.00,53.898
842.00,53.828
843.00,53.834
844.00,53.798
845.00,53.742
846.00,53.757
847.00,53.719
848.00,53.686
849.00,53.597
850.00,53.567
851.00,53.540
852.00,53.522
853.00,53.483
854.00,53.444
855.00,53.383
856.00,53.394
857.00,53.341
858.00,53.317
859.00,53.255
860.00,53.236
861.00,53.254
862.00,53.181
863.00,53.190
864.00,53.149
865.00,53.158
866.00,53.114
867.00,53.135
868.00,53.129
869.00,53.083
870.00,53.111
871.00,53.068
872.00,53.064
873.00,53.017
874.00,53.047
875.00,52.967
876.00,52.977
877.00,52.956
878.00,52.932
879.00,52.902
880.00,52.914
881.00,52.830
882.00,52.868
883.00,52.853
884.00,52.791
885.00,52.777
886.00,52.770
887.00,52.750
888.00,52.720
889.00,52.690
890.00,52.659
891.00,52.638
892.00,52.602
893.00,52.582
894.00,52.561
895.00,52.522
896.00,52.502
897.00,52.458
898.00,52.473
899.00,52.447
900.00,52.458
901.00,52.432
902.00,52.431
903.00,52.398
904.00,52.380
905.00,52.360
906.00,52.313
907.00,52.291
908.00,52.265
909.00,52.236
910.00,52.215
911.00,52.223
912.00,52.225
913.00,52.151
914.00,52.151
915.00,52.102
916.00,52.085
917.00,52.068
918.00,52.037
919.00,52.014
920.00,51.966
921.00,51.977
922.00,51.977
923.00,51.946
924.00,51.933
925.00,51.904
926.00,51.915
927.00,51.841
928.00,51.834
929.00,51.812
930.00,51.768
931.00,51.765
932.00,51.770
933.00,51.751
934.00,51.727
935.00,51.687
936.00,51.679
937.00,51.675
938.00,51.636
939.00,51.633
940.00,51.589
941.00,51.590
942.00,51.553
943.00,51.540
944.00,51.507
945.00,51.487
946.00,51.474
947.00,51.490
948.00,51.437
949.00,51.400
950.00,51.408
951.00,51.372
952.00,51.351
953.00,51.312
954.00,51.290
955.00,51.254
956.00,51.259
957.00,51.199
958.00,51.223
959.00,51.167
960.00,51.150
961.00,51.141
962.00,51.144
963.00,51.089
964.00,51.076
965.00,51.056
966.00,51.058
967.00,51.059
968.00,51.015
969.00,51.055
970.00,51.026
971.00,51.027
972.00,50.998
973.00,51.011
974.00,51.052
975.00,51.024
976.00,51.031
977.00,51.010
978.00,51.049
979.00,50.999
980.00,51.038
981.00,51.030
982.00,50.994
983.00,51.024
984.00,50.985
985.00,51.006
986.00,50.970
987.00,50.974
988.00,50.961
989.00,50.932
990.00,50.922
991.00,50.911
992.00,50.925
993.00,50.889
994.00,50.882
995.00,50.864
996.00,50.848
997.00,50.840
998.00,50.802
999.00,50.832
1000.00,50.777
1001.00,50.771
1002.00,50.778
1003.00,50.760
1004.00,50.745
1005.00,50.720
1006.00,50.715
1007.00,50.691
1008.00,50.705
1009.00,50.671
1010.00,50.670
1011.00,50.655
1012.00,50.622
1013.00,50.641
1014.00,50.592
1015.00,50.599
1016.00,50.578
1017.00,50.568
1018.00,50.549
1019.00,50.520
1020.00,50.499
1021.00,50.492
1022.00,50.503
1023.00,50.435
1024.00,50.462
1025.00,50.430
1026.00,50.408
1027.00,50.405
1028.00,50.382
1029.00,50.376
1030.00,50.328
1031.00,50.327
1032.00,50.302
1033.00,50.299
1034.00,50.243
1035.00,50.235
1036.00,50.214
1037.00,50.201
1038.00,50.189
1039.00,50.150
1040.00,50.161
1041.00,50.126
1042.00,50.098
1043.00,50.073
1044.00,50.134
1045.00,50.078
1046.00,50.085
1047.00,50.085
1048.00,50.101
1049.00,50.120
1050.00,50.124
1051.00,50.162
1052.00,50.169
1053.00,50.159
1054.00,50.180
1055.00,50.191
1056.00,50.184
1057.00,50.205
1058.00,50.182
1059.00,50.169
1060.00,50.186
1061.00,50.166
1062.00,50.159
1063.00,50.159
1064.00,50.133
1065.00,50.142
1066.00,50.140
1067.00,50.109
1068.00,50.129
1069.00,50.090
1070.00,50.078
1071.00,50.073
1072.00,50.073
1073.00,50.042
1074.00,50.041
1075.00,50.024
1076.00,50.021
1077.00,50.018
1078.00,49.986
1079.00,49.993
1080.00,49.998
1081.00,49.998
1082.00,49.998
1083.00,49.969
1084.00,49.969
1085.00,49.962
1086.00,49.950
1087.00,49.947
1088.00,49.933
1089.00,49.918
1090.00,49.920
1091.00,49.900
1092.00,49.887
1093.00,49.873
1094.00,49.849
1095.00,49.846
1096.00,49.838
1097.00,49.812
1098.00,49.822
1099.00,49.819
1100.00,49.790
1101.00,49.792
1102.00,49.784
1103.00,49.776
1104.00,49.771
1105.00,49.740
1106.00,49.747
1107.00,49.739
1108.00,49.716
1109.00,49.719
1110.00,49.714
1111.00,49.695
1112.00,49.688
1113.00,49.674
1114.00,49.671
1115.00,49.673
1116.00,49.656
1117.00,49.649
1118.00,49.665
1119.00,49.625
1120.00,49.638
1121.00,49.642
1122.00,49.610
1123.00,49.603
1124.00,49.595
1125.00,49.576
1126.00,49.588
1127.00,49.585
1128.00,49.593
1129.00,49.554
1130.00,49.546
1131.00,49.552
1132.00,49.561
1133.00,49.534
1134.00,49.535
1135.00,49.523
1136.00,49.506
1137.00,49.510
1138.00,49.495
1139.00,49.498
1140.00,49.506
1141.00,49.516
1142.00,49.495
1143.00,49.508
1144.00,49.467
1145.00,49.473
1146.00,49.470
1147.00,49.454
1148.00,49.463
1149.00,49.461
1150.00,49.462
1151.00,49.468
1152.00,49.435
1153.00,49.442
1154.00,49.422
1155.00,49.427
1156.00,49.426
1157.00,49.424
1158.00,49.408
1159.00,49.410
1160.00,49.400
1161.00,49.422
1162.00,49.416
1163.00,49.394
1164.00,49.405
1165.00,49.402
1166.00,49.385
1167.00,49.394
1168.00,49.395
1169.00,49.389
1170.00,49.399
1171.00,49.369
1172.00,49.378
1173.00,49.373
1174.00,49.373
1175.00,49.379
1176.00,49.383
1177.00,49.367
1178.00,49.373
1179.00,49.375
1180.00,49.362
1181.00,49.387
1182.00,49.373
1183.00,49.365
1184.00,49.359
1185.00,49.365
1186.00,49.355
1187.00,49.372
1188.00,49.351
1189.00,49.361
1190.00,49.341
1191.00,49.336
1192.00,49.348
1193.00,49.330
1194.00,49.354
1195.00,49.320
1196.00,49.325
1197.00,49.334
1198.00,49.337
1199.00,49.319
1200.00,49.326
1201.00,49.329
1202.00,49.311
1203.00,49.330
1204.00,49.304
1205.00,49.324
1206.00,49.313
1207.00,49.315
1208.00,49.306
1209.00,49.304
1210.00,49.302
1211.00,49.306
1212.00,49.318
1213.00,49.287
1214.00,49.315
1215.00,49.295
1216.00,49.301
1217.00,49.321
1218.00,49.299
1219.00,49.325
1220.00,49.317
1221.00,49.311
1222.00,49.307
1223.00,49.308
1224.00,49.305
1225.00,49.296
1226.00,49.297
1227.00,49.293
1228.00,49.306
1229.00,49.295
1230.00,49.349
1231.00,49.335
1232.00,49.335
1233.00,49.344
1234.00,49.350
1235.00,49.346
1236.00,49.352
1237.00,49.343
1238.00,49.347
1239.00,49.358
1240.00,49.336
1241.00,49.358
1242.00,49.362
1243.00,49.364
1244.00,49.346
1245.00,49.374
1246.00,49.376
1247.00,49.380
1248.00,49.371
1249.00,49.385
1250.00,49.406
1251.00,49.382
1252.00,49.397
1253.00,49.393
1254.00,49.396
1255.00,49.407
1256.00,49.373
1257.00,49.361
1258.00,49.421
1259.00,49.400
1260.00,49.417
1261.00,49.423
1262.00,49.388
1263.00,49.408
1264.00,49.424
1265.00,49.413
1266.00,49.420
1267.00,49.421
1268.00,49.431
1269.00,49.441
1270.00,49.438
1271.00,49.454
1272.00,49.463
1273.00,49.448
1274.00,49.458
1275.00,49.461
1276.00,49.447
1277.00,49.453
1278.00,49.468
1279.00,49.461
1280.00,49.473
1281.00,49.472
1282.00,49.487
1283.00,49.478
1284.00,49.453
1285.00,49.459
1286.00,49.472
1287.00,49.447
1288.00,49.474
1289.00,49.458
1290.00,49.488
1291.00,49.488
1292.00,49.489
1293.00,49.492
1294.00,49.524
1295.00,49.508
1296.00,49.524
1297.00,49.532
1298.00,49.540
1299.00,49.536
1300.00,49.534
1301.00,49.541
1302.00,49.548
1303.00,49.571
1304.00,49.548
1305.00,49.561
1306.00,49.551
1307.00,49.576
1308.00,49.590
1309.00,49.594
1310.00,49.612
1311.00,49.595
1312.00,49.592
1313.00,49.601
1314.00,49.617
1315.00,49.616
1316.00,49.614
1317.00,49.626
1318.00,49.640
1319.00,49.639
1320.00,49.646
1321.00,49.785
1322.00,49.808
1323.00,49.774
1324.00,49.780
1325.00,49.757
1326.00,49.775
1327.00,49.782
1328.00,49.768
1329.00,49.781
1330.00,49.792
1331.00,49.787
1332.00,49.795
1333.00,49.790
1334.00,49.813
1335.00,49.816
1336.00,49.853
1337.00,49.868
1338.00,49.952
1339.00,49.985
1340.00,50.052
1341.00,50.101
1342.00,50.163
1343.00,50.230
1344.00,50.269
1345.00,50.324
1346.00,50.392
1347.00,50.395
1348.00,50.404
1349.00,50.439
1350.00,50.449
1351.00,50.463
1352.00,50.454
1353.00,50.467
1354.00,50.507
1355.00,50.598
1356.00,50.478
1357.00,50.487
1358.00,50.498
1359.00,50.501
1360.00,50.555
1361.00,50.513
1362.00,50.480
1363.00,50.599
1364.00,50.560
1365.00,50.479
1366.00,50.530
1367.00,50.486
1368.00,50.422
1369.00,50.473
1370.00,50.493
1371.00,50.413
1372.00,50.457
1373.00,50.489
1374.00,50.496
1375.00,50.461
1376.00,50.486
1377.00,50.474
1378.00,50.502
1379.00,50.508
1380.00,50.493
1381.00,50.521
1382.00,50.487
1383.00,50.462
1384.00,50.398
1385.00,50.419
1386.00,50.474
1387.00,50.408
1388.00,50.413
1389.00,50.461
1390.00,50.561
1391.00,50.445
1392.00,50.421
1393.00,50.490
1394.00,50.442
1395.00,50.466
1396.00,50.394
1397.00,50.448
1398.00,50.478
1399.00,50.473
1400.00,50.183
1401.00,50.423
1402.00,50.508
1403.00,50.476
1404.00,50.437
1405.00,50.471
1406.00,50.453
1407.00,50.505
1408.00,50.494
1409.00,50.468
1410.00,50.528
1411.00,50.473
1412.00,50.562
1413.00,50.524
1414.00,50.469
1415.00,50.532
1416.00,50.560
1417.00,50.589
1418.00,50.558
1419.00,50.555
1420.00,50.612
1421.00,50.642
1422.00,50.624
1423.00,50.635
1424.00,50.649
1425.00,50.642
1426.00,50.655
1427.00,50.672
1428.00,50.687
1429.00,50.696
1430.00,50.699
1431.00,50.735
1432.00,50.757
1433.00,50.762
1434.00,50.758
1435.00,50.800
1436.00,50.797
1437.00,50.805
1438.00,50.809
1439.00,50.861
1440.00,50.880
1441.00,50.863
1442.00,50.884
1443.00,50.913
1444.00,50.919
1445.00,50.892
1446.00,50.930
1447.00,50.937
1448.00,50.981
1449.00,50.990
1450.00,50.976
1451.00,51.009
1452.00,51.004
1453.00,51.040
1454.00,51.057
1455.00,51.058
1456.00,51.095
1457.00,51.077
1458.00,51.088
1459.00,51.133
1460.00,51.132
1461.00,51.156
1462.00,51.165
1463.00,51.178
1464.00,51.190
1465.00,51.204
1466.00,51.199
1467.00,51.232
1468.00,51.275
1469.00,51.262
1470.00,51.284
1471.00,51.302
1472.00,51.312
1473.00,51.315
1474.00,51.342
1475.00,51.352
1476.00,51.374
1477.00,51.351
1478.00,51.368
1479.00,51.390
1480.00,51.376
1481.00,51.389
1482.00,51.416
1483.00,51.422
1484.00,51.440
1485.00,51.447
1486.00,51.466
1487.00,51.478
1488.00,51.481
1489.00,51.490
1490.00,51.492
1491.00,51.497
1492.00,51.549
1493.00,51.520
1494.00,51.541
1495.00,51.556
1496.00,51.551
1497.00,51.558
1498.00,51.570
1499.00,51.568
1500.00,51.601
1501.00, 
1502.00, 
1503.00, 
1504.00, 
1505.00, 
1506.00, 
1507.00, 
1508.00, 
1509.00, 
1510.00, 
1511.00, 
1512.00, 
1513.00, 
1514.00, 
1515.00, 
1516.00, 
1517.00, 
1518.00, 
1519.00, 
1520.00, 
1521.00, 
1522.00, 
1523.00, 
1524.00, 
1525.00, 
1526.00, 
1527.00, 
1528.00, 
1529.00, 
1530.00, 
1531.00, 
1532.00, 
1533.00, 
1534.00, 
1535.00, 
1536.00, 
1537.00, 
1538.00, 
1539.00, 
1540.00, 
1541.00, 
1542.00, 
1543.00, 
1544.00, 
1545.00, 
1546.00, 
1547.00, 
1548.00, 
1549.00, 
1550.00, 
1551.00, 
1552.00, 
1553.00, 
1554.00, 
1555.00, 
1556.00, 
1557.00, 
1558.00, 
1559.00, 
1560.00, 
1561.00, 
1562.00, 
1563.00, 
1564.00, 
1565.00, 
1566.00, 
1567.00, 
1568.00, 
1569.00, 
1570.00, 
1571.00, 
1572.00, 
1573.00, 
1574.00, 
1575.00, 
1576.00, 
1577.00, 
1578.00, 
1579.00, 
1580.00, 
1581.00, 
1582.00, 
1583.00, 
1584.00, 
1585.00, 
1586.00, 
1587.00, 
1588.00, 
1589.00, 
1590.00, 
1591.00, 
1592.00, 
1593.00, 
1594.00, 
1595.00, 
1596.00, 
1597.00, 
1598.00, 
1599.00, 
1600.00, 
1601.00, 
1602.00, 
1603.00, 
1604.00, 
1605.00, 
1606.00, 
1607.00, 
1608.00, 
1609.00, 
1610.00, 
1611.00, 
1612.00, 
1613.00, 
1614.00, 
1615.00, 
1616.00, 
1617.00, 
1618.00, 
1619.00, 
1620.00, 
1621.00, 
1622.00, 
1623.00, 
1624.00, 
1625.00, 
1626.00, 
1627.00, 
1628.00, 
1629.00, 
1630.00, 
1631.00, 
1632.00, 
1633.00, 
1634.00, 
1635.00, 
1636.00, 
1637.00, 
1638.00, 
1639.00, 
1640.00, 
1641.00, 
1642.00, 
1643.00, 
1644.00, 
1645.00, 
1646.00, 
1647.00, 
1648.00, 
1649.00, 
1650.00, 
1651.00, 
1652.00, 
1653.00, 
1654.00, 
1655.00, 
1656.00, 
1657.00, 
1658.00, 
1659.00, 
1660.00, 
1661.00, 
1662.00, 
1663.00, 
1664.00, 
1665.00, 
1666.00, 
1667.00, 
1668.00, 
1669.00, 
1670.00, 
1671.00, 
1672.00, 
1673.00, 
1674.00, 
1675.00, 
1676.00, 
1677.00, 
1678.00, 
1679.00, 
1680.00, 
1681.00, 
1682.00, 
1683.00, 
1684.00, 
1685.00, 
1686.00, 
1687.00, 
1688.00, 
1689.00, 
1690.00, 
1691.00, 
1692.00, 
1693.00, 
1694.00, 
1695.00, 
1696.00, 
1697.00, 
1698.00, 
1699.00, 
1700.00, 
1701.00, 
1702.00, 
1703.00, 
1704.00, 
1705.00, 
1706.00, 
1707.00, 
1708.00, 
1709.00, 
1710.00, 
1711.00, 
1712.00, 
1713.00, 
1714.00, 
1715.00, 
1716.00, 
1717.00, 
1718.00, 
1719.00, 
1720.00, 
1721.00, 
1722.00, 
1723.00, 
1724.00, 
1725.00, 
1726.00, 
1727.00, 
1728.00, 
1729.00, 
1730.00, 
1731.00, 
1732.00, 
1733.00, 
1734.00, 
1735.00, 
1736.00, 
1737.00, 
1738.00, 
1739.00, 
1740.00, 
1741.00, 
1742.00, 
1743.00, 
1744.00, 
1745.00, 
1746.00, 
1747.00, 
1748.00, 
1749.00, 
1750.00, 
1751.00, 
1752.00, 
1753.00, 
1754.00, 
1755.00, 
1756.00, 
1757.00, 
1758.00, 
1759.00, 
1760.00, 
1761.00, 
1762.00, 
1763.00, 
1764.00, 
1765.00, 
1766.00, 
1767.00, 
1768.00, 
1769.00, 
1770.00, 
1771.00, 
1772.00, 
1773.00, 
1774.00, 
1775.00, 
1776.00, 
1777.00, 
1778.00, 
1779.00, 
1780.00, 
1781.00, 
1782.00, 
1783.00, 
1784.00, 
1785.00, 
1786.00, 
1787.00, 
1788.00, 
1789.00, 
1790.00, 
1791.00, 
1792.00, 
1793.00, 
1794.00, 
1795.00, 
1796.00, 
1797.00, 
1798.00, 
1799.00, 
1800.00, 
1801.00, 
1802.00, 
1803.00, 
1804.00, 
1805.00, 
1806.00, 
1807.00, 
1808.00, 
1809.00, 
1810.00, 
1811.00, 
1812.00, 
1813.00, 
1814.00, 
1815.00, 
1816.00, 
1817.00, 
1818.00, 
1819.00, 
1820.00, 
1821.00, 
1822.00, 
1823.00, 
1824.00, 
1825.00, 
1826.00, 
1827.00, 
1828.00, 
1829.00, 
1830.00, 
1831.00, 
1832.00, 
1833.00, 
1834.00, 
1835.00, 
1836.00, 
1837.00, 
1838.00, 
1839.00, 
1840.00, 
1841.00, 
1842.00, 
1843.00, 
1844.00, 
1845.00, 
1846.00, 
1847.00, 
1848.00, 
1849.00, 
1850.00, 
1851.00, 
1852.00, 
1853.00, 
1854.00, 
1855.00, 
1856.00, 
1857.00, 
1858.00, 
1859.00, 
1860.00, 
1861.00, 
1862.00, 
1863.00, 
1864.00, 
1865.00, 
1866.00, 
1867.00, 
1868.00, 
1869.00, 
1870.00, 
1871.00, 
1872.00, 
1873.00, 
1874.00, 
1875.00, 
1876.00, 
1877.00, 
1878.00, 
1879.00, 
1880.00, 
1881.00, 
1882.00, 
1883.00, 
1884.00, 
1885.00, 
1886.00, 
1887.00, 
1888.00, 
1889.00, 
1890.00, 
1891.00, 
1892.00, 
1893.00, 
1894.00, 
1895.00, 
1896.00, 
1897.00, 
1898.00, 
1899.00, 
1900.00, 
1901.00, 
1902.00, 
1903.00, 
1904.00, 
1905.00, 
1906.00, 
1907.00, 
1908.00, 
1909.00, 
1910.00, 
1911.00, 
1912.00, 
1913.00, 
1914.00, 
1915.00, 
1916.00, 
1917.00, 
1918.00, 
1919.00, 
1920.00, 
1921.00, 
1922.00, 
1923.00, 
1924.00, 
1925.00, 
1926.00, 
1927.00, 
1928.00, 
1929.00, 
1930.00, 
1931.00, 
1932.00, 
1933.00, 
1934.00, 
1935.00, 
1936.00, 
1937.00, 
1938.00, 
1939.00, 
1940.00, 
1941.00, 
1942.00, 
1943.00, 
1944.00, 
1945.00, 
1946.00, 
1947.00, 
1948.00, 
1949.00, 
1950.00, 
1951.00, 
1952.00, 
1953.00, 
1954.00, 
1955.00, 
1956.00, 
1957.00, 
1958.00, 
1959.00, 
1960.00, 
1961.00, 
1962.00, 
1963.00, 
1964.00, 
1965.00, 
1966.00, 
1967.00, 
1968.00, 
1969.00, 
1970.00, 
1971.00, 
1972.00, 
1973.00, 
1974.00, 
1975.00, 
1976.00, 
1977.00, 
1978.00, 
1979.00, 
1980.00, 
1981.00, 
1982.00, 
1983.00, 
1984.00, 
1985.00, 
1986.00, 
1987.00, 
1988.00, 
1989.00, 
1990.00, 
1991.00, 
1992.00, 
1993.00, 
1994.00, 
1995.00, 
1996.00, 
1997.00, 
1998.00, 
1999.00, 
2000.00, 
2001.00, 
2002.00, 
2003.00, 
2004.00, 
2005.00, 
2006.00, 
2007.00, 
2008.00, 
2009.00, 
2010.00, 
2011.00, 
2012.00, 
2013.00, 
2014.00, 
2015.00, 
2016.00, 
2017.00, 
2018.00, 
2019.00, 
2020.00, 
2021.00, 
2022.00, 
2023.00, 
2024.00, 
2025.00, 
2026.00, 
2027.00, 
2028.00, 
2029.00, 
2030.00, 
2031.00, 
2032.00, 
2033.00, 
2034.00, 
2035.00, 
2036.00, 
2037.00, 
2038.00, 
2039.00, 
2040.00, 
2041.00, 
2042.00, 
2043.00, 
2044.00, 
2045.00, 
2046.00, 
2047.00, 
2048.00, 
2049.00, 
2050.00, 
2051.00, 
2052.00, 
2053.00, 
2054.00, 
2055.00, 
2056.00, 
2057.00, 
2058.00, 
2059.00, 
2060.00, 
2061.00, 
2062.00, 
2063.00, 
2064.00, 
2065.00, 
2066.00, 
2067.00, 
2068.00, 
2069.00, 
2070.00, 
2071.00, 
2072.00, 
2073.00, 
2074.00, 
2075.00, 
2076.00, 
2077.00, 
2078.00, 
2079.00, 
2080.00, 
2081.00, 
2082.00, 
2083.00, 
2084.00, 
2085.00, 
2086.00, 
2087.00, 
2088.00, 
2089.00, 
2090.00, 
2091.00, 
2092.00, 
2093.00, 
2094.00, 
2095.00, 
2096.00, 
2097.00, 
2098.00, 
2099.00, 
2100.00, 
2101.00, 
2102.00, 
2103.00, 
2104.00, 
2105.00, 
2106.00, 
2107.00, 
2108.00, 
2109.00, 
2110.00, 
2111.00, 
2112.00, 
2113.00, 
2114.00, 
2115.00, 
2116.00, 
2117.00, 
2118.00, 
2119.00, 
2120.00, 
2121.00, 
2122.00, 
2123.00, 
2124.00, 
2125.00, 
2126.00, 
2127.00, 
2128.00, 
2129.00, 
2130.00, 
2131.00, 
2132.00, 
2133.00, 
2134.00, 
2135.00, 
2136.00, 
2137.00, 
2138.00, 
2139.00, 
2140.00, 
2141.00, 
2142.00, 
2143.00, 
2144.00, 
2145.00, 
2146.00, 
2147.00, 
2148.00, 
2149.00, 
2150.00, 
2151.00, 
2152.00, 
2153.00, 
2154.00, 
2155.00, 
2156.00, 
2157.00, 
2158.00, 
2159.00, 
2160.00, 
2161.00, 
2162.00, 
2163.00, 
2164.00, 
2165.00, 
2166.00, 
2167.00, 
2168.00, 
2169.00, 
2170.00, 
2171.00, 
2172.00, 
2173.00, 
2174.00, 
2175.00, 
2176.00, 
2177.00, 
2178.00, 
2179.00, 
2180.00, 
2181.00, 
2182.00, 
2183.00, 
2184.00, 
2185.00, 
2186.00, 
2187.00, 
2188.00, 
2189.00, 
2190.00, 
2191.00, 
2192.00, 
2193.00, 
2194.00, 
2195.00, 
2196.00, 
2197.00, 
2198.00, 
2199.00, 
2200.00, 
2201.00, 
2202.00, 
2203.00, 
2204.00, 
2205.00, 
2206.00, 
2207.00, 
2208.00, 
2209.00, 
2210.00, 
2211.00, 
2212.00, 
2213.00, 
2214.00, 
2215.00, 
2216.00, 
2217.00, 
2218.00, 
2219.00, 
2220.00, 
2221.00, 
2222.00, 
2223.00, 
2224.00, 
2225.00, 
2226.00, 
2227.00, 
2228.00, 
2229.00, 
2230.00, 
2231.00, 
2232.00, 
2233.00, 
2234.00, 
2235.00, 
2236.00, 
2237.00, 
2238.00, 
2239.00, 
2240.00, 
2241.00, 
2242.00, 
2243.00, 
2244.00, 
2245.00, 
2246.00, 
2247.00, 
2248.00, 
2249.00, 
2250.00, 
2251.00, 
2252.00, 
2253.00, 
2254.00, 
2255.00, 
2256.00, 
2257.00, 
2258.00, 
2259.00, 
2260.00, 
2261.00, 
2262.00, 
2263.00, 
2264.00, 
2265.00, 
2266.00, 
2267.00, 
2268.00, 
2269.00, 
2270.00, 
2271.00, 
2272.00, 
2273.00, 
2274.00, 
2275.00, 
2276.00, 
2277.00, 
2278.00, 
2279.00, 
2280.00, 
2281.00, 
2282.00, 
2283.00, 
2284.00, 
2285.00, 
2286.00, 
2287.00, 
2288.00, 
2289.00, 
2290.00, 
2291.00, 
2292.00, 
2293.00, 
2294.00, 
2295.00, 
2296.00, 
2297.00, 
2298.00, 
2299.00, 
2300.00, 
2301.00, 
2302.00, 
2303.00, 
2304.00, 
2305.00, 
2306.00, 
2307.00, 
2308.00, 
2309.00, 
2310.00, 
2311.00, 
2312.00, 
2313.00, 
2314.00, 
2315.00, 
2316.00, 
2317.00, 
2318.00, 
2319.00, 
2320.00, 
2321.00, 
2322.00, 
2323.00, 
2324.00, 
2325.00, 
2326.00, 
2327.00, 
2328.00, 
2329.00, 
2330.00, 
2331.00, 
2332.00, 
2333.00, 
2334.00, 
2335.00, 
2336.00, 
2337.00, 
2338.00, 
2339.00, 
2340.00, 
2341.00, 
2342.00, 
2343.00, 
2344.00, 
2345.00, 
2346.00, 
2347.00, 
2348.00, 
2349.00, 
2350.00, 
2351.00, 
2352.00, 
2353.00, 
2354.00, 
2355.00, 
2356.00, 
2357.00, 
2358.00, 
2359.00, 
2360.00, 
2361.00, 
2362.00, 
2363.00, 
2364.00, 
2365.00, 
2366.00, 
2367.00, 
2368.00, 
2369.00, 
2370.00, 
2371.00, 
2372.00, 
2373.00, 
2374.00, 
2375.00, 
2376.00, 
2377.00, 
2378.00, 
2379.00, 
2380.00, 
2381.00, 
2382.00, 
2383.00, 
2384.00, 
2385.00, 
2386.00, 
2387.00, 
2388.00, 
2389.00, 
2390.00, 
2391.00, 
2392.00, 
2393.00, 
2394.00, 
2395.00, 
2396.00, 
2397.00, 
2398.00, 
2399.00, 
2400.00, 
2401.00, 
2402.00, 
2403.00, 
2404.00, 
2405.00, 
2406.00, 
2407.00, 
2408.00, 
2409.00, 
2410.00, 
2411.00, 
2412.00, 
2413.00, 
2414.00, 
2415.00, 
2416.00, 
2417.00, 
2418.00, 
2419.00, 
2420.00, 
2421.00, 
2422.00, 
2423.00, 
2424.00, 
2425.00, 
2426.00, 
2427.00, 
2428.00, 
2429.00, 
2430.00, 
2431.00, 
2432.00, 
2433.00, 
2434.00, 
2435.00, 
2436.00, 
2437.00, 
2438.00, 
2439.00, 
2440.00, 
2441.00, 
2442.00, 
2443.00, 
2444.00, 
2445.00, 
2446.00, 
2447.00, 
2448.00, 
2449.00, 
2450.00, 
2451.00, 
2452.00, 
2453.00, 
2454.00, 
2455.00, 
2456.00, 
2457.00, 
2458.00, 
2459.00, 
2460.00, 
2461.00, 
2462.00, 
2463.00, 
2464.00, 
2465.00, 
2466.00, 
2467.00, 
2468.00, 
2469.00, 
2470.00, 
2471.00, 
2472.00, 
2473.00, 
2474.00, 
2475.00, 
2476.00, 
2477.00, 
2478.00, 
2479.00, 
2480.00, 
2481.00, 
2482.00, 
2483.00, 
2484.00, 
2485.00, 
2486.00, 
2487.00, 
2488.00, 
2489.00, 
2490.00, 
2491.00, 
2492.00, 
2493.00, 
2494.00, 
2495.00, 
2496.00, 
2497.00, 
2498.00, 
2499.00, 
2500.00, 
2501.00, 
2502.00, 
2503.00, 
2504.00, 
2505.00, 
2506.00, 
2507.00, 
2508.00, 
2509.00, 
2510.00, 
2511.00, 
2512.00, 
2513.00, 
2514.00, 
2515.00, 
2516.00, 
2517.00, 
2518.00, 
2519.00, 
2520.00, 
2521.00, 
2522.00, 
2523.00, 
2524.00, 
2525.00, 
2526.00, 
2527.00, 
2528.00, 
2529.00, 
2530.00, 
2531.00, 
2532.00, 
2533.00, 
2534.00, 
2535.00, 
2536.00, 
2537.00, 
2538.00, 
2539.00, 
2540.00, 
2541.00, 
2542.00, 
2543.00, 
2544.00, 
2545.00, 
2546.00, 
2547.00, 
2548.00, 
2549.00, 
2550.00, 
2551.00, 
2552.00, 
2553.00, 
2554.00, 
2555.00, 
2556.00, 
2557.00, 
2558.00, 
2559.00, 
2560.00, 
2561.00, 
2562.00, 
2563.00, 
2564.00, 
2565.00, 
2566.00, 
2567.00, 
2568.00, 
2569.00, 
2570.00, 
2571.00, 
2572.00, 
2573.00, 
2574.00, 
2575.00, 
2576.00, 
2577.00, 
2578.00, 
2579.00, 
2580.00, 
2581.00, 
2582.00, 
2583.00, 
2584.00, 
2585.00, 
2586.00, 
2587.00, 
2588.00, 
2589.00, 
2590.00, 
2591.00, 
2592.00, 
2593.00, 
2594.00, 
2595.00, 
2596.00, 
2597.00, 
2598.00, 
2599.00, 
2600.00, 
