"2cP3 - RawData"
"Wavelength nm.","T%"
200.00,-0.001
201.00,0.001
202.00,0.003
203.00,0.004
204.00,0.001
205.00,-0.000
206.00,0.002
207.00,0.002
208.00,-0.001
209.00,-0.001
210.00,0.006
211.00,0.003
212.00,0.002
213.00,0.000
214.00,0.002
215.00,0.000
216.00,0.001
217.00,0.004
218.00,0.002
219.00,0.002
220.00,0.002
221.00,0.002
222.00,0.001
223.00,-0.000
224.00,-0.000
225.00,0.001
226.00,0.002
227.00,0.001
228.00,-0.000
229.00,0.001
230.00,-0.001
231.00,-0.002
232.00,-0.001
233.00,0.001
234.00,-0.001
235.00,0.001
236.00,-0.000
237.00,0.000
238.00,-0.001
239.00,0.001
240.00,0.000
241.00,0.001
242.00,0.000
243.00,-0.001
244.00,0.002
245.00,0.000
246.00,0.000
247.00,0.001
248.00,-0.000
249.00,-0.001
250.00,-0.001
251.00,0.002
252.00,-0.000
253.00,0.000
254.00,-0.000
255.00,0.001
256.00,0.002
257.00,0.000
258.00,0.002
259.00,0.002
260.00,0.001
261.00,0.000
262.00,0.001
263.00,0.001
264.00,0.002
265.00,0.001
266.00,-0.002
267.00,0.000
268.00,0.001
269.00,0.001
270.00,-0.000
271.00,-0.000
272.00,0.000
273.00,0.002
274.00,0.001
275.00,-0.001
276.00,0.000
277.00,0.002
278.00,-0.001
279.00,-0.002
280.00,-0.001
281.00,-0.002
282.00,0.001
283.00,0.001
284.00,-0.000
285.00,-0.000
286.00,0.001
287.00,0.002
288.00,0.000
289.00,-0.000
290.00,-0.002
291.00,-0.001
292.00,-0.000
293.00,0.001
294.00,-0.001
295.00,0.001
296.00,0.000
297.00,0.001
298.00,0.001
299.00,0.000
300.00,0.002
301.00,0.004
302.00,0.006
303.00,0.007
304.00,0.011
305.00,0.019
306.00,0.029
307.00,0.042
308.00,0.065
309.00,0.103
310.00,0.142
311.00,0.199
312.00,0.263
313.00,0.352
314.00,0.469
315.00,0.610
316.00,0.786
317.00,1.003
318.00,1.224
319.00,1.518
320.00,1.830
321.00,2.179
322.00,2.600
323.00,3.067
324.00,3.558
325.00,4.064
326.00,4.603
327.00,5.210
328.00,5.792
329.00,6.393
330.00,7.041
331.00,7.744
332.00,8.400
333.00,9.091
334.00,9.786
335.00,10.474
336.00,11.195
337.00,11.884
338.00,12.571
339.00,13.181
340.00,13.865
341.00,14.463
342.00,15.061
343.00,15.674
344.00,16.142
345.00,16.680
346.00,17.233
347.00,17.710
348.00,18.155
349.00,18.554
350.00,18.959
351.00,19.316
352.00,19.679
353.00,20.029
354.00,20.363
355.00,20.648
356.00,20.937
357.00,21.226
358.00,21.437
359.00,21.651
360.00,21.855
361.00,22.009
362.00,22.195
363.00,22.351
364.00,22.510
365.00,22.701
366.00,22.782
367.00,22.851
368.00,22.924
369.00,23.026
370.00,23.042
371.00,23.115
372.00,23.185
373.00,23.095
374.00,23.151
375.00,23.144
376.00,23.097
377.00,23.085
378.00,23.014
379.00,23.003
380.00,22.886
381.00,22.949
382.00,22.959
383.00,22.981
384.00,23.018
385.00,23.053
386.00,23.112
387.00,23.147
388.00,23.177
389.00,23.194
390.00,23.220
391.00,23.283
392.00,23.236
393.00,23.278
394.00,23.300
395.00,23.358
396.00,23.363
397.00,23.349
398.00,23.391
399.00,23.396
400.00,23.416
401.00,23.407
402.00,23.397
403.00,23.436
404.00,23.393
405.00,23.373
406.00,23.356
407.00,23.356
408.00,23.334
409.00,23.305
410.00,23.259
411.00,23.211
412.00,23.201
413.00,23.209
414.00,23.198
415.00,23.226
416.00,23.280
417.00,23.258
418.00,23.294
419.00,23.305
420.00,23.330
421.00,23.399
422.00,23.391
423.00,23.446
424.00,23.453
425.00,23.513
426.00,23.557
427.00,23.576
428.00,23.610
429.00,23.632
430.00,23.671
431.00,23.732
432.00,23.787
433.00,23.830
434.00,23.846
435.00,23.952
436.00,23.979
437.00,24.058
438.00,24.101
439.00,24.088
440.00,24.260
441.00,24.306
442.00,24.362
443.00,24.458
444.00,24.521
445.00,24.636
446.00,24.716
447.00,24.788
448.00,24.862
449.00,24.978
450.00,25.078
451.00,25.134
452.00,25.235
453.00,25.357
454.00,25.470
455.00,25.542
456.00,25.666
457.00,25.758
458.00,25.841
459.00,25.941
460.00,26.084
461.00,26.170
462.00,26.289
463.00,26.408
464.00,26.392
465.00,26.663
466.00,26.773
467.00,26.887
468.00,26.987
469.00,27.121
470.00,27.174
471.00,27.296
472.00,27.393
473.00,27.473
474.00,27.573
475.00,27.692
476.00,27.790
477.00,27.890
478.00,28.041
479.00,28.152
480.00,28.303
481.00,28.429
482.00,28.555
483.00,28.712
484.00,28.822
485.00,29.010
486.00,29.162
487.00,29.308
488.00,29.426
489.00,29.611
490.00,29.742
491.00,29.873
492.00,30.050
493.00,30.154
494.00,30.140
495.00,30.307
496.00,30.414
497.00,30.499
498.00,30.707
499.00,30.782
500.00,30.943
501.00,31.043
502.00,31.203
503.00,31.329
504.00,31.401
505.00,31.529
506.00,31.655
507.00,31.756
508.00,31.833
509.00,31.989
510.00,32.106
511.00,32.178
512.00,32.343
513.00,32.426
514.00,32.581
515.00,32.703
516.00,32.830
517.00,32.895
518.00,33.029
519.00,33.111
520.00,33.225
521.00,33.300
522.00,33.372
523.00,33.480
524.00,33.547
525.00,33.673
526.00,33.775
527.00,33.931
528.00,33.979
529.00,34.073
530.00,34.222
531.00,34.317
532.00,34.362
533.00,34.467
534.00,34.576
535.00,34.665
536.00,34.746
537.00,34.830
538.00,34.903
539.00,34.961
540.00,35.095
541.00,35.171
542.00,35.227
543.00,35.276
544.00,35.381
545.00,35.442
546.00,35.489
547.00,35.617
548.00,35.680
549.00,35.729
550.00,35.809
551.00,35.898
552.00,35.938
553.00,36.086
554.00,36.199
555.00,36.241
556.00,36.294
557.00,36.348
558.00,36.428
559.00,36.527
560.00,36.561
561.00,36.647
562.00,36.685
563.00,36.733
564.00,36.832
565.00,36.852
566.00,36.902
567.00,36.911
568.00,36.932
569.00,36.976
570.00,37.037
571.00,37.079
572.00,37.155
573.00,37.187
574.00,37.270
575.00,37.278
576.00,37.289
577.00,37.398
578.00,37.444
579.00,37.495
580.00,37.588
581.00,37.687
582.00,37.755
583.00,37.798
584.00,37.923
585.00,37.907
586.00,38.030
587.00,38.147
588.00,38.128
589.00,38.169
590.00,38.264
591.00,38.286
592.00,38.246
593.00,38.287
594.00,38.427
595.00,38.395
596.00,38.476
597.00,38.552
598.00,38.600
599.00,38.589
600.00,38.646
601.00,38.778
602.00,38.846
603.00,38.872
604.00,38.966
605.00,39.034
606.00,39.105
607.00,39.111
608.00,39.169
609.00,39.202
610.00,39.212
611.00,39.216
612.00,39.288
613.00,39.322
614.00,39.387
615.00,39.436
616.00,39.523
617.00,39.613
618.00,39.636
619.00,39.708
620.00,39.722
621.00,39.754
622.00,39.841
623.00,39.910
624.00,39.947
625.00,40.031
626.00,40.132
627.00,40.106
628.00,40.126
629.00,40.250
630.00,40.335
631.00,40.248
632.00,40.377
633.00,40.454
634.00,40.520
635.00,40.566
636.00,40.620
637.00,40.812
638.00,40.907
639.00,40.952
640.00,40.995
641.00,41.086
642.00,41.115
643.00,41.157
644.00,41.283
645.00,41.392
646.00,41.445
647.00,41.485
648.00,41.519
649.00,41.666
650.00,41.659
651.00,41.782
652.00,41.871
653.00,41.917
654.00,41.987
655.00,42.013
656.00,42.218
657.00,42.337
658.00,42.399
659.00,42.514
660.00,42.549
661.00,42.625
662.00,42.679
663.00,42.758
664.00,42.936
665.00,42.909
666.00,42.940
667.00,43.115
668.00,43.116
669.00,43.272
670.00,43.335
671.00,43.460
672.00,43.410
673.00,43.534
674.00,43.568
675.00,43.623
676.00,43.800
677.00,43.901
678.00,43.808
679.00,43.986
680.00,44.027
681.00,44.135
682.00,44.219
683.00,44.329
684.00,44.504
685.00,44.573
686.00,44.614
687.00,44.668
688.00,44.718
689.00,44.782
690.00,44.866
691.00,44.993
692.00,44.934
693.00,44.858
694.00,44.852
695.00,45.076
696.00,45.043
697.00,45.017
698.00,45.284
699.00,45.753
700.00,45.754
701.00,45.649
702.00,45.767
703.00,45.974
704.00,45.945
705.00,45.974
706.00,46.053
707.00,46.254
708.00,46.029
709.00,46.324
710.00,46.483
711.00,46.267
712.00,46.391
713.00,46.483
714.00,46.488
715.00,46.636
716.00,46.600
717.00,46.645
718.00,46.659
719.00,46.717
720.00,46.907
721.00,51.110
722.00,51.141
723.00,51.170
724.00,51.153
725.00,51.160
726.00,51.161
727.00,51.178
728.00,51.200
729.00,51.222
730.00,51.246
731.00,51.268
732.00,51.265
733.00,51.309
734.00,51.404
735.00,51.342
736.00,51.431
737.00,51.403
738.00,51.478
739.00,51.466
740.00,51.476
741.00,51.553
742.00,51.575
743.00,51.568
744.00,51.500
745.00,51.587
746.00,51.585
747.00,51.494
748.00,51.541
749.00,51.392
750.00,51.526
751.00,51.439
752.00,51.480
753.00,51.459
754.00,51.552
755.00,51.542
756.00,51.574
757.00,51.572
758.00,51.542
759.00,51.609
760.00,51.662
761.00,51.613
762.00,51.619
763.00,51.603
764.00,51.571
765.00,51.663
766.00,51.675
767.00,51.690
768.00,51.678
769.00,51.613
770.00,51.674
771.00,51.666
772.00,51.706
773.00,51.693
774.00,51.740
775.00,51.780
776.00,51.684
777.00,51.728
778.00,51.735
779.00,51.786
780.00,51.761
781.00,51.798
782.00,51.773
783.00,51.655
784.00,51.705
785.00,51.710
786.00,51.730
787.00,51.758
788.00,51.715
789.00,51.725
790.00,51.650
791.00,51.675
792.00,51.668
793.00,51.598
794.00,51.588
795.00,51.597
796.00,51.521
797.00,51.634
798.00,51.535
799.00,51.539
800.00,51.470
801.00,51.475
802.00,51.511
803.00,51.474
804.00,51.428
805.00,51.469
806.00,51.417
807.00,51.395
808.00,51.380
809.00,51.438
810.00,51.385
811.00,51.356
812.00,51.367
813.00,51.288
814.00,51.275
815.00,51.338
816.00,51.365
817.00,51.302
818.00,51.248
819.00,51.180
820.00,51.248
821.00,51.208
822.00,51.259
823.00,51.231
824.00,51.248
825.00,51.221
826.00,51.185
827.00,51.244
828.00,51.124
829.00,51.140
830.00,51.025
831.00,53.664
832.00,53.683
833.00,53.623
834.00,53.600
835.00,53.580
836.00,53.603
837.00,53.561
838.00,53.538
839.00,53.515
840.00,53.437
841.00,53.468
842.00,53.424
843.00,53.414
844.00,53.398
845.00,53.355
846.00,53.360
847.00,53.372
848.00,53.352
849.00,53.258
850.00,53.237
851.00,53.226
852.00,53.183
853.00,53.178
854.00,53.163
855.00,53.085
856.00,53.113
857.00,53.051
858.00,53.041
859.00,53.020
860.00,53.010
861.00,52.987
862.00,52.943
863.00,52.961
864.00,52.935
865.00,52.924
866.00,52.874
867.00,52.917
868.00,52.898
869.00,52.880
870.00,52.925
871.00,52.840
872.00,52.958
873.00,52.835
874.00,52.873
875.00,52.818
876.00,52.834
877.00,52.809
878.00,52.815
879.00,52.748
880.00,52.755
881.00,52.701
882.00,52.713
883.00,52.706
884.00,52.642
885.00,52.637
886.00,52.636
887.00,52.650
888.00,52.581
889.00,52.596
890.00,52.555
891.00,52.571
892.00,52.520
893.00,52.476
894.00,52.480
895.00,52.436
896.00,52.410
897.00,52.403
898.00,52.402
899.00,52.350
900.00,52.370
901.00,52.368
902.00,52.364
903.00,52.347
904.00,52.325
905.00,52.295
906.00,52.270
907.00,52.231
908.00,52.212
909.00,52.197
910.00,52.154
911.00,52.162
912.00,52.169
913.00,52.131
914.00,52.142
915.00,52.073
916.00,52.071
917.00,52.035
918.00,52.013
919.00,51.993
920.00,51.952
921.00,51.968
922.00,51.972
923.00,51.867
924.00,52.019
925.00,51.890
926.00,51.898
927.00,51.858
928.00,51.852
929.00,51.832
930.00,51.793
931.00,51.785
932.00,51.815
933.00,51.788
934.00,51.779
935.00,51.726
936.00,51.712
937.00,51.695
938.00,51.682
939.00,51.679
940.00,51.633
941.00,51.636
942.00,51.590
943.00,51.597
944.00,51.557
945.00,51.548
946.00,51.539
947.00,51.556
948.00,51.483
949.00,51.454
950.00,51.443
951.00,51.430
952.00,51.398
953.00,51.362
954.00,51.331
955.00,51.321
956.00,51.308
957.00,51.229
958.00,51.278
959.00,51.220
960.00,51.199
961.00,51.186
962.00,51.190
963.00,51.148
964.00,51.129
965.00,51.116
966.00,51.120
967.00,51.116
968.00,51.084
969.00,51.123
970.00,51.100
971.00,51.109
972.00,51.078
973.00,51.108
974.00,51.131
975.00,51.101
976.00,51.124
977.00,51.097
978.00,51.131
979.00,51.085
980.00,51.127
981.00,51.119
982.00,51.096
983.00,51.109
984.00,51.086
985.00,51.109
986.00,51.056
987.00,51.065
988.00,51.057
989.00,51.026
990.00,51.030
991.00,51.018
992.00,51.028
993.00,50.993
994.00,50.980
995.00,50.965
996.00,50.950
997.00,50.941
998.00,50.915
999.00,50.937
1000.00,50.888
1001.00,50.880
1002.00,50.870
1003.00,50.843
1004.00,50.849
1005.00,50.822
1006.00,50.831
1007.00,50.797
1008.00,50.804
1009.00,50.781
1010.00,50.780
1011.00,50.764
1012.00,50.726
1013.00,50.748
1014.00,50.700
1015.00,50.713
1016.00,50.680
1017.00,50.674
1018.00,50.664
1019.00,50.621
1020.00,50.607
1021.00,50.592
1022.00,50.605
1023.00,50.549
1024.00,50.568
1025.00,50.545
1026.00,50.527
1027.00,50.510
1028.00,50.495
1029.00,50.497
1030.00,50.447
1031.00,50.453
1032.00,50.433
1033.00,50.424
1034.00,50.382
1035.00,50.362
1036.00,50.332
1037.00,50.321
1038.00,50.310
1039.00,50.267
1040.00,50.285
1041.00,50.247
1042.00,50.238
1043.00,50.200
1044.00,50.255
1045.00,50.215
1046.00,50.213
1047.00,50.219
1048.00,50.243
1049.00,50.251
1050.00,50.249
1051.00,50.280
1052.00,50.289
1053.00,50.276
1054.00,50.282
1055.00,50.297
1056.00,50.311
1057.00,50.325
1058.00,50.304
1059.00,50.309
1060.00,50.301
1061.00,50.290
1062.00,50.284
1063.00,50.276
1064.00,50.273
1065.00,50.256
1066.00,50.244
1067.00,50.225
1068.00,50.243
1069.00,50.195
1070.00,50.182
1071.00,50.177
1072.00,50.190
1073.00,50.166
1074.00,50.165
1075.00,50.151
1076.00,50.151
1077.00,50.133
1078.00,50.124
1079.00,50.123
1080.00,50.123
1081.00,50.118
1082.00,50.101
1083.00,50.090
1084.00,50.098
1085.00,50.091
1086.00,50.083
1087.00,50.076
1088.00,50.049
1089.00,50.031
1090.00,50.039
1091.00,50.019
1092.00,50.032
1093.00,49.992
1094.00,49.975
1095.00,49.995
1096.00,49.961
1097.00,49.936
1098.00,49.944
1099.00,49.951
1100.00,49.930
1101.00,49.933
1102.00,49.926
1103.00,49.922
1104.00,49.914
1105.00,49.891
1106.00,49.886
1107.00,49.869
1108.00,49.860
1109.00,49.857
1110.00,49.844
1111.00,49.828
1112.00,49.822
1113.00,49.802
1114.00,49.805
1115.00,49.800
1116.00,49.796
1117.00,49.777
1118.00,49.783
1119.00,49.766
1120.00,49.772
1121.00,49.761
1122.00,49.754
1123.00,49.736
1124.00,49.741
1125.00,49.741
1126.00,49.713
1127.00,49.706
1128.00,49.698
1129.00,49.677
1130.00,49.677
1131.00,49.682
1132.00,49.687
1133.00,49.672
1134.00,49.672
1135.00,49.643
1136.00,49.640
1137.00,49.645
1138.00,49.630
1139.00,49.635
1140.00,49.620
1141.00,49.616
1142.00,49.623
1143.00,49.625
1144.00,49.598
1145.00,49.597
1146.00,49.600
1147.00,49.588
1148.00,49.584
1149.00,49.591
1150.00,49.583
1151.00,49.589
1152.00,49.567
1153.00,49.565
1154.00,49.543
1155.00,49.554
1156.00,49.540
1157.00,49.539
1158.00,49.537
1159.00,49.534
1160.00,49.534
1161.00,49.554
1162.00,49.542
1163.00,49.534
1164.00,49.537
1165.00,49.532
1166.00,49.521
1167.00,49.521
1168.00,49.521
1169.00,49.514
1170.00,49.518
1171.00,49.489
1172.00,49.501
1173.00,49.491
1174.00,49.497
1175.00,49.503
1176.00,49.510
1177.00,49.492
1178.00,49.498
1179.00,49.500
1180.00,49.502
1181.00,49.506
1182.00,49.490
1183.00,49.481
1184.00,49.468
1185.00,49.490
1186.00,49.491
1187.00,49.478
1188.00,49.468
1189.00,49.473
1190.00,49.457
1191.00,49.465
1192.00,49.469
1193.00,49.452
1194.00,49.470
1195.00,49.440
1196.00,49.464
1197.00,49.466
1198.00,49.462
1199.00,49.452
1200.00,49.455
1201.00,49.464
1202.00,49.445
1203.00,49.450
1204.00,49.430
1205.00,49.455
1206.00,49.434
1207.00,49.440
1208.00,49.438
1209.00,49.428
1210.00,49.427
1211.00,49.430
1212.00,49.440
1213.00,49.414
1214.00,49.442
1215.00,49.415
1216.00,49.421
1217.00,49.424
1218.00,49.411
1219.00,49.441
1220.00,49.409
1221.00,49.418
1222.00,49.417
1223.00,49.424
1224.00,49.435
1225.00,49.419
1226.00,49.422
1227.00,49.421
1228.00,49.424
1229.00,49.426
1230.00,49.442
1231.00,49.426
1232.00,49.442
1233.00,49.449
1234.00,49.450
1235.00,49.454
1236.00,49.456
1237.00,49.455
1238.00,49.463
1239.00,49.464
1240.00,49.450
1241.00,49.468
1242.00,49.471
1243.00,49.480
1244.00,49.456
1245.00,49.473
1246.00,49.489
1247.00,49.489
1248.00,49.479
1249.00,49.497
1250.00,49.486
1251.00,49.494
1252.00,49.516
1253.00,49.501
1254.00,49.503
1255.00,49.506
1256.00,49.504
1257.00,49.492
1258.00,49.536
1259.00,49.503
1260.00,49.524
1261.00,49.527
1262.00,49.508
1263.00,49.517
1264.00,49.522
1265.00,49.508
1266.00,49.517
1267.00,49.519
1268.00,49.542
1269.00,49.531
1270.00,49.541
1271.00,49.558
1272.00,49.557
1273.00,49.549
1274.00,49.557
1275.00,49.558
1276.00,49.556
1277.00,49.553
1278.00,49.568
1279.00,49.575
1280.00,49.573
1281.00,49.587
1282.00,49.611
1283.00,49.585
1284.00,49.581
1285.00,49.584
1286.00,49.591
1287.00,49.579
1288.00,49.592
1289.00,49.592
1290.00,49.613
1291.00,49.609
1292.00,49.621
1293.00,49.628
1294.00,49.625
1295.00,49.619
1296.00,49.636
1297.00,49.641
1298.00,49.663
1299.00,49.646
1300.00,49.652
1301.00,49.662
1302.00,49.653
1303.00,49.669
1304.00,49.659
1305.00,49.671
1306.00,49.666
1307.00,49.693
1308.00,49.693
1309.00,49.690
1310.00,49.697
1311.00,49.690
1312.00,49.692
1313.00,49.690
1314.00,49.702
1315.00,49.715
1316.00,49.711
1317.00,49.730
1318.00,49.742
1319.00,49.739
1320.00,49.750
1321.00,49.900
1322.00,49.918
1323.00,49.896
1324.00,49.904
1325.00,49.884
1326.00,49.910
1327.00,49.903
1328.00,49.896
1329.00,49.892
1330.00,49.891
1331.00,49.900
1332.00,49.914
1333.00,49.895
1334.00,49.935
1335.00,49.927
1336.00,49.973
1337.00,49.995
1338.00,50.068
1339.00,50.091
1340.00,50.170
1341.00,50.210
1342.00,50.286
1343.00,50.345
1344.00,50.367
1345.00,50.433
1346.00,50.491
1347.00,50.498
1348.00,50.513
1349.00,50.550
1350.00,50.546
1351.00,50.575
1352.00,50.558
1353.00,50.591
1354.00,50.629
1355.00,50.737
1356.00,50.583
1357.00,50.586
1358.00,50.598
1359.00,50.595
1360.00,50.645
1361.00,50.638
1362.00,50.551
1363.00,50.689
1364.00,50.606
1365.00,50.592
1366.00,50.668
1367.00,50.572
1368.00,50.496
1369.00,50.562
1370.00,50.585
1371.00,50.492
1372.00,50.534
1373.00,50.579
1374.00,50.585
1375.00,50.558
1376.00,50.574
1377.00,50.541
1378.00,50.660
1379.00,50.607
1380.00,50.579
1381.00,50.624
1382.00,50.483
1383.00,50.531
1384.00,50.529
1385.00,50.497
1386.00,50.599
1387.00,50.533
1388.00,50.526
1389.00,50.569
1390.00,50.630
1391.00,50.527
1392.00,50.525
1393.00,50.615
1394.00,50.546
1395.00,50.516
1396.00,50.475
1397.00,50.559
1398.00,50.592
1399.00,50.553
1400.00,50.149
1401.00,50.506
1402.00,50.636
1403.00,50.595
1404.00,50.578
1405.00,50.599
1406.00,50.582
1407.00,50.599
1408.00,50.555
1409.00,50.588
1410.00,50.615
1411.00,50.584
1412.00,50.692
1413.00,50.646
1414.00,50.564
1415.00,50.649
1416.00,50.719
1417.00,50.712
1418.00,50.663
1419.00,50.651
1420.00,50.711
1421.00,50.737
1422.00,50.722
1423.00,50.733
1424.00,50.745
1425.00,50.735
1426.00,50.761
1427.00,50.766
1428.00,50.788
1429.00,50.789
1430.00,50.829
1431.00,50.862
1432.00,50.848
1433.00,50.850
1434.00,50.840
1435.00,50.889
1436.00,50.899
1437.00,50.898
1438.00,50.907
1439.00,50.954
1440.00,50.957
1441.00,50.959
1442.00,50.967
1443.00,51.002
1444.00,51.055
1445.00,51.005
1446.00,51.009
1447.00,51.056
1448.00,51.077
1449.00,51.103
1450.00,51.095
1451.00,51.117
1452.00,51.131
1453.00,51.155
1454.00,51.162
1455.00,51.177
1456.00,51.197
1457.00,51.196
1458.00,51.198
1459.00,51.231
1460.00,51.245
1461.00,51.273
1462.00,51.274
1463.00,51.290
1464.00,51.306
1465.00,51.321
1466.00,51.323
1467.00,51.332
1468.00,51.368
1469.00,51.346
1470.00,51.367
1471.00,51.389
1472.00,51.399
1473.00,51.407
1474.00,51.440
1475.00,51.465
1476.00,51.456
1477.00,51.448
1478.00,51.474
1479.00,51.492
1480.00,51.480
1481.00,51.489
1482.00,51.517
1483.00,51.520
1484.00,51.534
1485.00,51.552
1486.00,51.563
1487.00,51.576
1488.00,51.586
1489.00,51.609
1490.00,51.606
1491.00,51.610
1492.00,51.626
1493.00,51.617
1494.00,51.647
1495.00,51.645
1496.00,51.663
1497.00,51.663
1498.00,51.672
1499.00,51.688
1500.00,51.713
1501.00, 
1502.00, 
1503.00, 
1504.00, 
1505.00, 
1506.00, 
1507.00, 
1508.00, 
1509.00, 
1510.00, 
1511.00, 
1512.00, 
1513.00, 
1514.00, 
1515.00, 
1516.00, 
1517.00, 
1518.00, 
1519.00, 
1520.00, 
1521.00, 
1522.00, 
1523.00, 
1524.00, 
1525.00, 
1526.00, 
1527.00, 
1528.00, 
1529.00, 
1530.00, 
1531.00, 
1532.00, 
1533.00, 
1534.00, 
1535.00, 
1536.00, 
1537.00, 
1538.00, 
1539.00, 
1540.00, 
1541.00, 
1542.00, 
1543.00, 
1544.00, 
1545.00, 
1546.00, 
1547.00, 
1548.00, 
1549.00, 
1550.00, 
1551.00, 
1552.00, 
1553.00, 
1554.00, 
1555.00, 
1556.00, 
1557.00, 
1558.00, 
1559.00, 
1560.00, 
1561.00, 
1562.00, 
1563.00, 
1564.00, 
1565.00, 
1566.00, 
1567.00, 
1568.00, 
1569.00, 
1570.00, 
1571.00, 
1572.00, 
1573.00, 
1574.00, 
1575.00, 
1576.00, 
1577.00, 
1578.00, 
1579.00, 
1580.00, 
1581.00, 
1582.00, 
1583.00, 
1584.00, 
1585.00, 
1586.00, 
1587.00, 
1588.00, 
1589.00, 
1590.00, 
1591.00, 
1592.00, 
1593.00, 
1594.00, 
1595.00, 
1596.00, 
1597.00, 
1598.00, 
1599.00, 
1600.00, 
1601.00, 
1602.00, 
1603.00, 
1604.00, 
1605.00, 
1606.00, 
1607.00, 
1608.00, 
1609.00, 
1610.00, 
1611.00, 
1612.00, 
1613.00, 
1614.00, 
1615.00, 
1616.00, 
1617.00, 
1618.00, 
1619.00, 
1620.00, 
1621.00, 
1622.00, 
1623.00, 
1624.00, 
1625.00, 
1626.00, 
1627.00, 
1628.00, 
1629.00, 
1630.00, 
1631.00, 
1632.00, 
1633.00, 
1634.00, 
1635.00, 
1636.00, 
1637.00, 
1638.00, 
1639.00, 
1640.00, 
1641.00, 
1642.00, 
1643.00, 
1644.00, 
1645.00, 
1646.00, 
1647.00, 
1648.00, 
1649.00, 
1650.00, 
1651.00, 
1652.00, 
1653.00, 
1654.00, 
1655.00, 
1656.00, 
1657.00, 
1658.00, 
1659.00, 
1660.00, 
1661.00, 
1662.00, 
1663.00, 
1664.00, 
1665.00, 
1666.00, 
1667.00, 
1668.00, 
1669.00, 
1670.00, 
1671.00, 
1672.00, 
1673.00, 
1674.00, 
1675.00, 
1676.00, 
1677.00, 
1678.00, 
1679.00, 
1680.00, 
1681.00, 
1682.00, 
1683.00, 
1684.00, 
1685.00, 
1686.00, 
1687.00, 
1688.00, 
1689.00, 
1690.00, 
1691.00, 
1692.00, 
1693.00, 
1694.00, 
1695.00, 
1696.00, 
1697.00, 
1698.00, 
1699.00, 
1700.00, 
1701.00, 
1702.00, 
1703.00, 
1704.00, 
1705.00, 
1706.00, 
1707.00, 
1708.00, 
1709.00, 
1710.00, 
1711.00, 
1712.00, 
1713.00, 
1714.00, 
1715.00, 
1716.00, 
1717.00, 
1718.00, 
1719.00, 
1720.00, 
1721.00, 
1722.00, 
1723.00, 
1724.00, 
1725.00, 
1726.00, 
1727.00, 
1728.00, 
1729.00, 
1730.00, 
1731.00, 
1732.00, 
1733.00, 
1734.00, 
1735.00, 
1736.00, 
1737.00, 
1738.00, 
1739.00, 
1740.00, 
1741.00, 
1742.00, 
1743.00, 
1744.00, 
1745.00, 
1746.00, 
1747.00, 
1748.00, 
1749.00, 
1750.00, 
1751.00, 
1752.00, 
1753.00, 
1754.00, 
1755.00, 
1756.00, 
1757.00, 
1758.00, 
1759.00, 
1760.00, 
1761.00, 
1762.00, 
1763.00, 
1764.00, 
1765.00, 
1766.00, 
1767.00, 
1768.00, 
1769.00, 
1770.00, 
1771.00, 
1772.00, 
1773.00, 
1774.00, 
1775.00, 
1776.00, 
1777.00, 
1778.00, 
1779.00, 
1780.00, 
1781.00, 
1782.00, 
1783.00, 
1784.00, 
1785.00, 
1786.00, 
1787.00, 
1788.00, 
1789.00, 
1790.00, 
1791.00, 
1792.00, 
1793.00, 
1794.00, 
1795.00, 
1796.00, 
1797.00, 
1798.00, 
1799.00, 
1800.00, 
1801.00, 
1802.00, 
1803.00, 
1804.00, 
1805.00, 
1806.00, 
1807.00, 
1808.00, 
1809.00, 
1810.00, 
1811.00, 
1812.00, 
1813.00, 
1814.00, 
1815.00, 
1816.00, 
1817.00, 
1818.00, 
1819.00, 
1820.00, 
1821.00, 
1822.00, 
1823.00, 
1824.00, 
1825.00, 
1826.00, 
1827.00, 
1828.00, 
1829.00, 
1830.00, 
1831.00, 
1832.00, 
1833.00, 
1834.00, 
1835.00, 
1836.00, 
1837.00, 
1838.00, 
1839.00, 
1840.00, 
1841.00, 
1842.00, 
1843.00, 
1844.00, 
1845.00, 
1846.00, 
1847.00, 
1848.00, 
1849.00, 
1850.00, 
1851.00, 
1852.00, 
1853.00, 
1854.00, 
1855.00, 
1856.00, 
1857.00, 
1858.00, 
1859.00, 
1860.00, 
1861.00, 
1862.00, 
1863.00, 
1864.00, 
1865.00, 
1866.00, 
1867.00, 
1868.00, 
1869.00, 
1870.00, 
1871.00, 
1872.00, 
1873.00, 
1874.00, 
1875.00, 
1876.00, 
1877.00, 
1878.00, 
1879.00, 
1880.00, 
1881.00, 
1882.00, 
1883.00, 
1884.00, 
1885.00, 
1886.00, 
1887.00, 
1888.00, 
1889.00, 
1890.00, 
1891.00, 
1892.00, 
1893.00, 
1894.00, 
1895.00, 
1896.00, 
1897.00, 
1898.00, 
1899.00, 
1900.00, 
1901.00, 
1902.00, 
1903.00, 
1904.00, 
1905.00, 
1906.00, 
1907.00, 
1908.00, 
1909.00, 
1910.00, 
1911.00, 
1912.00, 
1913.00, 
1914.00, 
1915.00, 
1916.00, 
1917.00, 
1918.00, 
1919.00, 
1920.00, 
1921.00, 
1922.00, 
1923.00, 
1924.00, 
1925.00, 
1926.00, 
1927.00, 
1928.00, 
1929.00, 
1930.00, 
1931.00, 
1932.00, 
1933.00, 
1934.00, 
1935.00, 
1936.00, 
1937.00, 
1938.00, 
1939.00, 
1940.00, 
1941.00, 
1942.00, 
1943.00, 
1944.00, 
1945.00, 
1946.00, 
1947.00, 
1948.00, 
1949.00, 
1950.00, 
1951.00, 
1952.00, 
1953.00, 
1954.00, 
1955.00, 
1956.00, 
1957.00, 
1958.00, 
1959.00, 
1960.00, 
1961.00, 
1962.00, 
1963.00, 
1964.00, 
1965.00, 
1966.00, 
1967.00, 
1968.00, 
1969.00, 
1970.00, 
1971.00, 
1972.00, 
1973.00, 
1974.00, 
1975.00, 
1976.00, 
1977.00, 
1978.00, 
1979.00, 
1980.00, 
1981.00, 
1982.00, 
1983.00, 
1984.00, 
1985.00, 
1986.00, 
1987.00, 
1988.00, 
1989.00, 
1990.00, 
1991.00, 
1992.00, 
1993.00, 
1994.00, 
1995.00, 
1996.00, 
1997.00, 
1998.00, 
1999.00, 
2000.00, 
2001.00, 
2002.00, 
2003.00, 
2004.00, 
2005.00, 
2006.00, 
2007.00, 
2008.00, 
2009.00, 
2010.00, 
2011.00, 
2012.00, 
2013.00, 
2014.00, 
2015.00, 
2016.00, 
2017.00, 
2018.00, 
2019.00, 
2020.00, 
2021.00, 
2022.00, 
2023.00, 
2024.00, 
2025.00, 
2026.00, 
2027.00, 
2028.00, 
2029.00, 
2030.00, 
2031.00, 
2032.00, 
2033.00, 
2034.00, 
2035.00, 
2036.00, 
2037.00, 
2038.00, 
2039.00, 
2040.00, 
2041.00, 
2042.00, 
2043.00, 
2044.00, 
2045.00, 
2046.00, 
2047.00, 
2048.00, 
2049.00, 
2050.00, 
2051.00, 
2052.00, 
2053.00, 
2054.00, 
2055.00, 
2056.00, 
2057.00, 
2058.00, 
2059.00, 
2060.00, 
2061.00, 
2062.00, 
2063.00, 
2064.00, 
2065.00, 
2066.00, 
2067.00, 
2068.00, 
2069.00, 
2070.00, 
2071.00, 
2072.00, 
2073.00, 
2074.00, 
2075.00, 
2076.00, 
2077.00, 
2078.00, 
2079.00, 
2080.00, 
2081.00, 
2082.00, 
2083.00, 
2084.00, 
2085.00, 
2086.00, 
2087.00, 
2088.00, 
2089.00, 
2090.00, 
2091.00, 
2092.00, 
2093.00, 
2094.00, 
2095.00, 
2096.00, 
2097.00, 
2098.00, 
2099.00, 
2100.00, 
2101.00, 
2102.00, 
2103.00, 
2104.00, 
2105.00, 
2106.00, 
2107.00, 
2108.00, 
2109.00, 
2110.00, 
2111.00, 
2112.00, 
2113.00, 
2114.00, 
2115.00, 
2116.00, 
2117.00, 
2118.00, 
2119.00, 
2120.00, 
2121.00, 
2122.00, 
2123.00, 
2124.00, 
2125.00, 
2126.00, 
2127.00, 
2128.00, 
2129.00, 
2130.00, 
2131.00, 
2132.00, 
2133.00, 
2134.00, 
2135.00, 
2136.00, 
2137.00, 
2138.00, 
2139.00, 
2140.00, 
2141.00, 
2142.00, 
2143.00, 
2144.00, 
2145.00, 
2146.00, 
2147.00, 
2148.00, 
2149.00, 
2150.00, 
2151.00, 
2152.00, 
2153.00, 
2154.00, 
2155.00, 
2156.00, 
2157.00, 
2158.00, 
2159.00, 
2160.00, 
2161.00, 
2162.00, 
2163.00, 
2164.00, 
2165.00, 
2166.00, 
2167.00, 
2168.00, 
2169.00, 
2170.00, 
2171.00, 
2172.00, 
2173.00, 
2174.00, 
2175.00, 
2176.00, 
2177.00, 
2178.00, 
2179.00, 
2180.00, 
2181.00, 
2182.00, 
2183.00, 
2184.00, 
2185.00, 
2186.00, 
2187.00, 
2188.00, 
2189.00, 
2190.00, 
2191.00, 
2192.00, 
2193.00, 
2194.00, 
2195.00, 
2196.00, 
2197.00, 
2198.00, 
2199.00, 
2200.00, 
2201.00, 
2202.00, 
2203.00, 
2204.00, 
2205.00, 
2206.00, 
2207.00, 
2208.00, 
2209.00, 
2210.00, 
2211.00, 
2212.00, 
2213.00, 
2214.00, 
2215.00, 
2216.00, 
2217.00, 
2218.00, 
2219.00, 
2220.00, 
2221.00, 
2222.00, 
2223.00, 
2224.00, 
2225.00, 
2226.00, 
2227.00, 
2228.00, 
2229.00, 
2230.00, 
2231.00, 
2232.00, 
2233.00, 
2234.00, 
2235.00, 
2236.00, 
2237.00, 
2238.00, 
2239.00, 
2240.00, 
2241.00, 
2242.00, 
2243.00, 
2244.00, 
2245.00, 
2246.00, 
2247.00, 
2248.00, 
2249.00, 
2250.00, 
2251.00, 
2252.00, 
2253.00, 
2254.00, 
2255.00, 
2256.00, 
2257.00, 
2258.00, 
2259.00, 
2260.00, 
2261.00, 
2262.00, 
2263.00, 
2264.00, 
2265.00, 
2266.00, 
2267.00, 
2268.00, 
2269.00, 
2270.00, 
2271.00, 
2272.00, 
2273.00, 
2274.00, 
2275.00, 
2276.00, 
2277.00, 
2278.00, 
2279.00, 
2280.00, 
2281.00, 
2282.00, 
2283.00, 
2284.00, 
2285.00, 
2286.00, 
2287.00, 
2288.00, 
2289.00, 
2290.00, 
2291.00, 
2292.00, 
2293.00, 
2294.00, 
2295.00, 
2296.00, 
2297.00, 
2298.00, 
2299.00, 
2300.00, 
2301.00, 
2302.00, 
2303.00, 
2304.00, 
2305.00, 
2306.00, 
2307.00, 
2308.00, 
2309.00, 
2310.00, 
2311.00, 
2312.00, 
2313.00, 
2314.00, 
2315.00, 
2316.00, 
2317.00, 
2318.00, 
2319.00, 
2320.00, 
2321.00, 
2322.00, 
2323.00, 
2324.00, 
2325.00, 
2326.00, 
2327.00, 
2328.00, 
2329.00, 
2330.00, 
2331.00, 
2332.00, 
2333.00, 
2334.00, 
2335.00, 
2336.00, 
2337.00, 
2338.00, 
2339.00, 
2340.00, 
2341.00, 
2342.00, 
2343.00, 
2344.00, 
2345.00, 
2346.00, 
2347.00, 
2348.00, 
2349.00, 
2350.00, 
2351.00, 
2352.00, 
2353.00, 
2354.00, 
2355.00, 
2356.00, 
2357.00, 
2358.00, 
2359.00, 
2360.00, 
2361.00, 
2362.00, 
2363.00, 
2364.00, 
2365.00, 
2366.00, 
2367.00, 
2368.00, 
2369.00, 
2370.00, 
2371.00, 
2372.00, 
2373.00, 
2374.00, 
2375.00, 
2376.00, 
2377.00, 
2378.00, 
2379.00, 
2380.00, 
2381.00, 
2382.00, 
2383.00, 
2384.00, 
2385.00, 
2386.00, 
2387.00, 
2388.00, 
2389.00, 
2390.00, 
2391.00, 
2392.00, 
2393.00, 
2394.00, 
2395.00, 
2396.00, 
2397.00, 
2398.00, 
2399.00, 
2400.00, 
2401.00, 
2402.00, 
2403.00, 
2404.00, 
2405.00, 
2406.00, 
2407.00, 
2408.00, 
2409.00, 
2410.00, 
2411.00, 
2412.00, 
2413.00, 
2414.00, 
2415.00, 
2416.00, 
2417.00, 
2418.00, 
2419.00, 
2420.00, 
2421.00, 
2422.00, 
2423.00, 
2424.00, 
2425.00, 
2426.00, 
2427.00, 
2428.00, 
2429.00, 
2430.00, 
2431.00, 
2432.00, 
2433.00, 
2434.00, 
2435.00, 
2436.00, 
2437.00, 
2438.00, 
2439.00, 
2440.00, 
2441.00, 
2442.00, 
2443.00, 
2444.00, 
2445.00, 
2446.00, 
2447.00, 
2448.00, 
2449.00, 
2450.00, 
2451.00, 
2452.00, 
2453.00, 
2454.00, 
2455.00, 
2456.00, 
2457.00, 
2458.00, 
2459.00, 
2460.00, 
2461.00, 
2462.00, 
2463.00, 
2464.00, 
2465.00, 
2466.00, 
2467.00, 
2468.00, 
2469.00, 
2470.00, 
2471.00, 
2472.00, 
2473.00, 
2474.00, 
2475.00, 
2476.00, 
2477.00, 
2478.00, 
2479.00, 
2480.00, 
2481.00, 
2482.00, 
2483.00, 
2484.00, 
2485.00, 
2486.00, 
2487.00, 
2488.00, 
2489.00, 
2490.00, 
2491.00, 
2492.00, 
2493.00, 
2494.00, 
2495.00, 
2496.00, 
2497.00, 
2498.00, 
2499.00, 
2500.00, 
2501.00, 
2502.00, 
2503.00, 
2504.00, 
2505.00, 
2506.00, 
2507.00, 
2508.00, 
2509.00, 
2510.00, 
2511.00, 
2512.00, 
2513.00, 
2514.00, 
2515.00, 
2516.00, 
2517.00, 
2518.00, 
2519.00, 
2520.00, 
2521.00, 
2522.00, 
2523.00, 
2524.00, 
2525.00, 
2526.00, 
2527.00, 
2528.00, 
2529.00, 
2530.00, 
2531.00, 
2532.00, 
2533.00, 
2534.00, 
2535.00, 
2536.00, 
2537.00, 
2538.00, 
2539.00, 
2540.00, 
2541.00, 
2542.00, 
2543.00, 
2544.00, 
2545.00, 
2546.00, 
2547.00, 
2548.00, 
2549.00, 
2550.00, 
2551.00, 
2552.00, 
2553.00, 
2554.00, 
2555.00, 
2556.00, 
2557.00, 
2558.00, 
2559.00, 
2560.00, 
2561.00, 
2562.00, 
2563.00, 
2564.00, 
2565.00, 
2566.00, 
2567.00, 
2568.00, 
2569.00, 
2570.00, 
2571.00, 
2572.00, 
2573.00, 
2574.00, 
2575.00, 
2576.00, 
2577.00, 
2578.00, 
2579.00, 
2580.00, 
2581.00, 
2582.00, 
2583.00, 
2584.00, 
2585.00, 
2586.00, 
2587.00, 
2588.00, 
2589.00, 
2590.00, 
2591.00, 
2592.00, 
2593.00, 
2594.00, 
2595.00, 
2596.00, 
2597.00, 
2598.00, 
2599.00, 
2600.00, 
