"2cP4 - RawData"
"Wavelength nm.","T%"
200.00,-0.002
201.00,0.002
202.00,0.003
203.00,0.001
204.00,0.002
205.00,0.001
206.00,0.003
207.00,0.001
208.00,-0.000
209.00,0.000
210.00,0.003
211.00,0.000
212.00,0.002
213.00,0.000
214.00,-0.001
215.00,0.004
216.00,0.000
217.00,0.003
218.00,-0.001
219.00,0.002
220.00,0.003
221.00,0.001
222.00,-0.001
223.00,0.000
224.00,0.000
225.00,0.002
226.00,0.002
227.00,0.001
228.00,0.001
229.00,0.002
230.00,-0.001
231.00,0.002
232.00,0.003
233.00,-0.000
234.00,0.000
235.00,-0.000
236.00,0.002
237.00,0.001
238.00,0.000
239.00,-0.001
240.00,0.000
241.00,-0.000
242.00,-0.001
243.00,0.001
244.00,0.002
245.00,0.000
246.00,0.000
247.00,0.002
248.00,0.001
249.00,0.002
250.00,0.002
251.00,0.001
252.00,0.000
253.00,0.002
254.00,-0.000
255.00,0.000
256.00,0.002
257.00,-0.001
258.00,0.001
259.00,-0.001
260.00,0.002
261.00,0.001
262.00,0.001
263.00,0.000
264.00,-0.001
265.00,0.001
266.00,-0.000
267.00,-0.000
268.00,0.001
269.00,0.000
270.00,-0.000
271.00,0.002
272.00,-0.001
273.00,0.001
274.00,0.000
275.00,0.000
276.00,-0.000
277.00,-0.001
278.00,0.001
279.00,0.001
280.00,-0.000
281.00,0.001
282.00,-0.003
283.00,-0.000
284.00,-0.000
285.00,0.002
286.00,0.000
287.00,0.001
288.00,0.001
289.00,0.000
290.00,0.000
291.00,-0.001
292.00,0.002
293.00,0.002
294.00,0.001
295.00,-0.000
296.00,-0.000
297.00,0.000
298.00,0.001
299.00,0.002
300.00,0.001
301.00,0.002
302.00,0.004
303.00,0.008
304.00,0.009
305.00,0.015
306.00,0.023
307.00,0.036
308.00,0.054
309.00,0.083
310.00,0.116
311.00,0.159
312.00,0.215
313.00,0.295
314.00,0.388
315.00,0.503
316.00,0.639
317.00,0.811
318.00,0.991
319.00,1.224
320.00,1.503
321.00,1.783
322.00,2.068
323.00,2.482
324.00,2.875
325.00,3.277
326.00,3.703
327.00,4.189
328.00,4.665
329.00,5.154
330.00,5.676
331.00,6.204
332.00,6.733
333.00,7.294
334.00,7.822
335.00,8.375
336.00,8.939
337.00,9.499
338.00,10.027
339.00,10.533
340.00,11.021
341.00,11.496
342.00,11.991
343.00,12.427
344.00,12.866
345.00,13.250
346.00,13.645
347.00,13.986
348.00,14.362
349.00,14.659
350.00,14.944
351.00,15.230
352.00,15.503
353.00,15.742
354.00,15.965
355.00,16.183
356.00,16.400
357.00,16.570
358.00,16.773
359.00,16.947
360.00,17.074
361.00,17.159
362.00,17.176
363.00,17.412
364.00,17.508
365.00,17.577
366.00,17.663
367.00,17.675
368.00,17.728
369.00,17.797
370.00,17.787
371.00,17.817
372.00,17.843
373.00,17.788
374.00,17.801
375.00,17.765
376.00,17.705
377.00,17.659
378.00,17.603
379.00,17.568
380.00,17.557
381.00,17.519
382.00,17.499
383.00,17.514
384.00,17.515
385.00,17.531
386.00,17.540
387.00,17.561
388.00,17.572
389.00,17.573
390.00,17.589
391.00,17.600
392.00,17.613
393.00,17.622
394.00,17.632
395.00,17.661
396.00,17.615
397.00,17.621
398.00,17.633
399.00,17.595
400.00,17.626
401.00,17.608
402.00,17.615
403.00,17.609
404.00,17.587
405.00,17.590
406.00,17.567
407.00,17.553
408.00,17.548
409.00,17.493
410.00,17.488
411.00,17.475
412.00,17.446
413.00,17.446
414.00,17.448
415.00,17.455
416.00,17.518
417.00,17.526
418.00,17.518
419.00,17.590
420.00,17.612
421.00,17.691
422.00,17.676
423.00,17.737
424.00,17.813
425.00,17.778
426.00,17.820
427.00,17.866
428.00,17.908
429.00,17.959
430.00,17.994
431.00,18.060
432.00,18.108
433.00,18.179
434.00,18.226
435.00,18.296
436.00,18.350
437.00,18.420
438.00,18.485
439.00,18.571
440.00,18.641
441.00,18.705
442.00,18.794
443.00,18.873
444.00,18.952
445.00,19.057
446.00,19.161
447.00,19.250
448.00,19.335
449.00,19.450
450.00,19.558
451.00,19.613
452.00,19.751
453.00,19.863
454.00,19.976
455.00,20.065
456.00,20.173
457.00,20.270
458.00,20.439
459.00,20.566
460.00,20.708
461.00,20.813
462.00,20.932
463.00,21.065
464.00,21.219
465.00,21.343
466.00,21.485
467.00,21.615
468.00,21.718
469.00,21.843
470.00,21.929
471.00,22.050
472.00,22.178
473.00,22.287
474.00,22.402
475.00,22.542
476.00,22.626
477.00,22.753
478.00,22.869
479.00,23.082
480.00,23.225
481.00,23.348
482.00,23.525
483.00,23.677
484.00,23.804
485.00,23.994
486.00,24.136
487.00,24.329
488.00,24.444
489.00,24.607
490.00,24.779
491.00,24.945
492.00,25.137
493.00,25.258
494.00,25.297
495.00,25.435
496.00,25.566
497.00,25.698
498.00,25.866
499.00,26.016
500.00,26.147
501.00,26.223
502.00,26.438
503.00,26.550
504.00,26.556
505.00,26.791
506.00,26.943
507.00,27.016
508.00,27.158
509.00,27.310
510.00,27.426
511.00,27.545
512.00,27.719
513.00,27.822
514.00,27.934
515.00,28.090
516.00,28.162
517.00,28.210
518.00,28.505
519.00,28.570
520.00,28.697
521.00,28.758
522.00,28.849
523.00,28.966
524.00,29.014
525.00,29.120
526.00,29.275
527.00,29.359
528.00,29.462
529.00,29.577
530.00,29.708
531.00,29.824
532.00,29.914
533.00,30.040
534.00,30.127
535.00,30.219
536.00,30.304
537.00,30.354
538.00,30.430
539.00,30.533
540.00,30.648
541.00,30.704
542.00,30.730
543.00,30.822
544.00,30.920
545.00,30.979
546.00,31.030
547.00,31.159
548.00,31.212
549.00,31.296
550.00,31.385
551.00,31.471
552.00,31.547
553.00,31.620
554.00,31.757
555.00,31.774
556.00,31.827
557.00,31.925
558.00,31.977
559.00,32.019
560.00,32.129
561.00,32.165
562.00,32.235
563.00,32.261
564.00,32.333
565.00,32.400
566.00,32.377
567.00,32.444
568.00,32.457
569.00,32.508
570.00,32.552
571.00,32.622
572.00,32.665
573.00,32.717
574.00,32.795
575.00,32.794
576.00,32.788
577.00,32.909
578.00,32.928
579.00,33.007
580.00,33.112
581.00,33.177
582.00,33.275
583.00,33.320
584.00,33.448
585.00,33.469
586.00,33.478
587.00,33.598
588.00,33.630
589.00,33.646
590.00,33.726
591.00,33.763
592.00,33.766
593.00,33.784
594.00,33.897
595.00,33.939
596.00,34.017
597.00,34.062
598.00,34.138
599.00,34.198
600.00,34.242
601.00,34.284
602.00,34.329
603.00,34.373
604.00,34.442
605.00,34.522
606.00,34.612
607.00,34.651
608.00,34.699
609.00,34.730
610.00,34.727
611.00,34.749
612.00,34.835
613.00,34.909
614.00,34.968
615.00,35.014
616.00,35.087
617.00,35.103
618.00,35.249
619.00,35.319
620.00,35.345
621.00,35.404
622.00,35.473
623.00,35.540
624.00,35.643
625.00,35.701
626.00,35.738
627.00,35.846
628.00,35.890
629.00,35.949
630.00,35.985
631.00,36.068
632.00,36.148
633.00,36.235
634.00,36.407
635.00,36.450
636.00,36.547
637.00,36.686
638.00,36.750
639.00,36.863
640.00,36.921
641.00,36.946
642.00,37.071
643.00,37.138
644.00,37.275
645.00,37.335
646.00,37.478
647.00,37.532
648.00,37.629
649.00,37.764
650.00,37.789
651.00,37.935
652.00,38.042
653.00,38.137
654.00,38.199
655.00,38.317
656.00,38.477
657.00,38.512
658.00,38.707
659.00,38.824
660.00,38.920
661.00,38.962
662.00,39.152
663.00,39.188
664.00,39.424
665.00,39.458
666.00,39.489
667.00,39.722
668.00,39.793
669.00,39.917
670.00,40.063
671.00,40.176
672.00,40.106
673.00,40.382
674.00,40.441
675.00,40.512
676.00,40.814
677.00,40.884
678.00,40.777
679.00,40.993
680.00,41.153
681.00,41.186
682.00,41.392
683.00,41.544
684.00,41.619
685.00,41.773
686.00,41.778
687.00,42.008
688.00,42.085
689.00,42.145
690.00,42.320
691.00,42.468
692.00,42.437
693.00,42.492
694.00,42.658
695.00,42.684
696.00,42.866
697.00,43.048
698.00,43.081
699.00,43.409
700.00,43.550
701.00,43.490
702.00,43.672
703.00,43.836
704.00,43.888
705.00,43.851
706.00,44.116
707.00,44.211
708.00,44.113
709.00,44.479
710.00,44.561
711.00,44.405
712.00,44.578
713.00,44.536
714.00,44.658
715.00,45.014
716.00,45.055
717.00,45.058
718.00,45.141
719.00,45.264
720.00,45.404
721.00,49.660
722.00,49.638
723.00,49.687
724.00,49.658
725.00,49.750
726.00,49.751
727.00,49.843
728.00,49.909
729.00,49.953
730.00,49.989
731.00,50.099
732.00,50.097
733.00,50.195
734.00,50.292
735.00,50.279
736.00,50.320
737.00,50.345
738.00,50.503
739.00,50.505
740.00,50.616
741.00,50.606
742.00,50.670
743.00,50.697
744.00,50.687
745.00,50.774
746.00,50.797
747.00,50.759
748.00,50.865
749.00,50.825
750.00,50.810
751.00,50.798
752.00,50.947
753.00,50.928
754.00,50.970
755.00,51.026
756.00,51.081
757.00,51.101
758.00,51.103
759.00,51.159
760.00,51.135
761.00,51.126
762.00,51.194
763.00,51.267
764.00,51.211
765.00,51.296
766.00,51.364
767.00,51.425
768.00,51.481
769.00,51.321
770.00,51.507
771.00,51.498
772.00,51.543
773.00,51.584
774.00,51.532
775.00,51.622
776.00,51.519
777.00,51.568
778.00,51.575
779.00,51.714
780.00,51.614
781.00,51.660
782.00,51.719
783.00,51.659
784.00,51.600
785.00,51.646
786.00,51.683
787.00,51.735
788.00,51.724
789.00,51.779
790.00,51.655
791.00,51.729
792.00,51.781
793.00,51.724
794.00,51.764
795.00,51.646
796.00,51.737
797.00,51.725
798.00,51.722
799.00,51.702
800.00,51.679
801.00,51.700
802.00,51.754
803.00,51.727
804.00,51.659
805.00,51.694
806.00,51.678
807.00,51.719
808.00,51.752
809.00,51.659
810.00,51.696
811.00,51.588
812.00,51.709
813.00,51.674
814.00,51.605
815.00,51.661
816.00,51.654
817.00,51.618
818.00,51.605
819.00,51.503
820.00,51.594
821.00,51.623
822.00,51.683
823.00,51.473
824.00,51.566
825.00,51.529
826.00,51.587
827.00,51.634
828.00,51.545
829.00,51.552
830.00,51.568
831.00,53.691
832.00,53.697
833.00,53.658
834.00,53.688
835.00,53.595
836.00,53.683
837.00,53.599
838.00,53.601
839.00,53.603
840.00,53.559
841.00,53.561
842.00,53.544
843.00,53.540
844.00,53.539
845.00,53.489
846.00,53.507
847.00,53.486
848.00,53.471
849.00,53.411
850.00,53.418
851.00,53.367
852.00,53.370
853.00,53.356
854.00,53.314
855.00,53.272
856.00,53.292
857.00,53.226
858.00,53.230
859.00,53.187
860.00,53.167
861.00,53.174
862.00,53.138
863.00,53.151
864.00,53.129
865.00,53.141
866.00,53.096
867.00,53.124
868.00,53.113
869.00,53.100
870.00,53.115
871.00,53.108
872.00,53.101
873.00,53.075
874.00,53.089
875.00,53.062
876.00,53.052
877.00,52.979
878.00,53.167
879.00,53.017
880.00,52.999
881.00,52.961
882.00,53.005
883.00,52.979
884.00,52.931
885.00,52.931
886.00,52.950
887.00,52.915
888.00,52.878
889.00,52.860
890.00,52.826
891.00,52.848
892.00,52.797
893.00,52.767
894.00,52.779
895.00,52.731
896.00,52.715
897.00,52.696
898.00,52.698
899.00,52.678
900.00,52.701
901.00,52.671
902.00,52.668
903.00,52.633
904.00,52.603
905.00,52.680
906.00,52.585
907.00,52.552
908.00,52.542
909.00,52.517
910.00,52.497
911.00,52.519
912.00,52.517
913.00,52.437
914.00,52.439
915.00,52.426
916.00,52.390
917.00,52.379
918.00,52.379
919.00,52.343
920.00,52.267
921.00,52.283
922.00,52.305
923.00,52.260
924.00,52.261
925.00,52.240
926.00,52.253
927.00,52.211
928.00,52.198
929.00,52.181
930.00,52.148
931.00,52.149
932.00,52.100
933.00,52.189
934.00,52.112
935.00,52.055
936.00,52.046
937.00,52.039
938.00,52.030
939.00,52.023
940.00,51.997
941.00,51.968
942.00,51.958
943.00,51.944
944.00,51.907
945.00,51.907
946.00,51.901
947.00,51.885
948.00,51.844
949.00,51.828
950.00,51.828
951.00,51.792
952.00,51.771
953.00,51.746
954.00,51.715
955.00,51.685
956.00,51.699
957.00,51.643
958.00,51.654
959.00,51.605
960.00,51.585
961.00,51.567
962.00,51.571
963.00,51.526
964.00,51.519
965.00,51.508
966.00,51.518
967.00,51.510
968.00,51.471
969.00,51.512
970.00,51.467
971.00,51.490
972.00,51.455
973.00,51.493
974.00,51.501
975.00,51.475
976.00,51.487
977.00,51.461
978.00,51.536
979.00,51.570
980.00,51.496
981.00,51.506
982.00,51.465
983.00,51.486
984.00,51.460
985.00,51.478
986.00,51.424
987.00,51.440
988.00,51.424
989.00,51.413
990.00,51.397
991.00,51.396
992.00,51.401
993.00,51.344
994.00,51.369
995.00,51.355
996.00,51.337
997.00,51.342
998.00,51.297
999.00,51.327
1000.00,51.267
1001.00,51.277
1002.00,51.280
1003.00,51.250
1004.00,51.244
1005.00,51.209
1006.00,51.228
1007.00,51.182
1008.00,51.202
1009.00,51.204
1010.00,51.169
1011.00,51.163
1012.00,51.122
1013.00,51.141
1014.00,51.083
1015.00,51.097
1016.00,51.051
1017.00,51.058
1018.00,51.058
1019.00,51.035
1020.00,51.023
1021.00,51.009
1022.00,51.022
1023.00,50.961
1024.00,50.982
1025.00,50.958
1026.00,50.929
1027.00,50.921
1028.00,50.908
1029.00,50.904
1030.00,50.860
1031.00,50.864
1032.00,50.833
1033.00,50.833
1034.00,50.784
1035.00,50.749
1036.00,50.730
1037.00,50.726
1038.00,50.719
1039.00,50.679
1040.00,50.682
1041.00,50.653
1042.00,50.639
1043.00,50.611
1044.00,50.676
1045.00,50.632
1046.00,50.621
1047.00,50.631
1048.00,50.646
1049.00,50.643
1050.00,50.652
1051.00,50.682
1052.00,50.696
1053.00,50.692
1054.00,50.692
1055.00,50.742
1056.00,50.728
1057.00,50.739
1058.00,50.727
1059.00,50.715
1060.00,50.722
1061.00,50.700
1062.00,50.696
1063.00,50.710
1064.00,50.675
1065.00,50.687
1066.00,50.680
1067.00,50.665
1068.00,50.680
1069.00,50.638
1070.00,50.641
1071.00,50.619
1072.00,50.632
1073.00,50.591
1074.00,50.603
1075.00,50.587
1076.00,50.580
1077.00,50.566
1078.00,50.538
1079.00,50.539
1080.00,50.536
1081.00,50.525
1082.00,50.502
1083.00,50.510
1084.00,50.511
1085.00,50.491
1086.00,50.490
1087.00,50.479
1088.00,50.467
1089.00,50.457
1090.00,50.454
1091.00,50.441
1092.00,50.430
1093.00,50.411
1094.00,50.390
1095.00,50.392
1096.00,50.379
1097.00,50.368
1098.00,50.384
1099.00,50.381
1100.00,50.354
1101.00,50.337
1102.00,50.341
1103.00,50.343
1104.00,50.326
1105.00,50.295
1106.00,50.294
1107.00,50.287
1108.00,50.275
1109.00,50.280
1110.00,50.263
1111.00,50.253
1112.00,50.248
1113.00,50.235
1114.00,50.228
1115.00,50.231
1116.00,50.232
1117.00,50.204
1118.00,50.208
1119.00,50.186
1120.00,50.175
1121.00,50.182
1122.00,50.156
1123.00,50.144
1124.00,50.146
1125.00,50.122
1126.00,50.124
1127.00,50.119
1128.00,50.135
1129.00,50.112
1130.00,50.106
1131.00,50.108
1132.00,50.112
1133.00,50.116
1134.00,50.100
1135.00,50.077
1136.00,50.067
1137.00,50.064
1138.00,50.065
1139.00,50.067
1140.00,50.049
1141.00,50.033
1142.00,50.039
1143.00,50.057
1144.00,50.022
1145.00,50.022
1146.00,50.022
1147.00,50.017
1148.00,50.004
1149.00,50.014
1150.00,50.002
1151.00,50.011
1152.00,49.986
1153.00,49.983
1154.00,49.978
1155.00,49.980
1156.00,49.967
1157.00,49.977
1158.00,49.951
1159.00,49.959
1160.00,49.958
1161.00,49.974
1162.00,49.978
1163.00,49.946
1164.00,49.946
1165.00,49.952
1166.00,49.940
1167.00,49.944
1168.00,49.962
1169.00,49.944
1170.00,49.949
1171.00,49.925
1172.00,49.934
1173.00,49.918
1174.00,49.924
1175.00,49.916
1176.00,49.934
1177.00,49.928
1178.00,49.917
1179.00,49.927
1180.00,49.923
1181.00,49.927
1182.00,49.921
1183.00,49.905
1184.00,49.906
1185.00,49.920
1186.00,49.914
1187.00,49.927
1188.00,49.908
1189.00,49.913
1190.00,49.905
1191.00,49.902
1192.00,49.921
1193.00,49.895
1194.00,49.909
1195.00,49.875
1196.00,49.892
1197.00,49.888
1198.00,49.887
1199.00,49.880
1200.00,49.877
1201.00,49.892
1202.00,49.865
1203.00,49.879
1204.00,49.870
1205.00,49.900
1206.00,49.884
1207.00,49.887
1208.00,49.878
1209.00,49.868
1210.00,49.865
1211.00,49.858
1212.00,49.873
1213.00,49.839
1214.00,49.857
1215.00,49.839
1216.00,49.846
1217.00,49.859
1218.00,49.843
1219.00,49.874
1220.00,49.855
1221.00,49.859
1222.00,49.855
1223.00,49.868
1224.00,49.864
1225.00,49.837
1226.00,49.848
1227.00,49.844
1228.00,49.867
1229.00,49.857
1230.00,49.893
1231.00,49.889
1232.00,49.900
1233.00,49.904
1234.00,49.912
1235.00,49.896
1236.00,49.898
1237.00,49.909
1238.00,49.908
1239.00,49.903
1240.00,49.883
1241.00,49.909
1242.00,49.909
1243.00,49.918
1244.00,49.895
1245.00,49.926
1246.00,49.931
1247.00,49.925
1248.00,49.933
1249.00,49.933
1250.00,49.945
1251.00,49.925
1252.00,49.944
1253.00,49.938
1254.00,49.940
1255.00,49.942
1256.00,49.916
1257.00,49.904
1258.00,49.945
1259.00,49.935
1260.00,49.949
1261.00,49.955
1262.00,49.935
1263.00,49.946
1264.00,49.963
1265.00,49.953
1266.00,49.958
1267.00,49.970
1268.00,49.978
1269.00,49.982
1270.00,49.977
1271.00,49.980
1272.00,49.987
1273.00,49.986
1274.00,49.984
1275.00,49.999
1276.00,49.997
1277.00,50.007
1278.00,50.026
1279.00,50.018
1280.00,50.024
1281.00,50.043
1282.00,50.052
1283.00,50.038
1284.00,50.028
1285.00,50.015
1286.00,50.042
1287.00,50.018
1288.00,50.040
1289.00,50.026
1290.00,50.046
1291.00,50.034
1292.00,50.042
1293.00,50.052
1294.00,50.078
1295.00,50.071
1296.00,50.062
1297.00,50.079
1298.00,50.114
1299.00,50.082
1300.00,50.087
1301.00,50.079
1302.00,50.095
1303.00,50.111
1304.00,50.094
1305.00,50.109
1306.00,50.108
1307.00,50.129
1308.00,50.142
1309.00,50.145
1310.00,50.153
1311.00,50.154
1312.00,50.150
1313.00,50.152
1314.00,50.159
1315.00,50.167
1316.00,50.165
1317.00,50.171
1318.00,50.177
1319.00,50.182
1320.00,50.184
1321.00,50.352
1322.00,50.360
1323.00,50.345
1324.00,50.339
1325.00,50.334
1326.00,50.342
1327.00,50.358
1328.00,50.362
1329.00,50.338
1330.00,50.332
1331.00,50.327
1332.00,50.331
1333.00,50.319
1334.00,50.358
1335.00,50.350
1336.00,50.395
1337.00,50.410
1338.00,50.483
1339.00,50.525
1340.00,50.594
1341.00,50.641
1342.00,50.709
1343.00,50.762
1344.00,50.805
1345.00,50.855
1346.00,50.917
1347.00,50.946
1348.00,50.941
1349.00,50.981
1350.00,50.989
1351.00,51.013
1352.00,51.007
1353.00,51.094
1354.00,51.063
1355.00,51.012
1356.00,51.051
1357.00,51.040
1358.00,51.059
1359.00,51.029
1360.00,51.104
1361.00,51.068
1362.00,50.986
1363.00,51.163
1364.00,51.054
1365.00,51.031
1366.00,51.128
1367.00,51.027
1368.00,50.942
1369.00,51.018
1370.00,51.044
1371.00,50.981
1372.00,50.986
1373.00,51.007
1374.00,51.022
1375.00,51.001
1376.00,51.014
1377.00,51.000
1378.00,51.093
1379.00,51.069
1380.00,51.043
1381.00,51.060
1382.00,50.992
1383.00,51.003
1384.00,50.985
1385.00,50.958
1386.00,51.036
1387.00,50.971
1388.00,50.943
1389.00,50.976
1390.00,51.093
1391.00,51.004
1392.00,50.965
1393.00,51.072
1394.00,51.025
1395.00,50.986
1396.00,50.940
1397.00,51.029
1398.00,51.042
1399.00,51.036
1400.00,50.722
1401.00,50.966
1402.00,51.083
1403.00,51.051
1404.00,51.004
1405.00,51.062
1406.00,51.047
1407.00,51.069
1408.00,51.062
1409.00,51.037
1410.00,51.083
1411.00,51.030
1412.00,51.133
1413.00,51.091
1414.00,51.034
1415.00,51.088
1416.00,51.138
1417.00,51.180
1418.00,51.139
1419.00,51.123
1420.00,51.161
1421.00,51.218
1422.00,51.204
1423.00,51.193
1424.00,51.206
1425.00,51.203
1426.00,51.219
1427.00,51.237
1428.00,51.241
1429.00,51.256
1430.00,51.265
1431.00,51.282
1432.00,51.298
1433.00,51.303
1434.00,51.307
1435.00,51.368
1436.00,51.366
1437.00,51.349
1438.00,51.378
1439.00,51.405
1440.00,51.403
1441.00,51.392
1442.00,51.415
1443.00,51.479
1444.00,51.532
1445.00,51.444
1446.00,51.517
1447.00,51.515
1448.00,51.542
1449.00,51.567
1450.00,51.551
1451.00,51.570
1452.00,51.574
1453.00,51.591
1454.00,51.617
1455.00,51.632
1456.00,51.655
1457.00,51.646
1458.00,51.653
1459.00,51.686
1460.00,51.727
1461.00,51.708
1462.00,51.731
1463.00,51.753
1464.00,51.763
1465.00,51.776
1466.00,51.773
1467.00,51.785
1468.00,51.833
1469.00,51.805
1470.00,51.822
1471.00,51.851
1472.00,51.858
1473.00,51.866
1474.00,51.905
1475.00,51.907
1476.00,51.926
1477.00,51.899
1478.00,51.930
1479.00,51.961
1480.00,51.947
1481.00,51.955
1482.00,51.981
1483.00,52.002
1484.00,52.018
1485.00,52.029
1486.00,52.037
1487.00,52.065
1488.00,52.078
1489.00,52.073
1490.00,52.104
1491.00,52.086
1492.00,52.106
1493.00,52.096
1494.00,52.118
1495.00,52.124
1496.00,52.127
1497.00,52.124
1498.00,52.144
1499.00,52.151
1500.00,52.169
1501.00, 
1502.00, 
1503.00, 
1504.00, 
1505.00, 
1506.00, 
1507.00, 
1508.00, 
1509.00, 
1510.00, 
1511.00, 
1512.00, 
1513.00, 
1514.00, 
1515.00, 
1516.00, 
1517.00, 
1518.00, 
1519.00, 
1520.00, 
1521.00, 
1522.00, 
1523.00, 
1524.00, 
1525.00, 
1526.00, 
1527.00, 
1528.00, 
1529.00, 
1530.00, 
1531.00, 
1532.00, 
1533.00, 
1534.00, 
1535.00, 
1536.00, 
1537.00, 
1538.00, 
1539.00, 
1540.00, 
1541.00, 
1542.00, 
1543.00, 
1544.00, 
1545.00, 
1546.00, 
1547.00, 
1548.00, 
1549.00, 
1550.00, 
1551.00, 
1552.00, 
1553.00, 
1554.00, 
1555.00, 
1556.00, 
1557.00, 
1558.00, 
1559.00, 
1560.00, 
1561.00, 
1562.00, 
1563.00, 
1564.00, 
1565.00, 
1566.00, 
1567.00, 
1568.00, 
1569.00, 
1570.00, 
1571.00, 
1572.00, 
1573.00, 
1574.00, 
1575.00, 
1576.00, 
1577.00, 
1578.00, 
1579.00, 
1580.00, 
1581.00, 
1582.00, 
1583.00, 
1584.00, 
1585.00, 
1586.00, 
1587.00, 
1588.00, 
1589.00, 
1590.00, 
1591.00, 
1592.00, 
1593.00, 
1594.00, 
1595.00, 
1596.00, 
1597.00, 
1598.00, 
1599.00, 
1600.00, 
1601.00, 
1602.00, 
1603.00, 
1604.00, 
1605.00, 
1606.00, 
1607.00, 
1608.00, 
1609.00, 
1610.00, 
1611.00, 
1612.00, 
1613.00, 
1614.00, 
1615.00, 
1616.00, 
1617.00, 
1618.00, 
1619.00, 
1620.00, 
1621.00, 
1622.00, 
1623.00, 
1624.00, 
1625.00, 
1626.00, 
1627.00, 
1628.00, 
1629.00, 
1630.00, 
1631.00, 
1632.00, 
1633.00, 
1634.00, 
1635.00, 
1636.00, 
1637.00, 
1638.00, 
1639.00, 
1640.00, 
1641.00, 
1642.00, 
1643.00, 
1644.00, 
1645.00, 
1646.00, 
1647.00, 
1648.00, 
1649.00, 
1650.00, 
1651.00, 
1652.00, 
1653.00, 
1654.00, 
1655.00, 
1656.00, 
1657.00, 
1658.00, 
1659.00, 
1660.00, 
1661.00, 
1662.00, 
1663.00, 
1664.00, 
1665.00, 
1666.00, 
1667.00, 
1668.00, 
1669.00, 
1670.00, 
1671.00, 
1672.00, 
1673.00, 
1674.00, 
1675.00, 
1676.00, 
1677.00, 
1678.00, 
1679.00, 
1680.00, 
1681.00, 
1682.00, 
1683.00, 
1684.00, 
1685.00, 
1686.00, 
1687.00, 
1688.00, 
1689.00, 
1690.00, 
1691.00, 
1692.00, 
1693.00, 
1694.00, 
1695.00, 
1696.00, 
1697.00, 
1698.00, 
1699.00, 
1700.00, 
1701.00, 
1702.00, 
1703.00, 
1704.00, 
1705.00, 
1706.00, 
1707.00, 
1708.00, 
1709.00, 
1710.00, 
1711.00, 
1712.00, 
1713.00, 
1714.00, 
1715.00, 
1716.00, 
1717.00, 
1718.00, 
1719.00, 
1720.00, 
1721.00, 
1722.00, 
1723.00, 
1724.00, 
1725.00, 
1726.00, 
1727.00, 
1728.00, 
1729.00, 
1730.00, 
1731.00, 
1732.00, 
1733.00, 
1734.00, 
1735.00, 
1736.00, 
1737.00, 
1738.00, 
1739.00, 
1740.00, 
1741.00, 
1742.00, 
1743.00, 
1744.00, 
1745.00, 
1746.00, 
1747.00, 
1748.00, 
1749.00, 
1750.00, 
1751.00, 
1752.00, 
1753.00, 
1754.00, 
1755.00, 
1756.00, 
1757.00, 
1758.00, 
1759.00, 
1760.00, 
1761.00, 
1762.00, 
1763.00, 
1764.00, 
1765.00, 
1766.00, 
1767.00, 
1768.00, 
1769.00, 
1770.00, 
1771.00, 
1772.00, 
1773.00, 
1774.00, 
1775.00, 
1776.00, 
1777.00, 
1778.00, 
1779.00, 
1780.00, 
1781.00, 
1782.00, 
1783.00, 
1784.00, 
1785.00, 
1786.00, 
1787.00, 
1788.00, 
1789.00, 
1790.00, 
1791.00, 
1792.00, 
1793.00, 
1794.00, 
1795.00, 
1796.00, 
1797.00, 
1798.00, 
1799.00, 
1800.00, 
1801.00, 
1802.00, 
1803.00, 
1804.00, 
1805.00, 
1806.00, 
1807.00, 
1808.00, 
1809.00, 
1810.00, 
1811.00, 
1812.00, 
1813.00, 
1814.00, 
1815.00, 
1816.00, 
1817.00, 
1818.00, 
1819.00, 
1820.00, 
1821.00, 
1822.00, 
1823.00, 
1824.00, 
1825.00, 
1826.00, 
1827.00, 
1828.00, 
1829.00, 
1830.00, 
1831.00, 
1832.00, 
1833.00, 
1834.00, 
1835.00, 
1836.00, 
1837.00, 
1838.00, 
1839.00, 
1840.00, 
1841.00, 
1842.00, 
1843.00, 
1844.00, 
1845.00, 
1846.00, 
1847.00, 
1848.00, 
1849.00, 
1850.00, 
1851.00, 
1852.00, 
1853.00, 
1854.00, 
1855.00, 
1856.00, 
1857.00, 
1858.00, 
1859.00, 
1860.00, 
1861.00, 
1862.00, 
1863.00, 
1864.00, 
1865.00, 
1866.00, 
1867.00, 
1868.00, 
1869.00, 
1870.00, 
1871.00, 
1872.00, 
1873.00, 
1874.00, 
1875.00, 
1876.00, 
1877.00, 
1878.00, 
1879.00, 
1880.00, 
1881.00, 
1882.00, 
1883.00, 
1884.00, 
1885.00, 
1886.00, 
1887.00, 
1888.00, 
1889.00, 
1890.00, 
1891.00, 
1892.00, 
1893.00, 
1894.00, 
1895.00, 
1896.00, 
1897.00, 
1898.00, 
1899.00, 
1900.00, 
1901.00, 
1902.00, 
1903.00, 
1904.00, 
1905.00, 
1906.00, 
1907.00, 
1908.00, 
1909.00, 
1910.00, 
1911.00, 
1912.00, 
1913.00, 
1914.00, 
1915.00, 
1916.00, 
1917.00, 
1918.00, 
1919.00, 
1920.00, 
1921.00, 
1922.00, 
1923.00, 
1924.00, 
1925.00, 
1926.00, 
1927.00, 
1928.00, 
1929.00, 
1930.00, 
1931.00, 
1932.00, 
1933.00, 
1934.00, 
1935.00, 
1936.00, 
1937.00, 
1938.00, 
1939.00, 
1940.00, 
1941.00, 
1942.00, 
1943.00, 
1944.00, 
1945.00, 
1946.00, 
1947.00, 
1948.00, 
1949.00, 
1950.00, 
1951.00, 
1952.00, 
1953.00, 
1954.00, 
1955.00, 
1956.00, 
1957.00, 
1958.00, 
1959.00, 
1960.00, 
1961.00, 
1962.00, 
1963.00, 
1964.00, 
1965.00, 
1966.00, 
1967.00, 
1968.00, 
1969.00, 
1970.00, 
1971.00, 
1972.00, 
1973.00, 
1974.00, 
1975.00, 
1976.00, 
1977.00, 
1978.00, 
1979.00, 
1980.00, 
1981.00, 
1982.00, 
1983.00, 
1984.00, 
1985.00, 
1986.00, 
1987.00, 
1988.00, 
1989.00, 
1990.00, 
1991.00, 
1992.00, 
1993.00, 
1994.00, 
1995.00, 
1996.00, 
1997.00, 
1998.00, 
1999.00, 
2000.00, 
2001.00, 
2002.00, 
2003.00, 
2004.00, 
2005.00, 
2006.00, 
2007.00, 
2008.00, 
2009.00, 
2010.00, 
2011.00, 
2012.00, 
2013.00, 
2014.00, 
2015.00, 
2016.00, 
2017.00, 
2018.00, 
2019.00, 
2020.00, 
2021.00, 
2022.00, 
2023.00, 
2024.00, 
2025.00, 
2026.00, 
2027.00, 
2028.00, 
2029.00, 
2030.00, 
2031.00, 
2032.00, 
2033.00, 
2034.00, 
2035.00, 
2036.00, 
2037.00, 
2038.00, 
2039.00, 
2040.00, 
2041.00, 
2042.00, 
2043.00, 
2044.00, 
2045.00, 
2046.00, 
2047.00, 
2048.00, 
2049.00, 
2050.00, 
2051.00, 
2052.00, 
2053.00, 
2054.00, 
2055.00, 
2056.00, 
2057.00, 
2058.00, 
2059.00, 
2060.00, 
2061.00, 
2062.00, 
2063.00, 
2064.00, 
2065.00, 
2066.00, 
2067.00, 
2068.00, 
2069.00, 
2070.00, 
2071.00, 
2072.00, 
2073.00, 
2074.00, 
2075.00, 
2076.00, 
2077.00, 
2078.00, 
2079.00, 
2080.00, 
2081.00, 
2082.00, 
2083.00, 
2084.00, 
2085.00, 
2086.00, 
2087.00, 
2088.00, 
2089.00, 
2090.00, 
2091.00, 
2092.00, 
2093.00, 
2094.00, 
2095.00, 
2096.00, 
2097.00, 
2098.00, 
2099.00, 
2100.00, 
2101.00, 
2102.00, 
2103.00, 
2104.00, 
2105.00, 
2106.00, 
2107.00, 
2108.00, 
2109.00, 
2110.00, 
2111.00, 
2112.00, 
2113.00, 
2114.00, 
2115.00, 
2116.00, 
2117.00, 
2118.00, 
2119.00, 
2120.00, 
2121.00, 
2122.00, 
2123.00, 
2124.00, 
2125.00, 
2126.00, 
2127.00, 
2128.00, 
2129.00, 
2130.00, 
2131.00, 
2132.00, 
2133.00, 
2134.00, 
2135.00, 
2136.00, 
2137.00, 
2138.00, 
2139.00, 
2140.00, 
2141.00, 
2142.00, 
2143.00, 
2144.00, 
2145.00, 
2146.00, 
2147.00, 
2148.00, 
2149.00, 
2150.00, 
2151.00, 
2152.00, 
2153.00, 
2154.00, 
2155.00, 
2156.00, 
2157.00, 
2158.00, 
2159.00, 
2160.00, 
2161.00, 
2162.00, 
2163.00, 
2164.00, 
2165.00, 
2166.00, 
2167.00, 
2168.00, 
2169.00, 
2170.00, 
2171.00, 
2172.00, 
2173.00, 
2174.00, 
2175.00, 
2176.00, 
2177.00, 
2178.00, 
2179.00, 
2180.00, 
2181.00, 
2182.00, 
2183.00, 
2184.00, 
2185.00, 
2186.00, 
2187.00, 
2188.00, 
2189.00, 
2190.00, 
2191.00, 
2192.00, 
2193.00, 
2194.00, 
2195.00, 
2196.00, 
2197.00, 
2198.00, 
2199.00, 
2200.00, 
2201.00, 
2202.00, 
2203.00, 
2204.00, 
2205.00, 
2206.00, 
2207.00, 
2208.00, 
2209.00, 
2210.00, 
2211.00, 
2212.00, 
2213.00, 
2214.00, 
2215.00, 
2216.00, 
2217.00, 
2218.00, 
2219.00, 
2220.00, 
2221.00, 
2222.00, 
2223.00, 
2224.00, 
2225.00, 
2226.00, 
2227.00, 
2228.00, 
2229.00, 
2230.00, 
2231.00, 
2232.00, 
2233.00, 
2234.00, 
2235.00, 
2236.00, 
2237.00, 
2238.00, 
2239.00, 
2240.00, 
2241.00, 
2242.00, 
2243.00, 
2244.00, 
2245.00, 
2246.00, 
2247.00, 
2248.00, 
2249.00, 
2250.00, 
2251.00, 
2252.00, 
2253.00, 
2254.00, 
2255.00, 
2256.00, 
2257.00, 
2258.00, 
2259.00, 
2260.00, 
2261.00, 
2262.00, 
2263.00, 
2264.00, 
2265.00, 
2266.00, 
2267.00, 
2268.00, 
2269.00, 
2270.00, 
2271.00, 
2272.00, 
2273.00, 
2274.00, 
2275.00, 
2276.00, 
2277.00, 
2278.00, 
2279.00, 
2280.00, 
2281.00, 
2282.00, 
2283.00, 
2284.00, 
2285.00, 
2286.00, 
2287.00, 
2288.00, 
2289.00, 
2290.00, 
2291.00, 
2292.00, 
2293.00, 
2294.00, 
2295.00, 
2296.00, 
2297.00, 
2298.00, 
2299.00, 
2300.00, 
2301.00, 
2302.00, 
2303.00, 
2304.00, 
2305.00, 
2306.00, 
2307.00, 
2308.00, 
2309.00, 
2310.00, 
2311.00, 
2312.00, 
2313.00, 
2314.00, 
2315.00, 
2316.00, 
2317.00, 
2318.00, 
2319.00, 
2320.00, 
2321.00, 
2322.00, 
2323.00, 
2324.00, 
2325.00, 
2326.00, 
2327.00, 
2328.00, 
2329.00, 
2330.00, 
2331.00, 
2332.00, 
2333.00, 
2334.00, 
2335.00, 
2336.00, 
2337.00, 
2338.00, 
2339.00, 
2340.00, 
2341.00, 
2342.00, 
2343.00, 
2344.00, 
2345.00, 
2346.00, 
2347.00, 
2348.00, 
2349.00, 
2350.00, 
2351.00, 
2352.00, 
2353.00, 
2354.00, 
2355.00, 
2356.00, 
2357.00, 
2358.00, 
2359.00, 
2360.00, 
2361.00, 
2362.00, 
2363.00, 
2364.00, 
2365.00, 
2366.00, 
2367.00, 
2368.00, 
2369.00, 
2370.00, 
2371.00, 
2372.00, 
2373.00, 
2374.00, 
2375.00, 
2376.00, 
2377.00, 
2378.00, 
2379.00, 
2380.00, 
2381.00, 
2382.00, 
2383.00, 
2384.00, 
2385.00, 
2386.00, 
2387.00, 
2388.00, 
2389.00, 
2390.00, 
2391.00, 
2392.00, 
2393.00, 
2394.00, 
2395.00, 
2396.00, 
2397.00, 
2398.00, 
2399.00, 
2400.00, 
2401.00, 
2402.00, 
2403.00, 
2404.00, 
2405.00, 
2406.00, 
2407.00, 
2408.00, 
2409.00, 
2410.00, 
2411.00, 
2412.00, 
2413.00, 
2414.00, 
2415.00, 
2416.00, 
2417.00, 
2418.00, 
2419.00, 
2420.00, 
2421.00, 
2422.00, 
2423.00, 
2424.00, 
2425.00, 
2426.00, 
2427.00, 
2428.00, 
2429.00, 
2430.00, 
2431.00, 
2432.00, 
2433.00, 
2434.00, 
2435.00, 
2436.00, 
2437.00, 
2438.00, 
2439.00, 
2440.00, 
2441.00, 
2442.00, 
2443.00, 
2444.00, 
2445.00, 
2446.00, 
2447.00, 
2448.00, 
2449.00, 
2450.00, 
2451.00, 
2452.00, 
2453.00, 
2454.00, 
2455.00, 
2456.00, 
2457.00, 
2458.00, 
2459.00, 
2460.00, 
2461.00, 
2462.00, 
2463.00, 
2464.00, 
2465.00, 
2466.00, 
2467.00, 
2468.00, 
2469.00, 
2470.00, 
2471.00, 
2472.00, 
2473.00, 
2474.00, 
2475.00, 
2476.00, 
2477.00, 
2478.00, 
2479.00, 
2480.00, 
2481.00, 
2482.00, 
2483.00, 
2484.00, 
2485.00, 
2486.00, 
2487.00, 
2488.00, 
2489.00, 
2490.00, 
2491.00, 
2492.00, 
2493.00, 
2494.00, 
2495.00, 
2496.00, 
2497.00, 
2498.00, 
2499.00, 
2500.00, 
2501.00, 
2502.00, 
2503.00, 
2504.00, 
2505.00, 
2506.00, 
2507.00, 
2508.00, 
2509.00, 
2510.00, 
2511.00, 
2512.00, 
2513.00, 
2514.00, 
2515.00, 
2516.00, 
2517.00, 
2518.00, 
2519.00, 
2520.00, 
2521.00, 
2522.00, 
2523.00, 
2524.00, 
2525.00, 
2526.00, 
2527.00, 
2528.00, 
2529.00, 
2530.00, 
2531.00, 
2532.00, 
2533.00, 
2534.00, 
2535.00, 
2536.00, 
2537.00, 
2538.00, 
2539.00, 
2540.00, 
2541.00, 
2542.00, 
2543.00, 
2544.00, 
2545.00, 
2546.00, 
2547.00, 
2548.00, 
2549.00, 
2550.00, 
2551.00, 
2552.00, 
2553.00, 
2554.00, 
2555.00, 
2556.00, 
2557.00, 
2558.00, 
2559.00, 
2560.00, 
2561.00, 
2562.00, 
2563.00, 
2564.00, 
2565.00, 
2566.00, 
2567.00, 
2568.00, 
2569.00, 
2570.00, 
2571.00, 
2572.00, 
2573.00, 
2574.00, 
2575.00, 
2576.00, 
2577.00, 
2578.00, 
2579.00, 
2580.00, 
2581.00, 
2582.00, 
2583.00, 
2584.00, 
2585.00, 
2586.00, 
2587.00, 
2588.00, 
2589.00, 
2590.00, 
2591.00, 
2592.00, 
2593.00, 
2594.00, 
2595.00, 
2596.00, 
2597.00, 
2598.00, 
2599.00, 
2600.00, 
