"1cP1 - RawData"
"Wavelength nm.","T%"
200.00,0.003
201.00,0.002
202.00,0.002
203.00,0.003
204.00,0.006
205.00,0.002
206.00,0.002
207.00,0.002
208.00,0.004
209.00,-0.001
210.00,-0.000
211.00,0.001
212.00,0.003
213.00,0.003
214.00,0.002
215.00,0.001
216.00,0.002
217.00,-0.001
218.00,0.001
219.00,-0.001
220.00,0.003
221.00,0.001
222.00,0.001
223.00,-0.000
224.00,0.002
225.00,0.004
226.00,-0.000
227.00,0.003
228.00,0.001
229.00,-0.001
230.00,0.001
231.00,0.002
232.00,0.001
233.00,0.002
234.00,-0.000
235.00,0.001
236.00,-0.001
237.00,0.000
238.00,0.003
239.00,-0.001
240.00,0.000
241.00,0.000
242.00,-0.000
243.00,0.001
244.00,0.001
245.00,0.001
246.00,0.000
247.00,0.001
248.00,0.001
249.00,0.000
250.00,0.002
251.00,0.002
252.00,0.001
253.00,-0.001
254.00,-0.000
255.00,0.002
256.00,0.001
257.00,0.000
258.00,0.003
259.00,0.003
260.00,0.000
261.00,0.001
262.00,0.000
263.00,0.002
264.00,0.000
265.00,0.002
266.00,0.002
267.00,-0.001
268.00,-0.000
269.00,0.000
270.00,0.000
271.00,0.001
272.00,0.001
273.00,0.001
274.00,0.001
275.00,0.000
276.00,0.001
277.00,-0.000
278.00,0.000
279.00,0.001
280.00,0.001
281.00,0.001
282.00,-0.001
283.00,0.000
284.00,0.002
285.00,-0.000
286.00,0.001
287.00,0.001
288.00,-0.000
289.00,0.002
290.00,0.002
291.00,0.000
292.00,-0.001
293.00,-0.001
294.00,0.001
295.00,0.001
296.00,0.001
297.00,0.002
298.00,0.001
299.00,0.000
300.00,0.000
301.00,0.002
302.00,0.000
303.00,-0.000
304.00,0.001
305.00,0.002
306.00,0.002
307.00,0.003
308.00,0.008
309.00,0.015
310.00,0.023
311.00,0.035
312.00,0.053
313.00,0.090
314.00,0.124
315.00,0.186
316.00,0.273
317.00,0.381
318.00,0.518
319.00,0.708
320.00,0.942
321.00,1.218
322.00,1.566
323.00,1.977
324.00,2.439
325.00,2.947
326.00,3.476
327.00,4.149
328.00,4.867
329.00,5.613
330.00,6.422
331.00,7.215
332.00,8.115
333.00,9.106
334.00,10.085
335.00,11.105
336.00,12.056
337.00,13.144
338.00,14.206
339.00,15.169
340.00,16.209
341.00,17.163
342.00,18.134
343.00,19.085
344.00,20.011
345.00,20.846
346.00,21.596
347.00,22.444
348.00,23.258
349.00,23.936
350.00,24.629
351.00,25.369
352.00,25.926
353.00,26.505
354.00,27.098
355.00,27.543
356.00,28.120
357.00,28.560
358.00,28.998
359.00,29.384
360.00,29.724
361.00,30.020
362.00,30.288
363.00,30.653
364.00,30.925
365.00,31.228
366.00,31.432
367.00,31.495
368.00,31.767
369.00,31.864
370.00,32.001
371.00,32.071
372.00,32.133
373.00,32.166
374.00,32.094
375.00,31.990
376.00,32.072
377.00,31.992
378.00,31.915
379.00,31.847
380.00,31.871
381.00,31.851
382.00,31.894
383.00,32.025
384.00,32.126
385.00,32.334
386.00,32.405
387.00,32.501
388.00,32.695
389.00,32.792
390.00,32.955
391.00,33.012
392.00,33.162
393.00,33.195
394.00,33.198
395.00,33.310
396.00,33.374
397.00,33.425
398.00,33.502
399.00,33.539
400.00,33.559
401.00,33.636
402.00,33.609
403.00,33.605
404.00,33.627
405.00,33.662
406.00,33.731
407.00,33.579
408.00,33.561
409.00,33.443
410.00,33.486
411.00,33.524
412.00,33.413
413.00,33.438
414.00,33.436
415.00,33.405
416.00,33.430
417.00,33.478
418.00,33.536
419.00,33.521
420.00,33.452
421.00,33.629
422.00,33.658
423.00,33.688
424.00,33.648
425.00,33.715
426.00,33.727
427.00,33.762
428.00,33.852
429.00,33.867
430.00,33.897
431.00,33.915
432.00,33.998
433.00,34.048
434.00,34.034
435.00,34.130
436.00,34.155
437.00,34.153
438.00,34.253
439.00,34.318
440.00,34.356
441.00,34.367
442.00,34.468
443.00,34.552
444.00,34.633
445.00,34.664
446.00,34.760
447.00,34.862
448.00,34.935
449.00,35.040
450.00,35.071
451.00,35.198
452.00,35.187
453.00,35.335
454.00,35.565
455.00,35.628
456.00,35.650
457.00,35.793
458.00,35.918
459.00,35.975
460.00,36.050
461.00,36.174
462.00,36.282
463.00,36.376
464.00,36.523
465.00,36.617
466.00,36.659
467.00,36.764
468.00,36.743
469.00,37.033
470.00,37.071
471.00,37.146
472.00,37.260
473.00,37.298
474.00,37.364
475.00,37.444
476.00,37.525
477.00,37.650
478.00,37.798
479.00,37.831
480.00,38.026
481.00,38.111
482.00,38.195
483.00,38.276
484.00,38.352
485.00,38.569
486.00,38.611
487.00,38.727
488.00,38.794
489.00,38.993
490.00,39.091
491.00,39.204
492.00,39.357
493.00,39.301
494.00,39.378
495.00,39.469
496.00,39.631
497.00,39.732
498.00,39.804
499.00,39.970
500.00,39.999
501.00,40.051
502.00,40.187
503.00,40.255
504.00,40.324
505.00,40.553
506.00,40.671
507.00,40.718
508.00,40.795
509.00,40.888
510.00,40.940
511.00,41.108
512.00,41.127
513.00,41.253
514.00,41.402
515.00,41.492
516.00,41.538
517.00,41.693
518.00,41.721
519.00,41.859
520.00,41.934
521.00,41.930
522.00,42.003
523.00,42.117
524.00,42.145
525.00,42.183
526.00,42.301
527.00,42.326
528.00,42.420
529.00,42.339
530.00,42.333
531.00,42.663
532.00,42.732
533.00,42.718
534.00,42.830
535.00,42.882
536.00,42.973
537.00,42.981
538.00,43.004
539.00,43.212
540.00,43.199
541.00,43.277
542.00,43.322
543.00,43.324
544.00,43.415
545.00,43.394
546.00,43.431
547.00,43.475
548.00,43.578
549.00,43.652
550.00,43.645
551.00,43.731
552.00,43.789
553.00,43.848
554.00,44.053
555.00,44.104
556.00,44.104
557.00,44.147
558.00,44.144
559.00,44.239
560.00,44.336
561.00,44.355
562.00,44.421
563.00,44.456
564.00,44.474
565.00,44.418
566.00,44.533
567.00,44.513
568.00,44.525
569.00,44.520
570.00,44.454
571.00,44.548
572.00,44.638
573.00,44.663
574.00,44.710
575.00,44.704
576.00,44.761
577.00,44.756
578.00,44.781
579.00,44.824
580.00,44.845
581.00,44.882
582.00,44.909
583.00,44.962
584.00,45.209
585.00,45.172
586.00,45.210
587.00,45.313
588.00,45.297
589.00,45.417
590.00,45.372
591.00,45.387
592.00,45.392
593.00,45.440
594.00,45.440
595.00,45.423
596.00,45.528
597.00,45.543
598.00,45.614
599.00,45.629
600.00,45.685
601.00,45.760
602.00,45.821
603.00,45.843
604.00,45.841
605.00,45.921
606.00,45.879
607.00,45.881
608.00,45.843
609.00,45.639
610.00,45.770
611.00,45.990
612.00,46.109
613.00,46.024
614.00,46.033
615.00,45.995
616.00,46.075
617.00,46.146
618.00,46.252
619.00,46.266
620.00,46.274
621.00,46.279
622.00,46.267
623.00,46.287
624.00,46.264
625.00,46.347
626.00,46.423
627.00,46.358
628.00,46.473
629.00,46.507
630.00,46.603
631.00,46.538
632.00,46.573
633.00,46.628
634.00,46.599
635.00,46.613
636.00,46.843
637.00,46.957
638.00,46.997
639.00,46.944
640.00,46.921
641.00,47.017
642.00,46.975
643.00,47.105
644.00,47.136
645.00,47.024
646.00,47.144
647.00,47.213
648.00,47.233
649.00,47.402
650.00,47.250
651.00,47.296
652.00,47.335
653.00,47.519
654.00,47.543
655.00,47.340
656.00,47.223
657.00,47.607
658.00,47.702
659.00,47.770
660.00,47.711
661.00,47.661
662.00,47.925
663.00,47.820
664.00,47.770
665.00,47.793
666.00,47.937
667.00,48.153
668.00,47.942
669.00,48.184
670.00,48.018
671.00,48.151
672.00,48.220
673.00,48.164
674.00,48.229
675.00,48.573
676.00,48.346
677.00,48.410
678.00,48.479
679.00,48.540
680.00,48.383
681.00,48.426
682.00,48.733
683.00,48.633
684.00,48.671
685.00,48.712
686.00,49.035
687.00,48.961
688.00,48.818
689.00,48.626
690.00,48.834
691.00,48.933
692.00,49.073
693.00,49.161
694.00,48.926
695.00,48.861
696.00,49.007
697.00,49.249
698.00,49.312
699.00,49.292
700.00,49.479
701.00,49.508
702.00,49.412
703.00,49.346
704.00,49.385
705.00,49.432
706.00,49.824
707.00,49.465
708.00,49.276
709.00,49.507
710.00,49.673
711.00,49.718
712.00,49.800
713.00,49.642
714.00,49.518
715.00,49.705
716.00,49.838
717.00,49.687
718.00,49.597
719.00,49.689
720.00,49.826
721.00,54.175
722.00,53.964
723.00,53.911
724.00,53.998
725.00,53.934
726.00,53.868
727.00,53.843
728.00,53.900
729.00,53.743
730.00,53.838
731.00,53.798
732.00,53.822
733.00,53.791
734.00,53.742
735.00,53.755
736.00,53.726
737.00,53.767
738.00,53.651
739.00,53.774
740.00,53.682
741.00,53.749
742.00,53.728
743.00,53.639
744.00,53.559
745.00,53.614
746.00,53.543
747.00,53.582
748.00,53.513
749.00,53.540
750.00,53.401
751.00,53.330
752.00,53.375
753.00,53.296
754.00,53.314
755.00,53.268
756.00,53.244
757.00,53.212
758.00,53.190
759.00,53.218
760.00,53.117
761.00,53.151
762.00,53.108
763.00,53.108
764.00,53.143
765.00,53.047
766.00,53.076
767.00,53.017
768.00,52.997
769.00,52.988
770.00,53.022
771.00,52.920
772.00,52.955
773.00,52.920
774.00,52.908
775.00,52.988
776.00,52.835
777.00,52.900
778.00,52.787
779.00,52.859
780.00,52.787
781.00,52.738
782.00,52.806
783.00,52.692
784.00,52.691
785.00,52.635
786.00,52.638
787.00,52.527
788.00,52.552
789.00,52.610
790.00,52.553
791.00,52.594
792.00,52.464
793.00,52.507
794.00,52.405
795.00,52.306
796.00,52.350
797.00,52.359
798.00,52.311
799.00,52.221
800.00,52.272
801.00,52.311
802.00,52.193
803.00,52.165
804.00,52.120
805.00,52.080
806.00,52.039
807.00,52.027
808.00,52.039
809.00,51.940
810.00,51.986
811.00,51.914
812.00,51.953
813.00,51.903
814.00,51.874
815.00,51.846
816.00,51.801
817.00,51.840
818.00,51.739
819.00,51.820
820.00,51.696
821.00,51.755
822.00,51.503
823.00,51.638
824.00,51.638
825.00,51.527
826.00,51.440
827.00,51.520
828.00,51.471
829.00,51.555
830.00,51.434
831.00,53.857
832.00,53.819
833.00,53.806
834.00,53.783
835.00,53.746
836.00,53.736
837.00,53.694
838.00,53.667
839.00,53.665
840.00,53.615
841.00,53.618
842.00,53.584
843.00,53.539
844.00,53.464
845.00,53.522
846.00,53.451
847.00,53.411
848.00,53.427
849.00,53.371
850.00,53.339
851.00,53.269
852.00,53.280
853.00,53.230
854.00,53.215
855.00,53.055
856.00,53.110
857.00,53.043
858.00,53.093
859.00,53.027
860.00,53.013
861.00,53.019
862.00,52.973
863.00,52.960
864.00,52.954
865.00,52.932
866.00,52.929
867.00,52.888
868.00,52.879
869.00,52.902
870.00,52.772
871.00,52.816
872.00,52.810
873.00,52.798
874.00,52.807
875.00,52.788
876.00,52.761
877.00,52.734
878.00,52.744
879.00,52.707
880.00,52.673
881.00,52.623
882.00,52.664
883.00,52.617
884.00,52.613
885.00,52.524
886.00,52.576
887.00,52.517
888.00,52.496
889.00,52.484
890.00,52.448
891.00,52.411
892.00,52.418
893.00,52.365
894.00,52.341
895.00,52.339
896.00,52.327
897.00,52.303
898.00,52.278
899.00,52.279
900.00,52.242
901.00,52.208
902.00,52.206
903.00,52.191
904.00,52.182
905.00,52.127
906.00,52.134
907.00,52.113
908.00,52.067
909.00,52.046
910.00,52.026
911.00,51.984
912.00,51.996
913.00,51.983
914.00,51.944
915.00,51.939
916.00,51.910
917.00,51.872
918.00,51.856
919.00,51.833
920.00,51.833
921.00,51.800
922.00,51.780
923.00,51.761
924.00,51.711
925.00,51.703
926.00,51.721
927.00,51.667
928.00,51.662
929.00,51.657
930.00,51.591
931.00,51.593
932.00,51.542
933.00,51.536
934.00,51.526
935.00,51.494
936.00,51.478
937.00,51.444
938.00,51.454
939.00,51.435
940.00,51.385
941.00,51.391
942.00,51.472
943.00,51.369
944.00,51.302
945.00,51.299
946.00,51.301
947.00,51.267
948.00,51.237
949.00,51.208
950.00,51.223
951.00,51.203
952.00,51.152
953.00,51.136
954.00,51.124
955.00,51.069
956.00,51.033
957.00,51.106
958.00,51.015
959.00,50.961
960.00,50.947
961.00,50.936
962.00,50.956
963.00,50.899
964.00,50.922
965.00,50.893
966.00,50.868
967.00,50.847
968.00,50.846
969.00,50.855
970.00,50.815
971.00,50.850
972.00,50.801
973.00,50.844
974.00,50.840
975.00,50.842
976.00,50.846
977.00,50.806
978.00,50.864
979.00,50.802
980.00,50.837
981.00,50.818
982.00,50.801
983.00,50.800
984.00,50.781
985.00,50.808
986.00,50.782
987.00,50.813
988.00,50.754
989.00,50.780
990.00,50.748
991.00,50.730
992.00,50.752
993.00,50.697
994.00,50.730
995.00,50.691
996.00,50.681
997.00,50.685
998.00,50.650
999.00,50.647
1000.00,50.614
1001.00,50.620
1002.00,50.603
1003.00,50.591
1004.00,50.559
1005.00,50.535
1006.00,50.551
1007.00,50.524
1008.00,50.545
1009.00,50.510
1010.00,50.491
1011.00,50.483
1012.00,50.456
1013.00,50.462
1014.00,50.426
1015.00,50.444
1016.00,50.399
1017.00,50.407
1018.00,50.378
1019.00,50.383
1020.00,50.367
1021.00,50.325
1022.00,50.338
1023.00,50.287
1024.00,50.284
1025.00,50.260
1026.00,50.266
1027.00,50.224
1028.00,50.220
1029.00,50.220
1030.00,50.201
1031.00,50.207
1032.00,50.142
1033.00,50.154
1034.00,50.096
1035.00,50.083
1036.00,50.054
1037.00,50.035
1038.00,50.019
1039.00,49.987
1040.00,49.992
1041.00,49.961
1042.00,49.965
1043.00,49.916
1044.00,49.977
1045.00,49.934
1046.00,49.962
1047.00,49.960
1048.00,49.976
1049.00,49.976
1050.00,49.980
1051.00,50.001
1052.00,50.025
1053.00,50.046
1054.00,50.022
1055.00,50.037
1056.00,50.043
1057.00,50.048
1058.00,50.038
1059.00,50.031
1060.00,50.050
1061.00,50.041
1062.00,50.009
1063.00,50.055
1064.00,50.071
1065.00,50.000
1066.00,49.995
1067.00,49.979
1068.00,49.993
1069.00,49.964
1070.00,49.967
1071.00,49.954
1072.00,49.946
1073.00,49.930
1074.00,49.946
1075.00,49.930
1076.00,49.927
1077.00,49.931
1078.00,49.907
1079.00,49.897
1080.00,49.894
1081.00,49.878
1082.00,49.893
1083.00,49.870
1084.00,49.858
1085.00,49.866
1086.00,49.850
1087.00,49.822
1088.00,49.835
1089.00,49.804
1090.00,49.799
1091.00,49.793
1092.00,49.798
1093.00,49.782
1094.00,49.754
1095.00,49.752
1096.00,49.758
1097.00,49.749
1098.00,49.720
1099.00,49.722
1100.00,49.715
1101.00,49.693
1102.00,49.678
1103.00,49.665
1104.00,49.674
1105.00,49.634
1106.00,49.628
1107.00,49.657
1108.00,49.665
1109.00,49.636
1110.00,49.644
1111.00,49.639
1112.00,49.623
1113.00,49.589
1114.00,49.593
1115.00,49.600
1116.00,49.592
1117.00,49.554
1118.00,49.595
1119.00,49.579
1120.00,49.537
1121.00,49.541
1122.00,49.550
1123.00,49.530
1124.00,49.517
1125.00,49.524
1126.00,49.526
1127.00,49.502
1128.00,49.494
1129.00,49.492
1130.00,49.505
1131.00,49.473
1132.00,49.486
1133.00,49.452
1134.00,49.473
1135.00,49.474
1136.00,49.472
1137.00,49.471
1138.00,49.457
1139.00,49.451
1140.00,49.465
1141.00,49.446
1142.00,49.426
1143.00,49.455
1144.00,49.430
1145.00,49.434
1146.00,49.417
1147.00,49.427
1148.00,49.413
1149.00,49.416
1150.00,49.427
1151.00,49.438
1152.00,49.415
1153.00,49.396
1154.00,49.405
1155.00,49.409
1156.00,49.391
1157.00,49.394
1158.00,49.393
1159.00,49.413
1160.00,49.371
1161.00,49.394
1162.00,49.414
1163.00,49.415
1164.00,49.384
1165.00,49.410
1166.00,49.401
1167.00,49.383
1168.00,49.395
1169.00,49.398
1170.00,49.399
1171.00,49.365
1172.00,49.378
1173.00,49.399
1174.00,49.406
1175.00,49.376
1176.00,49.412
1177.00,49.377
1178.00,49.364
1179.00,49.388
1180.00,49.376
1181.00,49.366
1182.00,49.354
1183.00,49.375
1184.00,49.359
1185.00,49.387
1186.00,49.376
1187.00,49.389
1188.00,49.344
1189.00,49.368
1190.00,49.356
1191.00,49.352
1192.00,49.368
1193.00,49.363
1194.00,49.362
1195.00,49.345
1196.00,49.373
1197.00,49.364
1198.00,49.380
1199.00,49.354
1200.00,49.364
1201.00,49.373
1202.00,49.350
1203.00,49.370
1204.00,49.347
1205.00,49.361
1206.00,49.352
1207.00,49.354
1208.00,49.336
1209.00,49.375
1210.00,49.346
1211.00,49.343
1212.00,49.369
1213.00,49.323
1214.00,49.358
1215.00,49.339
1216.00,49.339
1217.00,49.362
1218.00,49.356
1219.00,49.371
1220.00,49.367
1221.00,49.373
1222.00,49.351
1223.00,49.385
1224.00,49.356
1225.00,49.354
1226.00,49.365
1227.00,49.347
1228.00,49.368
1229.00,49.372
1230.00,49.404
1231.00,49.386
1232.00,49.407
1233.00,49.413
1234.00,49.429
1235.00,49.415
1236.00,49.432
1237.00,49.412
1238.00,49.414
1239.00,49.430
1240.00,49.440
1241.00,49.453
1242.00,49.439
1243.00,49.457
1244.00,49.451
1245.00,49.481
1246.00,49.462
1247.00,49.470
1248.00,49.443
1249.00,49.454
1250.00,49.487
1251.00,49.482
1252.00,49.476
1253.00,49.485
1254.00,49.502
1255.00,49.503
1256.00,49.482
1257.00,49.465
1258.00,49.513
1259.00,49.506
1260.00,49.522
1261.00,49.539
1262.00,49.554
1263.00,49.521
1264.00,49.560
1265.00,49.572
1266.00,49.557
1267.00,49.564
1268.00,49.565
1269.00,49.568
1270.00,49.589
1271.00,49.569
1272.00,49.601
1273.00,49.611
1274.00,49.610
1275.00,49.622
1276.00,49.634
1277.00,49.634
1278.00,49.633
1279.00,49.629
1280.00,49.622
1281.00,49.648
1282.00,49.656
1283.00,49.636
1284.00,49.659
1285.00,49.635
1286.00,49.658
1287.00,49.654
1288.00,49.680
1289.00,49.672
1290.00,49.689
1291.00,49.685
1292.00,49.697
1293.00,49.701
1294.00,49.709
1295.00,49.720
1296.00,49.715
1297.00,49.734
1298.00,49.744
1299.00,49.746
1300.00,49.754
1301.00,49.729
1302.00,49.761
1303.00,49.790
1304.00,49.767
1305.00,49.769
1306.00,49.791
1307.00,49.824
1308.00,49.794
1309.00,49.802
1310.00,49.819
1311.00,49.809
1312.00,49.808
1313.00,49.822
1314.00,49.862
1315.00,49.848
1316.00,49.869
1317.00,49.879
1318.00,49.876
1319.00,49.883
1320.00,49.877
1321.00,50.041
1322.00,50.054
1323.00,50.034
1324.00,50.054
1325.00,50.030
1326.00,50.046
1327.00,50.030
1328.00,50.029
1329.00,50.014
1330.00,50.034
1331.00,50.039
1332.00,50.035
1333.00,50.040
1334.00,50.069
1335.00,50.119
1336.00,50.158
1337.00,50.155
1338.00,50.239
1339.00,50.273
1340.00,50.337
1341.00,50.402
1342.00,50.472
1343.00,50.510
1344.00,50.589
1345.00,50.604
1346.00,50.667
1347.00,50.686
1348.00,50.707
1349.00,50.757
1350.00,50.727
1351.00,50.795
1352.00,50.780
1353.00,50.762
1354.00,50.752
1355.00,50.786
1356.00,50.805
1357.00,50.792
1358.00,50.815
1359.00,50.787
1360.00,50.898
1361.00,50.832
1362.00,50.761
1363.00,50.873
1364.00,50.831
1365.00,50.821
1366.00,50.945
1367.00,50.870
1368.00,50.852
1369.00,50.841
1370.00,50.828
1371.00,50.906
1372.00,50.838
1373.00,50.825
1374.00,50.856
1375.00,50.828
1376.00,50.832
1377.00,50.816
1378.00,50.843
1379.00,50.854
1380.00,50.869
1381.00,50.878
1382.00,50.912
1383.00,50.882
1384.00,50.794
1385.00,50.751
1386.00,50.781
1387.00,50.787
1388.00,50.795
1389.00,50.771
1390.00,50.777
1391.00,50.788
1392.00,50.900
1393.00,50.877
1394.00,50.880
1395.00,50.865
1396.00,50.766
1397.00,50.787
1398.00,50.055
1399.00,50.846
1400.00,50.831
1401.00,50.810
1402.00,50.857
1403.00,50.871
1404.00,50.847
1405.00,50.857
1406.00,50.853
1407.00,50.869
1408.00,50.864
1409.00,50.928
1410.00,50.901
1411.00,50.842
1412.00,51.027
1413.00,51.425
1414.00,50.899
1415.00,50.925
1416.00,50.973
1417.00,51.038
1418.00,51.010
1419.00,50.965
1420.00,51.005
1421.00,51.060
1422.00,51.060
1423.00,51.056
1424.00,51.083
1425.00,51.060
1426.00,51.092
1427.00,51.122
1428.00,51.124
1429.00,51.133
1430.00,51.155
1431.00,51.157
1432.00,51.180
1433.00,51.202
1434.00,51.202
1435.00,51.264
1436.00,51.240
1437.00,51.240
1438.00,51.258
1439.00,51.294
1440.00,51.313
1441.00,51.338
1442.00,51.328
1443.00,51.371
1444.00,51.429
1445.00,51.397
1446.00,51.391
1447.00,51.417
1448.00,51.456
1449.00,51.491
1450.00,51.484
1451.00,51.522
1452.00,51.511
1453.00,51.521
1454.00,51.572
1455.00,51.587
1456.00,51.603
1457.00,51.624
1458.00,51.623
1459.00,51.661
1460.00,51.674
1461.00,51.683
1462.00,51.723
1463.00,51.719
1464.00,51.750
1465.00,51.766
1466.00,51.751
1467.00,51.757
1468.00,51.842
1469.00,51.797
1470.00,51.827
1471.00,51.869
1472.00,51.878
1473.00,51.894
1474.00,51.915
1475.00,51.906
1476.00,51.938
1477.00,51.900
1478.00,51.932
1479.00,51.962
1480.00,51.956
1481.00,51.965
1482.00,51.964
1483.00,52.005
1484.00,52.018
1485.00,52.031
1486.00,52.048
1487.00,52.091
1488.00,52.098
1489.00,52.098
1490.00,52.105
1491.00,52.123
1492.00,52.154
1493.00,52.133
1494.00,52.150
1495.00,52.183
1496.00,52.198
1497.00,52.198
1498.00,52.220
1499.00,52.223
1500.00,52.256
1501.00, 
1502.00, 
1503.00, 
1504.00, 
1505.00, 
1506.00, 
1507.00, 
1508.00, 
1509.00, 
1510.00, 
1511.00, 
1512.00, 
1513.00, 
1514.00, 
1515.00, 
1516.00, 
1517.00, 
1518.00, 
1519.00, 
1520.00, 
1521.00, 
1522.00, 
1523.00, 
1524.00, 
1525.00, 
1526.00, 
1527.00, 
1528.00, 
1529.00, 
1530.00, 
1531.00, 
1532.00, 
1533.00, 
1534.00, 
1535.00, 
1536.00, 
1537.00, 
1538.00, 
1539.00, 
1540.00, 
1541.00, 
1542.00, 
1543.00, 
1544.00, 
1545.00, 
1546.00, 
1547.00, 
1548.00, 
1549.00, 
1550.00, 
1551.00, 
1552.00, 
1553.00, 
1554.00, 
1555.00, 
1556.00, 
1557.00, 
1558.00, 
1559.00, 
1560.00, 
1561.00, 
1562.00, 
1563.00, 
1564.00, 
1565.00, 
1566.00, 
1567.00, 
1568.00, 
1569.00, 
1570.00, 
1571.00, 
1572.00, 
1573.00, 
1574.00, 
1575.00, 
1576.00, 
1577.00, 
1578.00, 
1579.00, 
1580.00, 
1581.00, 
1582.00, 
1583.00, 
1584.00, 
1585.00, 
1586.00, 
1587.00, 
1588.00, 
1589.00, 
1590.00, 
1591.00, 
1592.00, 
1593.00, 
1594.00, 
1595.00, 
1596.00, 
1597.00, 
1598.00, 
1599.00, 
1600.00, 
1601.00, 
1602.00, 
1603.00, 
1604.00, 
1605.00, 
1606.00, 
1607.00, 
1608.00, 
1609.00, 
1610.00, 
1611.00, 
1612.00, 
1613.00, 
1614.00, 
1615.00, 
1616.00, 
1617.00, 
1618.00, 
1619.00, 
1620.00, 
1621.00, 
1622.00, 
1623.00, 
1624.00, 
1625.00, 
1626.00, 
1627.00, 
1628.00, 
1629.00, 
1630.00, 
1631.00, 
1632.00, 
1633.00, 
1634.00, 
1635.00, 
1636.00, 
1637.00, 
1638.00, 
1639.00, 
1640.00, 
1641.00, 
1642.00, 
1643.00, 
1644.00, 
1645.00, 
1646.00, 
1647.00, 
1648.00, 
1649.00, 
1650.00, 
1651.00, 
1652.00, 
1653.00, 
1654.00, 
1655.00, 
1656.00, 
1657.00, 
1658.00, 
1659.00, 
1660.00, 
1661.00, 
1662.00, 
1663.00, 
1664.00, 
1665.00, 
1666.00, 
1667.00, 
1668.00, 
1669.00, 
1670.00, 
1671.00, 
1672.00, 
1673.00, 
1674.00, 
1675.00, 
1676.00, 
1677.00, 
1678.00, 
1679.00, 
1680.00, 
1681.00, 
1682.00, 
1683.00, 
1684.00, 
1685.00, 
1686.00, 
1687.00, 
1688.00, 
1689.00, 
1690.00, 
1691.00, 
1692.00, 
1693.00, 
1694.00, 
1695.00, 
1696.00, 
1697.00, 
1698.00, 
1699.00, 
1700.00, 
1701.00, 
1702.00, 
1703.00, 
1704.00, 
1705.00, 
1706.00, 
1707.00, 
1708.00, 
1709.00, 
1710.00, 
1711.00, 
1712.00, 
1713.00, 
1714.00, 
1715.00, 
1716.00, 
1717.00, 
1718.00, 
1719.00, 
1720.00, 
1721.00, 
1722.00, 
1723.00, 
1724.00, 
1725.00, 
1726.00, 
1727.00, 
1728.00, 
1729.00, 
1730.00, 
1731.00, 
1732.00, 
1733.00, 
1734.00, 
1735.00, 
1736.00, 
1737.00, 
1738.00, 
1739.00, 
1740.00, 
1741.00, 
1742.00, 
1743.00, 
1744.00, 
1745.00, 
1746.00, 
1747.00, 
1748.00, 
1749.00, 
1750.00, 
1751.00, 
1752.00, 
1753.00, 
1754.00, 
1755.00, 
1756.00, 
1757.00, 
1758.00, 
1759.00, 
1760.00, 
1761.00, 
1762.00, 
1763.00, 
1764.00, 
1765.00, 
1766.00, 
1767.00, 
1768.00, 
1769.00, 
1770.00, 
1771.00, 
1772.00, 
1773.00, 
1774.00, 
1775.00, 
1776.00, 
1777.00, 
1778.00, 
1779.00, 
1780.00, 
1781.00, 
1782.00, 
1783.00, 
1784.00, 
1785.00, 
1786.00, 
1787.00, 
1788.00, 
1789.00, 
1790.00, 
1791.00, 
1792.00, 
1793.00, 
1794.00, 
1795.00, 
1796.00, 
1797.00, 
1798.00, 
1799.00, 
1800.00, 
1801.00, 
1802.00, 
1803.00, 
1804.00, 
1805.00, 
1806.00, 
1807.00, 
1808.00, 
1809.00, 
1810.00, 
1811.00, 
1812.00, 
1813.00, 
1814.00, 
1815.00, 
1816.00, 
1817.00, 
1818.00, 
1819.00, 
1820.00, 
1821.00, 
1822.00, 
1823.00, 
1824.00, 
1825.00, 
1826.00, 
1827.00, 
1828.00, 
1829.00, 
1830.00, 
1831.00, 
1832.00, 
1833.00, 
1834.00, 
1835.00, 
1836.00, 
1837.00, 
1838.00, 
1839.00, 
1840.00, 
1841.00, 
1842.00, 
1843.00, 
1844.00, 
1845.00, 
1846.00, 
1847.00, 
1848.00, 
1849.00, 
1850.00, 
1851.00, 
1852.00, 
1853.00, 
1854.00, 
1855.00, 
1856.00, 
1857.00, 
1858.00, 
1859.00, 
1860.00, 
1861.00, 
1862.00, 
1863.00, 
1864.00, 
1865.00, 
1866.00, 
1867.00, 
1868.00, 
1869.00, 
1870.00, 
1871.00, 
1872.00, 
1873.00, 
1874.00, 
1875.00, 
1876.00, 
1877.00, 
1878.00, 
1879.00, 
1880.00, 
1881.00, 
1882.00, 
1883.00, 
1884.00, 
1885.00, 
1886.00, 
1887.00, 
1888.00, 
1889.00, 
1890.00, 
1891.00, 
1892.00, 
1893.00, 
1894.00, 
1895.00, 
1896.00, 
1897.00, 
1898.00, 
1899.00, 
1900.00, 
1901.00, 
1902.00, 
1903.00, 
1904.00, 
1905.00, 
1906.00, 
1907.00, 
1908.00, 
1909.00, 
1910.00, 
1911.00, 
1912.00, 
1913.00, 
1914.00, 
1915.00, 
1916.00, 
1917.00, 
1918.00, 
1919.00, 
1920.00, 
1921.00, 
1922.00, 
1923.00, 
1924.00, 
1925.00, 
1926.00, 
1927.00, 
1928.00, 
1929.00, 
1930.00, 
1931.00, 
1932.00, 
1933.00, 
1934.00, 
1935.00, 
1936.00, 
1937.00, 
1938.00, 
1939.00, 
1940.00, 
1941.00, 
1942.00, 
1943.00, 
1944.00, 
1945.00, 
1946.00, 
1947.00, 
1948.00, 
1949.00, 
1950.00, 
1951.00, 
1952.00, 
1953.00, 
1954.00, 
1955.00, 
1956.00, 
1957.00, 
1958.00, 
1959.00, 
1960.00, 
1961.00, 
1962.00, 
1963.00, 
1964.00, 
1965.00, 
1966.00, 
1967.00, 
1968.00, 
1969.00, 
1970.00, 
1971.00, 
1972.00, 
1973.00, 
1974.00, 
1975.00, 
1976.00, 
1977.00, 
1978.00, 
1979.00, 
1980.00, 
1981.00, 
1982.00, 
1983.00, 
1984.00, 
1985.00, 
1986.00, 
1987.00, 
1988.00, 
1989.00, 
1990.00, 
1991.00, 
1992.00, 
1993.00, 
1994.00, 
1995.00, 
1996.00, 
1997.00, 
1998.00, 
1999.00, 
2000.00, 
2001.00, 
2002.00, 
2003.00, 
2004.00, 
2005.00, 
2006.00, 
2007.00, 
2008.00, 
2009.00, 
2010.00, 
2011.00, 
2012.00, 
2013.00, 
2014.00, 
2015.00, 
2016.00, 
2017.00, 
2018.00, 
2019.00, 
2020.00, 
2021.00, 
2022.00, 
2023.00, 
2024.00, 
2025.00, 
2026.00, 
2027.00, 
2028.00, 
2029.00, 
2030.00, 
2031.00, 
2032.00, 
2033.00, 
2034.00, 
2035.00, 
2036.00, 
2037.00, 
2038.00, 
2039.00, 
2040.00, 
2041.00, 
2042.00, 
2043.00, 
2044.00, 
2045.00, 
2046.00, 
2047.00, 
2048.00, 
2049.00, 
2050.00, 
2051.00, 
2052.00, 
2053.00, 
2054.00, 
2055.00, 
2056.00, 
2057.00, 
2058.00, 
2059.00, 
2060.00, 
2061.00, 
2062.00, 
2063.00, 
2064.00, 
2065.00, 
2066.00, 
2067.00, 
2068.00, 
2069.00, 
2070.00, 
2071.00, 
2072.00, 
2073.00, 
2074.00, 
2075.00, 
2076.00, 
2077.00, 
2078.00, 
2079.00, 
2080.00, 
2081.00, 
2082.00, 
2083.00, 
2084.00, 
2085.00, 
2086.00, 
2087.00, 
2088.00, 
2089.00, 
2090.00, 
2091.00, 
2092.00, 
2093.00, 
2094.00, 
2095.00, 
2096.00, 
2097.00, 
2098.00, 
2099.00, 
2100.00, 
2101.00, 
2102.00, 
2103.00, 
2104.00, 
2105.00, 
2106.00, 
2107.00, 
2108.00, 
2109.00, 
2110.00, 
2111.00, 
2112.00, 
2113.00, 
2114.00, 
2115.00, 
2116.00, 
2117.00, 
2118.00, 
2119.00, 
2120.00, 
2121.00, 
2122.00, 
2123.00, 
2124.00, 
2125.00, 
2126.00, 
2127.00, 
2128.00, 
2129.00, 
2130.00, 
2131.00, 
2132.00, 
2133.00, 
2134.00, 
2135.00, 
2136.00, 
2137.00, 
2138.00, 
2139.00, 
2140.00, 
2141.00, 
2142.00, 
2143.00, 
2144.00, 
2145.00, 
2146.00, 
2147.00, 
2148.00, 
2149.00, 
2150.00, 
2151.00, 
2152.00, 
2153.00, 
2154.00, 
2155.00, 
2156.00, 
2157.00, 
2158.00, 
2159.00, 
2160.00, 
2161.00, 
2162.00, 
2163.00, 
2164.00, 
2165.00, 
2166.00, 
2167.00, 
2168.00, 
2169.00, 
2170.00, 
2171.00, 
2172.00, 
2173.00, 
2174.00, 
2175.00, 
2176.00, 
2177.00, 
2178.00, 
2179.00, 
2180.00, 
2181.00, 
2182.00, 
2183.00, 
2184.00, 
2185.00, 
2186.00, 
2187.00, 
2188.00, 
2189.00, 
2190.00, 
2191.00, 
2192.00, 
2193.00, 
2194.00, 
2195.00, 
2196.00, 
2197.00, 
2198.00, 
2199.00, 
2200.00, 
2201.00, 
2202.00, 
2203.00, 
2204.00, 
2205.00, 
2206.00, 
2207.00, 
2208.00, 
2209.00, 
2210.00, 
2211.00, 
2212.00, 
2213.00, 
2214.00, 
2215.00, 
2216.00, 
2217.00, 
2218.00, 
2219.00, 
2220.00, 
2221.00, 
2222.00, 
2223.00, 
2224.00, 
2225.00, 
2226.00, 
2227.00, 
2228.00, 
2229.00, 
2230.00, 
2231.00, 
2232.00, 
2233.00, 
2234.00, 
2235.00, 
2236.00, 
2237.00, 
2238.00, 
2239.00, 
2240.00, 
2241.00, 
2242.00, 
2243.00, 
2244.00, 
2245.00, 
2246.00, 
2247.00, 
2248.00, 
2249.00, 
2250.00, 
2251.00, 
2252.00, 
2253.00, 
2254.00, 
2255.00, 
2256.00, 
2257.00, 
2258.00, 
2259.00, 
2260.00, 
2261.00, 
2262.00, 
2263.00, 
2264.00, 
2265.00, 
2266.00, 
2267.00, 
2268.00, 
2269.00, 
2270.00, 
2271.00, 
2272.00, 
2273.00, 
2274.00, 
2275.00, 
2276.00, 
2277.00, 
2278.00, 
2279.00, 
2280.00, 
2281.00, 
2282.00, 
2283.00, 
2284.00, 
2285.00, 
2286.00, 
2287.00, 
2288.00, 
2289.00, 
2290.00, 
2291.00, 
2292.00, 
2293.00, 
2294.00, 
2295.00, 
2296.00, 
2297.00, 
2298.00, 
2299.00, 
2300.00, 
2301.00, 
2302.00, 
2303.00, 
2304.00, 
2305.00, 
2306.00, 
2307.00, 
2308.00, 
2309.00, 
2310.00, 
2311.00, 
2312.00, 
2313.00, 
2314.00, 
2315.00, 
2316.00, 
2317.00, 
2318.00, 
2319.00, 
2320.00, 
2321.00, 
2322.00, 
2323.00, 
2324.00, 
2325.00, 
2326.00, 
2327.00, 
2328.00, 
2329.00, 
2330.00, 
2331.00, 
2332.00, 
2333.00, 
2334.00, 
2335.00, 
2336.00, 
2337.00, 
2338.00, 
2339.00, 
2340.00, 
2341.00, 
2342.00, 
2343.00, 
2344.00, 
2345.00, 
2346.00, 
2347.00, 
2348.00, 
2349.00, 
2350.00, 
2351.00, 
2352.00, 
2353.00, 
2354.00, 
2355.00, 
2356.00, 
2357.00, 
2358.00, 
2359.00, 
2360.00, 
2361.00, 
2362.00, 
2363.00, 
2364.00, 
2365.00, 
2366.00, 
2367.00, 
2368.00, 
2369.00, 
2370.00, 
2371.00, 
2372.00, 
2373.00, 
2374.00, 
2375.00, 
2376.00, 
2377.00, 
2378.00, 
2379.00, 
2380.00, 
2381.00, 
2382.00, 
2383.00, 
2384.00, 
2385.00, 
2386.00, 
2387.00, 
2388.00, 
2389.00, 
2390.00, 
2391.00, 
2392.00, 
2393.00, 
2394.00, 
2395.00, 
2396.00, 
2397.00, 
2398.00, 
2399.00, 
2400.00, 
2401.00, 
2402.00, 
2403.00, 
2404.00, 
2405.00, 
2406.00, 
2407.00, 
2408.00, 
2409.00, 
2410.00, 
2411.00, 
2412.00, 
2413.00, 
2414.00, 
2415.00, 
2416.00, 
2417.00, 
2418.00, 
2419.00, 
2420.00, 
2421.00, 
2422.00, 
2423.00, 
2424.00, 
2425.00, 
2426.00, 
2427.00, 
2428.00, 
2429.00, 
2430.00, 
2431.00, 
2432.00, 
2433.00, 
2434.00, 
2435.00, 
2436.00, 
2437.00, 
2438.00, 
2439.00, 
2440.00, 
2441.00, 
2442.00, 
2443.00, 
2444.00, 
2445.00, 
2446.00, 
2447.00, 
2448.00, 
2449.00, 
2450.00, 
2451.00, 
2452.00, 
2453.00, 
2454.00, 
2455.00, 
2456.00, 
2457.00, 
2458.00, 
2459.00, 
2460.00, 
2461.00, 
2462.00, 
2463.00, 
2464.00, 
2465.00, 
2466.00, 
2467.00, 
2468.00, 
2469.00, 
2470.00, 
2471.00, 
2472.00, 
2473.00, 
2474.00, 
2475.00, 
2476.00, 
2477.00, 
2478.00, 
2479.00, 
2480.00, 
2481.00, 
2482.00, 
2483.00, 
2484.00, 
2485.00, 
2486.00, 
2487.00, 
2488.00, 
2489.00, 
2490.00, 
2491.00, 
2492.00, 
2493.00, 
2494.00, 
2495.00, 
2496.00, 
2497.00, 
2498.00, 
2499.00, 
2500.00, 
2501.00, 
2502.00, 
2503.00, 
2504.00, 
2505.00, 
2506.00, 
2507.00, 
2508.00, 
2509.00, 
2510.00, 
2511.00, 
2512.00, 
2513.00, 
2514.00, 
2515.00, 
2516.00, 
2517.00, 
2518.00, 
2519.00, 
2520.00, 
2521.00, 
2522.00, 
2523.00, 
2524.00, 
2525.00, 
2526.00, 
2527.00, 
2528.00, 
2529.00, 
2530.00, 
2531.00, 
2532.00, 
2533.00, 
2534.00, 
2535.00, 
2536.00, 
2537.00, 
2538.00, 
2539.00, 
2540.00, 
2541.00, 
2542.00, 
2543.00, 
2544.00, 
2545.00, 
2546.00, 
2547.00, 
2548.00, 
2549.00, 
2550.00, 
2551.00, 
2552.00, 
2553.00, 
2554.00, 
2555.00, 
2556.00, 
2557.00, 
2558.00, 
2559.00, 
2560.00, 
2561.00, 
2562.00, 
2563.00, 
2564.00, 
2565.00, 
2566.00, 
2567.00, 
2568.00, 
2569.00, 
2570.00, 
2571.00, 
2572.00, 
2573.00, 
2574.00, 
2575.00, 
2576.00, 
2577.00, 
2578.00, 
2579.00, 
2580.00, 
2581.00, 
2582.00, 
2583.00, 
2584.00, 
2585.00, 
2586.00, 
2587.00, 
2588.00, 
2589.00, 
2590.00, 
2591.00, 
2592.00, 
2593.00, 
2594.00, 
2595.00, 
2596.00, 
2597.00, 
2598.00, 
2599.00, 
2600.00, 
