"1cP2 - RawData"
"Wavelength nm.","T%"
200.00,0.004
201.00,0.002
202.00,0.002
203.00,0.003
204.00,0.003
205.00,0.002
206.00,0.001
207.00,-0.001
208.00,-0.000
209.00,0.003
210.00,0.003
211.00,0.004
212.00,0.000
213.00,0.002
214.00,0.000
215.00,-0.001
216.00,0.001
217.00,-0.003
218.00,0.002
219.00,0.001
220.00,0.003
221.00,0.004
222.00,0.005
223.00,0.001
224.00,-0.001
225.00,0.002
226.00,0.003
227.00,0.003
228.00,0.000
229.00,-0.001
230.00,0.000
231.00,0.002
232.00,0.002
233.00,0.001
234.00,-0.000
235.00,0.000
236.00,-0.000
237.00,0.001
238.00,-0.001
239.00,-0.001
240.00,-0.001
241.00,0.001
242.00,0.002
243.00,0.002
244.00,0.000
245.00,0.001
246.00,-0.000
247.00,0.001
248.00,0.002
249.00,0.001
250.00,0.001
251.00,0.001
252.00,0.001
253.00,0.000
254.00,0.002
255.00,-0.000
256.00,-0.000
257.00,-0.001
258.00,0.003
259.00,-0.000
260.00,0.001
261.00,0.002
262.00,0.001
263.00,-0.001
264.00,0.001
265.00,0.001
266.00,-0.001
267.00,-0.001
268.00,0.000
269.00,0.001
270.00,0.001
271.00,0.001
272.00,0.001
273.00,0.000
274.00,0.000
275.00,0.001
276.00,0.000
277.00,-0.001
278.00,0.000
279.00,-0.000
280.00,0.002
281.00,0.001
282.00,-0.001
283.00,-0.000
284.00,0.002
285.00,0.001
286.00,-0.000
287.00,-0.000
288.00,0.001
289.00,0.001
290.00,0.000
291.00,0.001
292.00,0.001
293.00,0.000
294.00,-0.001
295.00,0.001
296.00,0.001
297.00,0.000
298.00,0.001
299.00,0.000
300.00,0.001
301.00,0.002
302.00,-0.000
303.00,-0.000
304.00,0.001
305.00,0.002
306.00,0.004
307.00,0.007
308.00,0.011
309.00,0.022
310.00,0.038
311.00,0.052
312.00,0.082
313.00,0.129
314.00,0.193
315.00,0.291
316.00,0.415
317.00,0.590
318.00,0.785
319.00,1.076
320.00,1.382
321.00,1.838
322.00,2.359
323.00,2.999
324.00,3.698
325.00,4.432
326.00,5.257
327.00,6.220
328.00,7.305
329.00,8.424
330.00,9.672
331.00,10.884
332.00,12.252
333.00,13.673
334.00,15.091
335.00,16.620
336.00,18.119
337.00,19.649
338.00,21.183
339.00,22.578
340.00,24.132
341.00,25.598
342.00,26.971
343.00,28.426
344.00,29.707
345.00,30.988
346.00,32.092
347.00,33.408
348.00,34.609
349.00,35.652
350.00,36.660
351.00,37.634
352.00,38.525
353.00,39.478
354.00,40.267
355.00,40.975
356.00,41.835
357.00,42.532
358.00,43.171
359.00,43.758
360.00,44.241
361.00,44.805
362.00,45.196
363.00,45.773
364.00,46.193
365.00,46.591
366.00,47.000
367.00,47.277
368.00,47.546
369.00,47.794
370.00,47.924
371.00,48.094
372.00,48.188
373.00,48.310
374.00,48.213
375.00,48.089
376.00,48.256
377.00,48.139
378.00,48.067
379.00,48.063
380.00,48.044
381.00,48.140
382.00,48.294
383.00,48.455
384.00,48.664
385.00,48.711
386.00,49.191
387.00,49.405
388.00,49.692
389.00,49.904
390.00,50.155
391.00,50.374
392.00,50.640
393.00,50.711
394.00,50.768
395.00,50.932
396.00,51.026
397.00,51.164
398.00,51.304
399.00,51.361
400.00,51.486
401.00,51.549
402.00,51.540
403.00,51.602
404.00,51.616
405.00,51.801
406.00,51.849
407.00,51.737
408.00,51.723
409.00,51.589
410.00,51.421
411.00,51.476
412.00,51.493
413.00,51.488
414.00,51.481
415.00,51.435
416.00,51.535
417.00,51.552
418.00,51.611
419.00,51.529
420.00,51.470
421.00,51.611
422.00,51.660
423.00,51.642
424.00,51.574
425.00,51.627
426.00,51.716
427.00,51.672
428.00,51.740
429.00,51.728
430.00,51.599
431.00,51.707
432.00,51.709
433.00,51.797
434.00,51.750
435.00,51.775
436.00,51.775
437.00,51.904
438.00,51.874
439.00,51.873
440.00,51.853
441.00,51.846
442.00,51.882
443.00,51.858
444.00,51.908
445.00,51.855
446.00,51.893
447.00,52.070
448.00,52.032
449.00,52.129
450.00,52.100
451.00,52.171
452.00,52.255
453.00,52.273
454.00,52.388
455.00,52.401
456.00,52.403
457.00,52.435
458.00,52.502
459.00,52.541
460.00,52.566
461.00,52.621
462.00,52.633
463.00,52.673
464.00,52.792
465.00,52.735
466.00,52.758
467.00,52.769
468.00,52.847
469.00,52.945
470.00,52.901
471.00,52.923
472.00,52.966
473.00,52.899
474.00,52.868
475.00,52.928
476.00,52.867
477.00,52.954
478.00,53.026
479.00,52.940
480.00,53.110
481.00,53.103
482.00,53.126
483.00,53.068
484.00,53.089
485.00,53.314
486.00,53.264
487.00,53.308
488.00,53.353
489.00,53.384
490.00,53.392
491.00,53.383
492.00,53.627
493.00,53.388
494.00,53.422
495.00,53.455
496.00,53.441
497.00,53.516
498.00,53.608
499.00,53.672
500.00,53.596
501.00,53.654
502.00,53.584
503.00,53.701
504.00,53.875
505.00,53.760
506.00,53.877
507.00,53.886
508.00,53.782
509.00,53.901
510.00,53.909
511.00,53.949
512.00,53.940
513.00,53.955
514.00,54.122
515.00,54.119
516.00,54.081
517.00,54.165
518.00,54.150
519.00,54.230
520.00,54.248
521.00,54.135
522.00,54.262
523.00,54.316
524.00,54.245
525.00,54.233
526.00,54.338
527.00,54.352
528.00,54.387
529.00,54.261
530.00,54.181
531.00,54.352
532.00,54.367
533.00,54.386
534.00,54.363
535.00,54.445
536.00,54.461
537.00,54.438
538.00,54.477
539.00,54.554
540.00,54.470
541.00,54.465
542.00,54.481
543.00,54.451
544.00,54.512
545.00,54.447
546.00,54.444
547.00,54.480
548.00,54.501
549.00,54.592
550.00,54.476
551.00,54.574
552.00,54.663
553.00,54.569
554.00,54.693
555.00,54.606
556.00,54.666
557.00,54.688
558.00,54.749
559.00,54.802
560.00,54.864
561.00,54.842
562.00,54.861
563.00,54.858
564.00,54.796
565.00,54.756
566.00,54.764
567.00,54.748
568.00,54.729
569.00,54.643
570.00,54.552
571.00,54.550
572.00,54.635
573.00,54.655
574.00,54.667
575.00,54.583
576.00,54.551
577.00,54.543
578.00,54.643
579.00,54.647
580.00,54.751
581.00,54.751
582.00,54.780
583.00,54.832
584.00,54.907
585.00,54.805
586.00,54.880
587.00,54.894
588.00,54.859
589.00,54.997
590.00,54.809
591.00,54.821
592.00,54.843
593.00,54.815
594.00,54.844
595.00,54.705
596.00,54.797
597.00,54.859
598.00,54.865
599.00,54.810
600.00,54.881
601.00,54.900
602.00,54.954
603.00,54.947
604.00,54.914
605.00,54.943
606.00,55.008
607.00,54.865
608.00,54.774
609.00,54.626
610.00,54.843
611.00,54.766
612.00,54.825
613.00,54.782
614.00,54.720
615.00,54.592
616.00,54.618
617.00,54.631
618.00,54.707
619.00,54.688
620.00,54.669
621.00,54.690
622.00,54.572
623.00,54.572
624.00,54.557
625.00,54.620
626.00,54.618
627.00,54.567
628.00,54.571
629.00,54.602
630.00,54.585
631.00,54.452
632.00,54.543
633.00,54.523
634.00,54.389
635.00,54.482
636.00,54.583
637.00,54.645
638.00,54.632
639.00,54.529
640.00,54.482
641.00,54.461
642.00,54.411
643.00,54.507
644.00,54.483
645.00,54.374
646.00,54.440
647.00,54.471
648.00,54.364
649.00,54.629
650.00,54.319
651.00,54.288
652.00,54.262
653.00,54.515
654.00,54.436
655.00,54.145
656.00,53.950
657.00,54.501
658.00,54.453
659.00,54.384
660.00,54.339
661.00,54.196
662.00,54.446
663.00,54.264
664.00,54.188
665.00,54.066
666.00,54.166
667.00,54.385
668.00,54.028
669.00,54.228
670.00,54.049
671.00,53.974
672.00,54.025
673.00,54.345
674.00,53.912
675.00,53.902
676.00,53.989
677.00,53.846
678.00,53.915
679.00,54.323
680.00,53.802
681.00,53.853
682.00,54.074
683.00,53.982
684.00,54.045
685.00,54.012
686.00,54.143
687.00,54.032
688.00,53.696
689.00,53.575
690.00,53.602
691.00,53.693
692.00,53.823
693.00,53.795
694.00,53.506
695.00,53.509
696.00,53.512
697.00,53.766
698.00,53.686
699.00,53.610
700.00,53.775
701.00,53.753
702.00,53.545
703.00,53.408
704.00,53.453
705.00,53.570
706.00,53.874
707.00,53.516
708.00,53.208
709.00,53.312
710.00,53.352
711.00,53.358
712.00,53.417
713.00,53.155
714.00,53.066
715.00,53.219
716.00,53.229
717.00,53.071
718.00,52.912
719.00,53.066
720.00,53.041
721.00,57.500
722.00,57.415
723.00,57.279
724.00,57.342
725.00,57.142
726.00,57.137
727.00,57.054
728.00,56.982
729.00,56.823
730.00,56.793
731.00,56.723
732.00,56.720
733.00,56.650
734.00,56.592
735.00,56.478
736.00,56.466
737.00,56.481
738.00,56.402
739.00,56.391
740.00,56.348
741.00,56.295
742.00,56.235
743.00,56.103
744.00,56.047
745.00,56.006
746.00,55.915
747.00,55.897
748.00,55.803
749.00,55.825
750.00,55.624
751.00,55.566
752.00,55.592
753.00,55.394
754.00,55.330
755.00,55.326
756.00,55.300
757.00,55.165
758.00,55.244
759.00,55.142
760.00,55.070
761.00,55.004
762.00,54.954
763.00,54.949
764.00,54.835
765.00,54.804
766.00,54.826
767.00,54.749
768.00,54.684
769.00,54.597
770.00,54.610
771.00,54.509
772.00,54.535
773.00,54.535
774.00,54.411
775.00,54.479
776.00,54.327
777.00,54.333
778.00,54.261
779.00,54.213
780.00,54.235
781.00,54.155
782.00,54.120
783.00,53.986
784.00,54.009
785.00,53.947
786.00,53.895
787.00,53.845
788.00,53.805
789.00,53.859
790.00,53.737
791.00,53.664
792.00,53.602
793.00,53.653
794.00,53.542
795.00,53.421
796.00,53.447
797.00,53.429
798.00,53.391
799.00,53.257
800.00,53.293
801.00,53.333
802.00,53.153
803.00,53.218
804.00,53.062
805.00,53.063
806.00,52.985
807.00,52.970
808.00,53.009
809.00,52.830
810.00,52.900
811.00,52.816
812.00,52.813
813.00,52.755
814.00,52.755
815.00,52.738
816.00,52.602
817.00,52.668
818.00,52.507
819.00,52.619
820.00,52.407
821.00,52.492
822.00,52.304
823.00,52.406
824.00,52.398
825.00,52.209
826.00,52.175
827.00,52.230
828.00,52.226
829.00,52.237
830.00,52.147
831.00,54.604
832.00,54.563
833.00,54.531
834.00,54.466
835.00,54.448
836.00,54.457
837.00,54.345
838.00,54.367
839.00,54.360
840.00,54.299
841.00,54.333
842.00,54.274
843.00,54.216
844.00,54.182
845.00,54.117
846.00,54.102
847.00,54.031
848.00,54.029
849.00,54.009
850.00,53.933
851.00,53.920
852.00,53.862
853.00,53.810
854.00,53.802
855.00,53.652
856.00,53.702
857.00,53.806
858.00,53.656
859.00,53.615
860.00,53.592
861.00,53.553
862.00,53.542
863.00,53.502
864.00,53.495
865.00,53.427
866.00,53.419
867.00,53.396
868.00,53.398
869.00,53.404
870.00,53.297
871.00,53.284
872.00,53.392
873.00,53.294
874.00,53.303
875.00,53.257
876.00,53.240
877.00,53.202
878.00,53.232
879.00,53.191
880.00,53.154
881.00,53.120
882.00,53.126
883.00,53.106
884.00,53.018
885.00,52.976
886.00,53.008
887.00,52.951
888.00,52.917
889.00,52.923
890.00,52.894
891.00,52.858
892.00,52.848
893.00,52.795
894.00,52.800
895.00,52.769
896.00,52.741
897.00,52.702
898.00,52.655
899.00,52.675
900.00,52.657
901.00,52.742
902.00,52.585
903.00,52.600
904.00,52.598
905.00,52.517
906.00,52.537
907.00,52.515
908.00,52.457
909.00,52.444
910.00,52.424
911.00,52.386
912.00,52.368
913.00,52.338
914.00,52.354
915.00,52.350
916.00,52.299
917.00,52.254
918.00,52.247
919.00,52.213
920.00,52.183
921.00,52.192
922.00,52.185
923.00,52.099
924.00,52.069
925.00,52.137
926.00,52.302
927.00,52.067
928.00,52.057
929.00,52.017
930.00,51.950
931.00,51.964
932.00,51.942
933.00,51.935
934.00,51.919
935.00,51.875
936.00,51.841
937.00,51.836
938.00,51.825
939.00,51.819
940.00,51.775
941.00,51.742
942.00,51.661
943.00,51.722
944.00,51.653
945.00,51.639
946.00,51.640
947.00,51.593
948.00,51.586
949.00,51.546
950.00,51.544
951.00,51.528
952.00,51.488
953.00,51.455
954.00,51.446
955.00,51.422
956.00,51.376
957.00,51.327
958.00,51.370
959.00,51.319
960.00,51.290
961.00,51.259
962.00,51.296
963.00,51.215
964.00,51.223
965.00,51.225
966.00,51.207
967.00,51.186
968.00,51.197
969.00,51.183
970.00,51.153
971.00,51.168
972.00,51.127
973.00,51.201
974.00,51.167
975.00,51.158
976.00,51.192
977.00,51.160
978.00,51.201
979.00,51.156
980.00,51.176
981.00,51.154
982.00,51.134
983.00,51.139
984.00,51.125
985.00,51.114
986.00,51.075
987.00,51.102
988.00,51.057
989.00,51.068
990.00,51.074
991.00,51.042
992.00,51.063
993.00,51.005
994.00,51.027
995.00,50.985
996.00,50.971
997.00,50.970
998.00,50.957
999.00,50.963
1000.00,50.923
1001.00,50.951
1002.00,50.905
1003.00,50.920
1004.00,50.885
1005.00,50.867
1006.00,50.885
1007.00,50.822
1008.00,50.835
1009.00,50.823
1010.00,50.804
1011.00,50.790
1012.00,50.779
1013.00,50.762
1014.00,50.729
1015.00,50.733
1016.00,50.715
1017.00,50.709
1018.00,50.676
1019.00,50.689
1020.00,50.674
1021.00,50.658
1022.00,50.696
1023.00,50.605
1024.00,50.587
1025.00,50.564
1026.00,50.573
1027.00,50.536
1028.00,50.523
1029.00,50.504
1030.00,50.483
1031.00,50.508
1032.00,50.448
1033.00,50.458
1034.00,50.404
1035.00,50.388
1036.00,50.372
1037.00,50.342
1038.00,50.332
1039.00,50.313
1040.00,50.315
1041.00,50.274
1042.00,50.280
1043.00,50.238
1044.00,50.283
1045.00,50.257
1046.00,50.273
1047.00,50.282
1048.00,50.281
1049.00,50.302
1050.00,50.298
1051.00,50.319
1052.00,50.324
1053.00,50.357
1054.00,50.342
1055.00,50.363
1056.00,50.369
1057.00,50.364
1058.00,50.355
1059.00,50.346
1060.00,50.364
1061.00,50.352
1062.00,50.319
1063.00,50.333
1064.00,50.322
1065.00,50.309
1066.00,50.287
1067.00,50.321
1068.00,50.335
1069.00,50.297
1070.00,50.286
1071.00,50.264
1072.00,50.267
1073.00,50.231
1074.00,50.249
1075.00,50.236
1076.00,50.225
1077.00,50.222
1078.00,50.212
1079.00,50.189
1080.00,50.215
1081.00,50.176
1082.00,50.188
1083.00,50.205
1084.00,50.178
1085.00,50.156
1086.00,50.156
1087.00,50.155
1088.00,50.143
1089.00,50.123
1090.00,50.117
1091.00,50.126
1092.00,50.110
1093.00,50.083
1094.00,50.090
1095.00,50.073
1096.00,50.075
1097.00,50.080
1098.00,50.035
1099.00,50.046
1100.00,50.049
1101.00,50.021
1102.00,50.018
1103.00,50.016
1104.00,49.999
1105.00,49.972
1106.00,49.969
1107.00,49.982
1108.00,49.970
1109.00,49.951
1110.00,49.965
1111.00,49.960
1112.00,49.936
1113.00,49.937
1114.00,49.935
1115.00,49.914
1116.00,49.917
1117.00,49.885
1118.00,49.894
1119.00,49.886
1120.00,49.865
1121.00,49.878
1122.00,49.880
1123.00,49.854
1124.00,49.868
1125.00,49.872
1126.00,49.862
1127.00,49.856
1128.00,49.859
1129.00,49.886
1130.00,49.827
1131.00,49.817
1132.00,49.816
1133.00,49.789
1134.00,49.808
1135.00,49.834
1136.00,49.812
1137.00,49.791
1138.00,49.806
1139.00,49.793
1140.00,49.784
1141.00,49.784
1142.00,49.772
1143.00,49.804
1144.00,49.795
1145.00,49.772
1146.00,49.770
1147.00,49.782
1148.00,49.762
1149.00,49.775
1150.00,49.769
1151.00,49.780
1152.00,49.773
1153.00,49.771
1154.00,49.762
1155.00,49.773
1156.00,49.752
1157.00,49.777
1158.00,49.757
1159.00,49.763
1160.00,49.745
1161.00,49.762
1162.00,49.752
1163.00,49.758
1164.00,49.729
1165.00,49.718
1166.00,49.732
1167.00,49.734
1168.00,49.766
1169.00,49.752
1170.00,49.747
1171.00,49.748
1172.00,49.743
1173.00,49.719
1174.00,49.763
1175.00,49.742
1176.00,49.737
1177.00,49.736
1178.00,49.743
1179.00,49.754
1180.00,49.728
1181.00,49.737
1182.00,49.752
1183.00,49.744
1184.00,49.711
1185.00,49.750
1186.00,49.720
1187.00,49.747
1188.00,49.724
1189.00,49.760
1190.00,49.767
1191.00,49.738
1192.00,49.755
1193.00,49.749
1194.00,49.753
1195.00,49.722
1196.00,49.756
1197.00,49.742
1198.00,49.735
1199.00,49.737
1200.00,49.758
1201.00,49.762
1202.00,49.748
1203.00,49.755
1204.00,49.749
1205.00,49.776
1206.00,49.734
1207.00,49.767
1208.00,49.734
1209.00,49.739
1210.00,49.739
1211.00,49.740
1212.00,49.771
1213.00,49.708
1214.00,49.749
1215.00,49.736
1216.00,49.727
1217.00,49.732
1218.00,49.753
1219.00,49.756
1220.00,49.725
1221.00,49.746
1222.00,49.739
1223.00,49.767
1224.00,49.751
1225.00,49.763
1226.00,49.780
1227.00,49.752
1228.00,49.760
1229.00,49.777
1230.00,49.802
1231.00,49.789
1232.00,49.832
1233.00,49.825
1234.00,49.852
1235.00,49.837
1236.00,49.857
1237.00,49.830
1238.00,49.835
1239.00,49.849
1240.00,49.848
1241.00,49.849
1242.00,49.827
1243.00,49.861
1244.00,49.844
1245.00,49.878
1246.00,49.876
1247.00,49.875
1248.00,49.860
1249.00,49.883
1250.00,49.918
1251.00,49.908
1252.00,49.901
1253.00,49.898
1254.00,49.914
1255.00,49.903
1256.00,49.913
1257.00,49.884
1258.00,49.931
1259.00,49.935
1260.00,49.937
1261.00,49.943
1262.00,49.967
1263.00,49.947
1264.00,49.938
1265.00,49.953
1266.00,49.974
1267.00,49.966
1268.00,49.966
1269.00,49.978
1270.00,50.013
1271.00,49.983
1272.00,49.990
1273.00,50.036
1274.00,50.022
1275.00,50.007
1276.00,50.044
1277.00,50.050
1278.00,50.059
1279.00,50.048
1280.00,50.060
1281.00,50.080
1282.00,50.083
1283.00,50.076
1284.00,50.085
1285.00,50.049
1286.00,50.062
1287.00,50.064
1288.00,50.095
1289.00,50.084
1290.00,50.112
1291.00,50.122
1292.00,50.129
1293.00,50.117
1294.00,50.087
1295.00,50.145
1296.00,50.167
1297.00,50.132
1298.00,50.180
1299.00,50.158
1300.00,50.182
1301.00,50.170
1302.00,50.197
1303.00,50.213
1304.00,50.190
1305.00,50.217
1306.00,50.233
1307.00,50.222
1308.00,50.227
1309.00,50.244
1310.00,50.261
1311.00,50.260
1312.00,50.266
1313.00,50.286
1314.00,50.312
1315.00,50.307
1316.00,50.324
1317.00,50.349
1318.00,50.335
1319.00,50.326
1320.00,50.344
1321.00,50.493
1322.00,50.500
1323.00,50.496
1324.00,50.518
1325.00,50.490
1326.00,50.501
1327.00,50.482
1328.00,50.488
1329.00,50.469
1330.00,50.495
1331.00,50.509
1332.00,50.508
1333.00,50.489
1334.00,50.536
1335.00,50.559
1336.00,50.593
1337.00,50.601
1338.00,50.696
1339.00,50.722
1340.00,50.777
1341.00,50.824
1342.00,50.899
1343.00,50.944
1344.00,50.998
1345.00,51.028
1346.00,51.097
1347.00,51.113
1348.00,51.133
1349.00,51.166
1350.00,51.192
1351.00,51.194
1352.00,51.211
1353.00,51.140
1354.00,51.229
1355.00,51.405
1356.00,51.233
1357.00,51.232
1358.00,51.258
1359.00,51.207
1360.00,51.315
1361.00,51.397
1362.00,51.281
1363.00,51.305
1364.00,51.384
1365.00,51.306
1366.00,51.342
1367.00,51.337
1368.00,51.308
1369.00,51.290
1370.00,51.270
1371.00,51.701
1372.00,51.301
1373.00,51.288
1374.00,51.324
1375.00,51.316
1376.00,51.321
1377.00,51.263
1378.00,51.382
1379.00,51.327
1380.00,51.364
1381.00,51.358
1382.00,51.371
1383.00,51.407
1384.00,51.288
1385.00,51.167
1386.00,51.251
1387.00,51.351
1388.00,51.317
1389.00,51.257
1390.00,51.172
1391.00,51.382
1392.00,51.318
1393.00,51.333
1394.00,51.346
1395.00,51.320
1396.00,51.298
1397.00,51.282
1398.00,51.196
1399.00,51.378
1400.00,51.252
1401.00,51.286
1402.00,51.338
1403.00,51.395
1404.00,51.335
1405.00,51.351
1406.00,51.349
1407.00,51.335
1408.00,51.374
1409.00,51.418
1410.00,51.405
1411.00,51.337
1412.00,51.501
1413.00,51.416
1414.00,51.368
1415.00,51.412
1416.00,51.468
1417.00,51.507
1418.00,51.503
1419.00,51.468
1420.00,51.496
1421.00,51.531
1422.00,51.544
1423.00,51.538
1424.00,51.561
1425.00,51.541
1426.00,51.551
1427.00,51.599
1428.00,51.598
1429.00,51.598
1430.00,51.636
1431.00,51.624
1432.00,51.664
1433.00,51.697
1434.00,51.673
1435.00,51.755
1436.00,51.746
1437.00,51.741
1438.00,51.760
1439.00,51.808
1440.00,51.822
1441.00,51.835
1442.00,51.839
1443.00,51.844
1444.00,51.897
1445.00,51.901
1446.00,51.914
1447.00,51.920
1448.00,51.937
1449.00,52.001
1450.00,52.024
1451.00,52.023
1452.00,52.033
1453.00,52.043
1454.00,52.078
1455.00,52.096
1456.00,52.113
1457.00,52.118
1458.00,52.094
1459.00,52.148
1460.00,52.173
1461.00,52.183
1462.00,52.218
1463.00,52.222
1464.00,52.248
1465.00,52.252
1466.00,52.243
1467.00,52.237
1468.00,52.328
1469.00,52.282
1470.00,52.306
1471.00,52.350
1472.00,52.362
1473.00,52.368
1474.00,52.405
1475.00,52.402
1476.00,52.435
1477.00,52.389
1478.00,52.410
1479.00,52.467
1480.00,52.471
1481.00,52.465
1482.00,52.478
1483.00,52.514
1484.00,52.496
1485.00,52.521
1486.00,52.543
1487.00,52.559
1488.00,52.569
1489.00,52.575
1490.00,52.589
1491.00,52.592
1492.00,52.655
1493.00,52.654
1494.00,52.684
1495.00,52.678
1496.00,52.696
1497.00,52.715
1498.00,52.714
1499.00,52.720
1500.00,52.749
1501.00, 
1502.00, 
1503.00, 
1504.00, 
1505.00, 
1506.00, 
1507.00, 
1508.00, 
1509.00, 
1510.00, 
1511.00, 
1512.00, 
1513.00, 
1514.00, 
1515.00, 
1516.00, 
1517.00, 
1518.00, 
1519.00, 
1520.00, 
1521.00, 
1522.00, 
1523.00, 
1524.00, 
1525.00, 
1526.00, 
1527.00, 
1528.00, 
1529.00, 
1530.00, 
1531.00, 
1532.00, 
1533.00, 
1534.00, 
1535.00, 
1536.00, 
1537.00, 
1538.00, 
1539.00, 
1540.00, 
1541.00, 
1542.00, 
1543.00, 
1544.00, 
1545.00, 
1546.00, 
1547.00, 
1548.00, 
1549.00, 
1550.00, 
1551.00, 
1552.00, 
1553.00, 
1554.00, 
1555.00, 
1556.00, 
1557.00, 
1558.00, 
1559.00, 
1560.00, 
1561.00, 
1562.00, 
1563.00, 
1564.00, 
1565.00, 
1566.00, 
1567.00, 
1568.00, 
1569.00, 
1570.00, 
1571.00, 
1572.00, 
1573.00, 
1574.00, 
1575.00, 
1576.00, 
1577.00, 
1578.00, 
1579.00, 
1580.00, 
1581.00, 
1582.00, 
1583.00, 
1584.00, 
1585.00, 
1586.00, 
1587.00, 
1588.00, 
1589.00, 
1590.00, 
1591.00, 
1592.00, 
1593.00, 
1594.00, 
1595.00, 
1596.00, 
1597.00, 
1598.00, 
1599.00, 
1600.00, 
1601.00, 
1602.00, 
1603.00, 
1604.00, 
1605.00, 
1606.00, 
1607.00, 
1608.00, 
1609.00, 
1610.00, 
1611.00, 
1612.00, 
1613.00, 
1614.00, 
1615.00, 
1616.00, 
1617.00, 
1618.00, 
1619.00, 
1620.00, 
1621.00, 
1622.00, 
1623.00, 
1624.00, 
1625.00, 
1626.00, 
1627.00, 
1628.00, 
1629.00, 
1630.00, 
1631.00, 
1632.00, 
1633.00, 
1634.00, 
1635.00, 
1636.00, 
1637.00, 
1638.00, 
1639.00, 
1640.00, 
1641.00, 
1642.00, 
1643.00, 
1644.00, 
1645.00, 
1646.00, 
1647.00, 
1648.00, 
1649.00, 
1650.00, 
1651.00, 
1652.00, 
1653.00, 
1654.00, 
1655.00, 
1656.00, 
1657.00, 
1658.00, 
1659.00, 
1660.00, 
1661.00, 
1662.00, 
1663.00, 
1664.00, 
1665.00, 
1666.00, 
1667.00, 
1668.00, 
1669.00, 
1670.00, 
1671.00, 
1672.00, 
1673.00, 
1674.00, 
1675.00, 
1676.00, 
1677.00, 
1678.00, 
1679.00, 
1680.00, 
1681.00, 
1682.00, 
1683.00, 
1684.00, 
1685.00, 
1686.00, 
1687.00, 
1688.00, 
1689.00, 
1690.00, 
1691.00, 
1692.00, 
1693.00, 
1694.00, 
1695.00, 
1696.00, 
1697.00, 
1698.00, 
1699.00, 
1700.00, 
1701.00, 
1702.00, 
1703.00, 
1704.00, 
1705.00, 
1706.00, 
1707.00, 
1708.00, 
1709.00, 
1710.00, 
1711.00, 
1712.00, 
1713.00, 
1714.00, 
1715.00, 
1716.00, 
1717.00, 
1718.00, 
1719.00, 
1720.00, 
1721.00, 
1722.00, 
1723.00, 
1724.00, 
1725.00, 
1726.00, 
1727.00, 
1728.00, 
1729.00, 
1730.00, 
1731.00, 
1732.00, 
1733.00, 
1734.00, 
1735.00, 
1736.00, 
1737.00, 
1738.00, 
1739.00, 
1740.00, 
1741.00, 
1742.00, 
1743.00, 
1744.00, 
1745.00, 
1746.00, 
1747.00, 
1748.00, 
1749.00, 
1750.00, 
1751.00, 
1752.00, 
1753.00, 
1754.00, 
1755.00, 
1756.00, 
1757.00, 
1758.00, 
1759.00, 
1760.00, 
1761.00, 
1762.00, 
1763.00, 
1764.00, 
1765.00, 
1766.00, 
1767.00, 
1768.00, 
1769.00, 
1770.00, 
1771.00, 
1772.00, 
1773.00, 
1774.00, 
1775.00, 
1776.00, 
1777.00, 
1778.00, 
1779.00, 
1780.00, 
1781.00, 
1782.00, 
1783.00, 
1784.00, 
1785.00, 
1786.00, 
1787.00, 
1788.00, 
1789.00, 
1790.00, 
1791.00, 
1792.00, 
1793.00, 
1794.00, 
1795.00, 
1796.00, 
1797.00, 
1798.00, 
1799.00, 
1800.00, 
1801.00, 
1802.00, 
1803.00, 
1804.00, 
1805.00, 
1806.00, 
1807.00, 
1808.00, 
1809.00, 
1810.00, 
1811.00, 
1812.00, 
1813.00, 
1814.00, 
1815.00, 
1816.00, 
1817.00, 
1818.00, 
1819.00, 
1820.00, 
1821.00, 
1822.00, 
1823.00, 
1824.00, 
1825.00, 
1826.00, 
1827.00, 
1828.00, 
1829.00, 
1830.00, 
1831.00, 
1832.00, 
1833.00, 
1834.00, 
1835.00, 
1836.00, 
1837.00, 
1838.00, 
1839.00, 
1840.00, 
1841.00, 
1842.00, 
1843.00, 
1844.00, 
1845.00, 
1846.00, 
1847.00, 
1848.00, 
1849.00, 
1850.00, 
1851.00, 
1852.00, 
1853.00, 
1854.00, 
1855.00, 
1856.00, 
1857.00, 
1858.00, 
1859.00, 
1860.00, 
1861.00, 
1862.00, 
1863.00, 
1864.00, 
1865.00, 
1866.00, 
1867.00, 
1868.00, 
1869.00, 
1870.00, 
1871.00, 
1872.00, 
1873.00, 
1874.00, 
1875.00, 
1876.00, 
1877.00, 
1878.00, 
1879.00, 
1880.00, 
1881.00, 
1882.00, 
1883.00, 
1884.00, 
1885.00, 
1886.00, 
1887.00, 
1888.00, 
1889.00, 
1890.00, 
1891.00, 
1892.00, 
1893.00, 
1894.00, 
1895.00, 
1896.00, 
1897.00, 
1898.00, 
1899.00, 
1900.00, 
1901.00, 
1902.00, 
1903.00, 
1904.00, 
1905.00, 
1906.00, 
1907.00, 
1908.00, 
1909.00, 
1910.00, 
1911.00, 
1912.00, 
1913.00, 
1914.00, 
1915.00, 
1916.00, 
1917.00, 
1918.00, 
1919.00, 
1920.00, 
1921.00, 
1922.00, 
1923.00, 
1924.00, 
1925.00, 
1926.00, 
1927.00, 
1928.00, 
1929.00, 
1930.00, 
1931.00, 
1932.00, 
1933.00, 
1934.00, 
1935.00, 
1936.00, 
1937.00, 
1938.00, 
1939.00, 
1940.00, 
1941.00, 
1942.00, 
1943.00, 
1944.00, 
1945.00, 
1946.00, 
1947.00, 
1948.00, 
1949.00, 
1950.00, 
1951.00, 
1952.00, 
1953.00, 
1954.00, 
1955.00, 
1956.00, 
1957.00, 
1958.00, 
1959.00, 
1960.00, 
1961.00, 
1962.00, 
1963.00, 
1964.00, 
1965.00, 
1966.00, 
1967.00, 
1968.00, 
1969.00, 
1970.00, 
1971.00, 
1972.00, 
1973.00, 
1974.00, 
1975.00, 
1976.00, 
1977.00, 
1978.00, 
1979.00, 
1980.00, 
1981.00, 
1982.00, 
1983.00, 
1984.00, 
1985.00, 
1986.00, 
1987.00, 
1988.00, 
1989.00, 
1990.00, 
1991.00, 
1992.00, 
1993.00, 
1994.00, 
1995.00, 
1996.00, 
1997.00, 
1998.00, 
1999.00, 
2000.00, 
2001.00, 
2002.00, 
2003.00, 
2004.00, 
2005.00, 
2006.00, 
2007.00, 
2008.00, 
2009.00, 
2010.00, 
2011.00, 
2012.00, 
2013.00, 
2014.00, 
2015.00, 
2016.00, 
2017.00, 
2018.00, 
2019.00, 
2020.00, 
2021.00, 
2022.00, 
2023.00, 
2024.00, 
2025.00, 
2026.00, 
2027.00, 
2028.00, 
2029.00, 
2030.00, 
2031.00, 
2032.00, 
2033.00, 
2034.00, 
2035.00, 
2036.00, 
2037.00, 
2038.00, 
2039.00, 
2040.00, 
2041.00, 
2042.00, 
2043.00, 
2044.00, 
2045.00, 
2046.00, 
2047.00, 
2048.00, 
2049.00, 
2050.00, 
2051.00, 
2052.00, 
2053.00, 
2054.00, 
2055.00, 
2056.00, 
2057.00, 
2058.00, 
2059.00, 
2060.00, 
2061.00, 
2062.00, 
2063.00, 
2064.00, 
2065.00, 
2066.00, 
2067.00, 
2068.00, 
2069.00, 
2070.00, 
2071.00, 
2072.00, 
2073.00, 
2074.00, 
2075.00, 
2076.00, 
2077.00, 
2078.00, 
2079.00, 
2080.00, 
2081.00, 
2082.00, 
2083.00, 
2084.00, 
2085.00, 
2086.00, 
2087.00, 
2088.00, 
2089.00, 
2090.00, 
2091.00, 
2092.00, 
2093.00, 
2094.00, 
2095.00, 
2096.00, 
2097.00, 
2098.00, 
2099.00, 
2100.00, 
2101.00, 
2102.00, 
2103.00, 
2104.00, 
2105.00, 
2106.00, 
2107.00, 
2108.00, 
2109.00, 
2110.00, 
2111.00, 
2112.00, 
2113.00, 
2114.00, 
2115.00, 
2116.00, 
2117.00, 
2118.00, 
2119.00, 
2120.00, 
2121.00, 
2122.00, 
2123.00, 
2124.00, 
2125.00, 
2126.00, 
2127.00, 
2128.00, 
2129.00, 
2130.00, 
2131.00, 
2132.00, 
2133.00, 
2134.00, 
2135.00, 
2136.00, 
2137.00, 
2138.00, 
2139.00, 
2140.00, 
2141.00, 
2142.00, 
2143.00, 
2144.00, 
2145.00, 
2146.00, 
2147.00, 
2148.00, 
2149.00, 
2150.00, 
2151.00, 
2152.00, 
2153.00, 
2154.00, 
2155.00, 
2156.00, 
2157.00, 
2158.00, 
2159.00, 
2160.00, 
2161.00, 
2162.00, 
2163.00, 
2164.00, 
2165.00, 
2166.00, 
2167.00, 
2168.00, 
2169.00, 
2170.00, 
2171.00, 
2172.00, 
2173.00, 
2174.00, 
2175.00, 
2176.00, 
2177.00, 
2178.00, 
2179.00, 
2180.00, 
2181.00, 
2182.00, 
2183.00, 
2184.00, 
2185.00, 
2186.00, 
2187.00, 
2188.00, 
2189.00, 
2190.00, 
2191.00, 
2192.00, 
2193.00, 
2194.00, 
2195.00, 
2196.00, 
2197.00, 
2198.00, 
2199.00, 
2200.00, 
2201.00, 
2202.00, 
2203.00, 
2204.00, 
2205.00, 
2206.00, 
2207.00, 
2208.00, 
2209.00, 
2210.00, 
2211.00, 
2212.00, 
2213.00, 
2214.00, 
2215.00, 
2216.00, 
2217.00, 
2218.00, 
2219.00, 
2220.00, 
2221.00, 
2222.00, 
2223.00, 
2224.00, 
2225.00, 
2226.00, 
2227.00, 
2228.00, 
2229.00, 
2230.00, 
2231.00, 
2232.00, 
2233.00, 
2234.00, 
2235.00, 
2236.00, 
2237.00, 
2238.00, 
2239.00, 
2240.00, 
2241.00, 
2242.00, 
2243.00, 
2244.00, 
2245.00, 
2246.00, 
2247.00, 
2248.00, 
2249.00, 
2250.00, 
2251.00, 
2252.00, 
2253.00, 
2254.00, 
2255.00, 
2256.00, 
2257.00, 
2258.00, 
2259.00, 
2260.00, 
2261.00, 
2262.00, 
2263.00, 
2264.00, 
2265.00, 
2266.00, 
2267.00, 
2268.00, 
2269.00, 
2270.00, 
2271.00, 
2272.00, 
2273.00, 
2274.00, 
2275.00, 
2276.00, 
2277.00, 
2278.00, 
2279.00, 
2280.00, 
2281.00, 
2282.00, 
2283.00, 
2284.00, 
2285.00, 
2286.00, 
2287.00, 
2288.00, 
2289.00, 
2290.00, 
2291.00, 
2292.00, 
2293.00, 
2294.00, 
2295.00, 
2296.00, 
2297.00, 
2298.00, 
2299.00, 
2300.00, 
2301.00, 
2302.00, 
2303.00, 
2304.00, 
2305.00, 
2306.00, 
2307.00, 
2308.00, 
2309.00, 
2310.00, 
2311.00, 
2312.00, 
2313.00, 
2314.00, 
2315.00, 
2316.00, 
2317.00, 
2318.00, 
2319.00, 
2320.00, 
2321.00, 
2322.00, 
2323.00, 
2324.00, 
2325.00, 
2326.00, 
2327.00, 
2328.00, 
2329.00, 
2330.00, 
2331.00, 
2332.00, 
2333.00, 
2334.00, 
2335.00, 
2336.00, 
2337.00, 
2338.00, 
2339.00, 
2340.00, 
2341.00, 
2342.00, 
2343.00, 
2344.00, 
2345.00, 
2346.00, 
2347.00, 
2348.00, 
2349.00, 
2350.00, 
2351.00, 
2352.00, 
2353.00, 
2354.00, 
2355.00, 
2356.00, 
2357.00, 
2358.00, 
2359.00, 
2360.00, 
2361.00, 
2362.00, 
2363.00, 
2364.00, 
2365.00, 
2366.00, 
2367.00, 
2368.00, 
2369.00, 
2370.00, 
2371.00, 
2372.00, 
2373.00, 
2374.00, 
2375.00, 
2376.00, 
2377.00, 
2378.00, 
2379.00, 
2380.00, 
2381.00, 
2382.00, 
2383.00, 
2384.00, 
2385.00, 
2386.00, 
2387.00, 
2388.00, 
2389.00, 
2390.00, 
2391.00, 
2392.00, 
2393.00, 
2394.00, 
2395.00, 
2396.00, 
2397.00, 
2398.00, 
2399.00, 
2400.00, 
2401.00, 
2402.00, 
2403.00, 
2404.00, 
2405.00, 
2406.00, 
2407.00, 
2408.00, 
2409.00, 
2410.00, 
2411.00, 
2412.00, 
2413.00, 
2414.00, 
2415.00, 
2416.00, 
2417.00, 
2418.00, 
2419.00, 
2420.00, 
2421.00, 
2422.00, 
2423.00, 
2424.00, 
2425.00, 
2426.00, 
2427.00, 
2428.00, 
2429.00, 
2430.00, 
2431.00, 
2432.00, 
2433.00, 
2434.00, 
2435.00, 
2436.00, 
2437.00, 
2438.00, 
2439.00, 
2440.00, 
2441.00, 
2442.00, 
2443.00, 
2444.00, 
2445.00, 
2446.00, 
2447.00, 
2448.00, 
2449.00, 
2450.00, 
2451.00, 
2452.00, 
2453.00, 
2454.00, 
2455.00, 
2456.00, 
2457.00, 
2458.00, 
2459.00, 
2460.00, 
2461.00, 
2462.00, 
2463.00, 
2464.00, 
2465.00, 
2466.00, 
2467.00, 
2468.00, 
2469.00, 
2470.00, 
2471.00, 
2472.00, 
2473.00, 
2474.00, 
2475.00, 
2476.00, 
2477.00, 
2478.00, 
2479.00, 
2480.00, 
2481.00, 
2482.00, 
2483.00, 
2484.00, 
2485.00, 
2486.00, 
2487.00, 
2488.00, 
2489.00, 
2490.00, 
2491.00, 
2492.00, 
2493.00, 
2494.00, 
2495.00, 
2496.00, 
2497.00, 
2498.00, 
2499.00, 
2500.00, 
2501.00, 
2502.00, 
2503.00, 
2504.00, 
2505.00, 
2506.00, 
2507.00, 
2508.00, 
2509.00, 
2510.00, 
2511.00, 
2512.00, 
2513.00, 
2514.00, 
2515.00, 
2516.00, 
2517.00, 
2518.00, 
2519.00, 
2520.00, 
2521.00, 
2522.00, 
2523.00, 
2524.00, 
2525.00, 
2526.00, 
2527.00, 
2528.00, 
2529.00, 
2530.00, 
2531.00, 
2532.00, 
2533.00, 
2534.00, 
2535.00, 
2536.00, 
2537.00, 
2538.00, 
2539.00, 
2540.00, 
2541.00, 
2542.00, 
2543.00, 
2544.00, 
2545.00, 
2546.00, 
2547.00, 
2548.00, 
2549.00, 
2550.00, 
2551.00, 
2552.00, 
2553.00, 
2554.00, 
2555.00, 
2556.00, 
2557.00, 
2558.00, 
2559.00, 
2560.00, 
2561.00, 
2562.00, 
2563.00, 
2564.00, 
2565.00, 
2566.00, 
2567.00, 
2568.00, 
2569.00, 
2570.00, 
2571.00, 
2572.00, 
2573.00, 
2574.00, 
2575.00, 
2576.00, 
2577.00, 
2578.00, 
2579.00, 
2580.00, 
2581.00, 
2582.00, 
2583.00, 
2584.00, 
2585.00, 
2586.00, 
2587.00, 
2588.00, 
2589.00, 
2590.00, 
2591.00, 
2592.00, 
2593.00, 
2594.00, 
2595.00, 
2596.00, 
2597.00, 
2598.00, 
2599.00, 
2600.00, 
