"1cP5 - RawData"
"Wavelength nm.","T%"
200.00,0.003
201.00,0.002
202.00,0.001
203.00,-0.002
204.00,-0.000
205.00,0.004
206.00,0.000
207.00,0.002
208.00,0.002
209.00,0.004
210.00,0.000
211.00,0.001
212.00,0.002
213.00,-0.001
214.00,0.002
215.00,0.002
216.00,0.002
217.00,0.002
218.00,0.003
219.00,0.001
220.00,-0.002
221.00,0.003
222.00,-0.001
223.00,0.003
224.00,-0.001
225.00,0.001
226.00,0.002
227.00,0.000
228.00,0.000
229.00,-0.000
230.00,0.001
231.00,0.002
232.00,0.003
233.00,0.003
234.00,0.001
235.00,0.000
236.00,0.001
237.00,0.000
238.00,0.001
239.00,0.001
240.00,0.001
241.00,0.002
242.00,-0.001
243.00,0.001
244.00,-0.001
245.00,-0.001
246.00,0.001
247.00,0.001
248.00,0.002
249.00,0.001
250.00,0.001
251.00,-0.002
252.00,-0.001
253.00,0.002
254.00,0.002
255.00,0.001
256.00,0.002
257.00,0.002
258.00,-0.001
259.00,-0.000
260.00,0.001
261.00,-0.000
262.00,0.002
263.00,0.001
264.00,0.000
265.00,0.000
266.00,0.001
267.00,0.000
268.00,0.001
269.00,0.000
270.00,0.001
271.00,-0.000
272.00,0.001
273.00,-0.001
274.00,0.000
275.00,0.000
276.00,0.000
277.00,0.000
278.00,0.002
279.00,0.001
280.00,-0.000
281.00,0.001
282.00,0.002
283.00,0.003
284.00,-0.000
285.00,0.000
286.00,-0.000
287.00,-0.001
288.00,0.003
289.00,0.000
290.00,-0.000
291.00,0.000
292.00,0.000
293.00,0.001
294.00,-0.001
295.00,0.001
296.00,0.001
297.00,0.001
298.00,0.000
299.00,0.001
300.00,0.001
301.00,0.002
302.00,0.000
303.00,0.002
304.00,0.002
305.00,0.003
306.00,0.003
307.00,0.005
308.00,0.007
309.00,0.014
310.00,0.021
311.00,0.033
312.00,0.050
313.00,0.075
314.00,0.112
315.00,0.171
316.00,0.238
317.00,0.340
318.00,0.461
319.00,0.619
320.00,0.799
321.00,1.059
322.00,1.365
323.00,1.724
324.00,2.115
325.00,2.553
326.00,3.052
327.00,3.611
328.00,4.237
329.00,4.851
330.00,5.573
331.00,6.276
332.00,7.078
333.00,7.905
334.00,8.706
335.00,9.582
336.00,10.469
337.00,11.375
338.00,12.240
339.00,13.015
340.00,13.928
341.00,14.779
342.00,15.576
343.00,16.371
344.00,17.105
345.00,17.867
346.00,18.477
347.00,19.216
348.00,19.884
349.00,20.518
350.00,21.110
351.00,21.637
352.00,22.127
353.00,22.660
354.00,22.993
355.00,23.433
356.00,23.910
357.00,24.307
358.00,24.589
359.00,24.897
360.00,25.171
361.00,25.400
362.00,25.636
363.00,25.867
364.00,26.190
365.00,26.372
366.00,26.508
367.00,26.629
368.00,26.733
369.00,26.792
370.00,26.915
371.00,26.949
372.00,26.975
373.00,26.934
374.00,26.868
375.00,26.782
376.00,26.845
377.00,26.762
378.00,26.663
379.00,26.578
380.00,26.561
381.00,26.556
382.00,26.608
383.00,26.682
384.00,26.734
385.00,26.861
386.00,26.859
387.00,27.001
388.00,27.113
389.00,27.166
390.00,27.268
391.00,27.335
392.00,27.446
393.00,27.494
394.00,27.482
395.00,27.539
396.00,27.569
397.00,27.590
398.00,27.617
399.00,27.660
400.00,27.661
401.00,27.718
402.00,27.693
403.00,27.688
404.00,27.663
405.00,27.718
406.00,27.728
407.00,27.630
408.00,27.627
409.00,27.586
410.00,27.516
411.00,27.521
412.00,27.483
413.00,27.513
414.00,27.539
415.00,27.500
416.00,27.524
417.00,27.607
418.00,27.624
419.00,27.648
420.00,27.600
421.00,27.683
422.00,27.765
423.00,27.770
424.00,27.661
425.00,27.779
426.00,27.902
427.00,27.889
428.00,27.950
429.00,27.982
430.00,27.910
431.00,28.082
432.00,28.069
433.00,28.214
434.00,28.220
435.00,28.240
436.00,28.341
437.00,28.432
438.00,28.480
439.00,28.519
440.00,28.602
441.00,28.694
442.00,28.757
443.00,28.775
444.00,28.860
445.00,28.914
446.00,29.110
447.00,29.271
448.00,29.304
449.00,29.393
450.00,29.479
451.00,29.624
452.00,29.760
453.00,29.855
454.00,30.011
455.00,30.108
456.00,30.172
457.00,30.324
458.00,30.449
459.00,30.610
460.00,30.674
461.00,30.815
462.00,30.933
463.00,31.010
464.00,31.217
465.00,31.306
466.00,31.416
467.00,31.556
468.00,31.663
469.00,31.820
470.00,31.860
471.00,31.975
472.00,32.121
473.00,32.211
474.00,32.305
475.00,32.437
476.00,32.530
477.00,32.691
478.00,32.822
479.00,32.867
480.00,33.098
481.00,33.197
482.00,33.292
483.00,33.367
484.00,33.525
485.00,33.786
486.00,33.785
487.00,33.981
488.00,34.121
489.00,34.212
490.00,34.349
491.00,34.415
492.00,34.691
493.00,34.690
494.00,34.755
495.00,34.908
496.00,35.050
497.00,35.137
498.00,35.281
499.00,35.407
500.00,35.477
501.00,35.610
502.00,35.714
503.00,35.889
504.00,36.028
505.00,36.100
506.00,36.202
507.00,36.326
508.00,36.377
509.00,36.495
510.00,36.611
511.00,36.764
512.00,36.812
513.00,36.998
514.00,37.150
515.00,37.204
516.00,37.332
517.00,37.464
518.00,37.558
519.00,37.666
520.00,37.743
521.00,37.769
522.00,37.889
523.00,38.015
524.00,38.064
525.00,38.148
526.00,38.239
527.00,38.326
528.00,38.448
529.00,38.434
530.00,38.424
531.00,38.686
532.00,38.721
533.00,38.746
534.00,38.829
535.00,38.949
536.00,38.989
537.00,39.050
538.00,39.177
539.00,39.266
540.00,39.298
541.00,39.338
542.00,39.405
543.00,39.428
544.00,39.509
545.00,39.498
546.00,39.561
547.00,39.635
548.00,39.692
549.00,39.777
550.00,39.863
551.00,39.885
552.00,39.986
553.00,40.077
554.00,40.182
555.00,40.184
556.00,40.232
557.00,40.228
558.00,40.281
559.00,40.341
560.00,40.461
561.00,40.516
562.00,40.566
563.00,40.600
564.00,40.622
565.00,40.624
566.00,40.668
567.00,40.626
568.00,40.700
569.00,40.697
570.00,40.619
571.00,40.709
572.00,40.794
573.00,40.782
574.00,40.911
575.00,40.891
576.00,40.864
577.00,40.988
578.00,40.980
579.00,40.984
580.00,41.086
581.00,41.111
582.00,41.194
583.00,41.262
584.00,41.335
585.00,41.364
586.00,41.368
587.00,41.448
588.00,41.460
589.00,41.546
590.00,41.528
591.00,41.525
592.00,41.567
593.00,41.647
594.00,41.609
595.00,41.568
596.00,41.705
597.00,41.735
598.00,41.814
599.00,41.846
600.00,41.929
601.00,41.986
602.00,41.999
603.00,42.087
604.00,42.014
605.00,41.980
606.00,42.149
607.00,42.126
608.00,42.171
609.00,42.080
610.00,42.180
611.00,42.225
612.00,42.241
613.00,42.284
614.00,42.364
615.00,42.227
616.00,42.281
617.00,42.354
618.00,42.583
619.00,42.568
620.00,42.561
621.00,42.604
622.00,42.594
623.00,42.680
624.00,42.701
625.00,42.751
626.00,42.826
627.00,42.840
628.00,42.856
629.00,42.947
630.00,43.014
631.00,42.949
632.00,42.984
633.00,43.038
634.00,43.031
635.00,43.198
636.00,43.326
637.00,43.502
638.00,43.527
639.00,43.445
640.00,43.511
641.00,43.555
642.00,43.590
643.00,43.661
644.00,43.756
645.00,43.750
646.00,43.812
647.00,43.896
648.00,43.866
649.00,44.090
650.00,44.052
651.00,44.137
652.00,44.176
653.00,44.428
654.00,44.436
655.00,44.329
656.00,44.230
657.00,44.771
658.00,44.696
659.00,44.753
660.00,44.777
661.00,44.727
662.00,45.096
663.00,45.014
664.00,44.943
665.00,44.944
666.00,45.142
667.00,45.322
668.00,45.083
669.00,45.413
670.00,45.345
671.00,45.384
672.00,45.545
673.00,45.732
674.00,45.591
675.00,45.591
676.00,45.659
677.00,45.864
678.00,45.961
679.00,46.074
680.00,46.086
681.00,46.049
682.00,46.331
683.00,46.385
684.00,46.367
685.00,46.465
686.00,46.681
687.00,46.717
688.00,46.641
689.00,46.529
690.00,46.621
691.00,46.738
692.00,46.938
693.00,46.994
694.00,46.915
695.00,46.936
696.00,47.065
697.00,47.303
698.00,47.344
699.00,47.326
700.00,47.450
701.00,47.661
702.00,47.645
703.00,47.539
704.00,47.785
705.00,47.774
706.00,48.034
707.00,47.864
708.00,47.721
709.00,47.918
710.00,47.998
711.00,48.080
712.00,48.134
713.00,48.089
714.00,47.948
715.00,48.165
716.00,48.302
717.00,48.098
718.00,48.215
719.00,48.318
720.00,48.421
721.00,52.536
722.00,52.479
723.00,52.497
724.00,52.576
725.00,52.547
726.00,52.548
727.00,52.539
728.00,52.620
729.00,52.478
730.00,52.485
731.00,52.544
732.00,52.608
733.00,52.647
734.00,52.557
735.00,52.655
736.00,52.633
737.00,52.725
738.00,52.662
739.00,52.689
740.00,52.712
741.00,52.714
742.00,52.681
743.00,52.705
744.00,52.676
745.00,52.687
746.00,52.607
747.00,52.674
748.00,52.599
749.00,52.711
750.00,52.608
751.00,52.612
752.00,52.648
753.00,52.526
754.00,52.524
755.00,52.590
756.00,52.558
757.00,52.511
758.00,52.534
759.00,52.587
760.00,52.600
761.00,52.557
762.00,52.516
763.00,52.542
764.00,52.500
765.00,52.491
766.00,52.516
767.00,52.503
768.00,52.503
769.00,52.501
770.00,52.491
771.00,52.452
772.00,52.469
773.00,52.436
774.00,52.440
775.00,52.549
776.00,52.434
777.00,52.498
778.00,52.434
779.00,52.472
780.00,52.432
781.00,52.472
782.00,52.397
783.00,52.355
784.00,52.402
785.00,52.343
786.00,52.332
787.00,52.320
788.00,52.318
789.00,52.350
790.00,52.291
791.00,52.297
792.00,52.163
793.00,52.253
794.00,52.164
795.00,52.180
796.00,52.115
797.00,52.072
798.00,52.138
799.00,51.991
800.00,52.068
801.00,52.082
802.00,52.004
803.00,52.031
804.00,51.999
805.00,51.966
806.00,51.873
807.00,51.883
808.00,51.878
809.00,51.770
810.00,51.869
811.00,51.797
812.00,51.826
813.00,51.783
814.00,51.786
815.00,51.750
816.00,51.685
817.00,51.763
818.00,51.644
819.00,51.716
820.00,51.595
821.00,51.663
822.00,51.519
823.00,51.611
824.00,51.624
825.00,51.403
826.00,51.376
827.00,51.450
828.00,51.438
829.00,51.507
830.00,51.450
831.00,53.898
832.00,53.914
833.00,53.905
834.00,53.825
835.00,53.800
836.00,53.827
837.00,53.768
838.00,53.739
839.00,53.729
840.00,53.690
841.00,53.740
842.00,53.675
843.00,53.671
844.00,53.630
845.00,53.637
846.00,53.597
847.00,53.545
848.00,53.570
849.00,53.515
850.00,53.507
851.00,53.432
852.00,53.414
853.00,53.411
854.00,53.361
855.00,53.214
856.00,53.299
857.00,53.256
858.00,53.244
859.00,53.239
860.00,53.229
861.00,53.192
862.00,53.198
863.00,53.158
864.00,53.129
865.00,53.122
866.00,53.079
867.00,53.107
868.00,53.114
869.00,53.090
870.00,52.981
871.00,53.063
872.00,53.059
873.00,53.017
874.00,53.062
875.00,53.014
876.00,52.986
877.00,52.955
878.00,53.009
879.00,52.955
880.00,52.911
881.00,52.905
882.00,52.946
883.00,52.749
884.00,52.777
885.00,53.001
886.00,52.837
887.00,52.772
888.00,52.753
889.00,52.754
890.00,52.765
891.00,52.711
892.00,52.691
893.00,52.644
894.00,52.647
895.00,52.636
896.00,52.604
897.00,52.572
898.00,52.539
899.00,52.554
900.00,52.504
901.00,52.511
902.00,52.513
903.00,52.499
904.00,52.488
905.00,52.487
906.00,52.470
907.00,52.431
908.00,52.379
909.00,52.403
910.00,52.377
911.00,52.355
912.00,52.337
913.00,52.282
914.00,52.298
915.00,52.290
916.00,52.251
917.00,52.205
918.00,52.206
919.00,52.192
920.00,52.150
921.00,52.140
922.00,52.149
923.00,52.132
924.00,52.095
925.00,52.081
926.00,52.074
927.00,52.033
928.00,51.997
929.00,52.021
930.00,51.952
931.00,51.936
932.00,51.901
933.00,51.935
934.00,51.939
935.00,51.888
936.00,51.858
937.00,51.831
938.00,51.829
939.00,51.819
940.00,51.795
941.00,51.771
942.00,51.686
943.00,51.745
944.00,51.671
945.00,51.660
946.00,51.676
947.00,51.627
948.00,51.627
949.00,51.591
950.00,51.600
951.00,51.574
952.00,51.522
953.00,51.492
954.00,51.480
955.00,51.436
956.00,51.414
957.00,51.447
958.00,51.399
959.00,51.343
960.00,51.333
961.00,51.307
962.00,51.332
963.00,51.278
964.00,51.283
965.00,51.279
966.00,51.269
967.00,51.255
968.00,51.250
969.00,51.253
970.00,51.234
971.00,51.240
972.00,51.178
973.00,51.279
974.00,51.239
975.00,51.219
976.00,51.251
977.00,51.214
978.00,51.262
979.00,51.230
980.00,51.266
981.00,51.224
982.00,51.194
983.00,51.193
984.00,51.202
985.00,51.206
986.00,51.157
987.00,51.206
988.00,51.149
989.00,51.148
990.00,51.131
991.00,51.103
992.00,51.117
993.00,51.068
994.00,51.087
995.00,51.061
996.00,51.047
997.00,51.042
998.00,51.022
999.00,51.038
1000.00,50.994
1001.00,51.023
1002.00,50.988
1003.00,50.989
1004.00,50.968
1005.00,50.935
1006.00,50.976
1007.00,50.925
1008.00,50.910
1009.00,50.899
1010.00,50.895
1011.00,50.869
1012.00,50.849
1013.00,50.863
1014.00,50.816
1015.00,50.829
1016.00,50.792
1017.00,50.815
1018.00,50.798
1019.00,50.755
1020.00,50.776
1021.00,50.729
1022.00,50.717
1023.00,50.712
1024.00,50.711
1025.00,50.656
1026.00,50.681
1027.00,50.652
1028.00,50.649
1029.00,50.614
1030.00,50.583
1031.00,50.619
1032.00,50.531
1033.00,50.551
1034.00,50.567
1035.00,50.515
1036.00,50.469
1037.00,50.455
1038.00,50.433
1039.00,50.416
1040.00,50.379
1041.00,50.377
1042.00,50.381
1043.00,50.322
1044.00,50.371
1045.00,50.358
1046.00,50.410
1047.00,50.377
1048.00,50.390
1049.00,50.396
1050.00,50.405
1051.00,50.419
1052.00,50.422
1053.00,50.463
1054.00,50.441
1055.00,50.443
1056.00,50.478
1057.00,50.474
1058.00,50.455
1059.00,50.463
1060.00,50.473
1061.00,50.465
1062.00,50.427
1063.00,50.433
1064.00,50.447
1065.00,50.417
1066.00,50.390
1067.00,50.428
1068.00,50.428
1069.00,50.388
1070.00,50.370
1071.00,50.356
1072.00,50.372
1073.00,50.315
1074.00,50.345
1075.00,50.324
1076.00,50.325
1077.00,50.313
1078.00,50.335
1079.00,50.335
1080.00,50.309
1081.00,50.296
1082.00,50.298
1083.00,50.272
1084.00,50.257
1085.00,50.264
1086.00,50.257
1087.00,50.238
1088.00,50.237
1089.00,50.231
1090.00,50.229
1091.00,50.233
1092.00,50.252
1093.00,50.213
1094.00,50.224
1095.00,50.232
1096.00,50.193
1097.00,50.194
1098.00,50.162
1099.00,50.148
1100.00,50.162
1101.00,50.134
1102.00,50.118
1103.00,50.120
1104.00,50.119
1105.00,50.092
1106.00,50.063
1107.00,50.084
1108.00,50.085
1109.00,50.045
1110.00,50.046
1111.00,50.065
1112.00,50.045
1113.00,50.019
1114.00,50.040
1115.00,50.037
1116.00,50.031
1117.00,49.981
1118.00,50.009
1119.00,50.010
1120.00,49.981
1121.00,49.988
1122.00,50.002
1123.00,49.971
1124.00,49.975
1125.00,49.995
1126.00,49.986
1127.00,49.963
1128.00,49.957
1129.00,49.940
1130.00,49.936
1131.00,49.920
1132.00,49.921
1133.00,49.912
1134.00,49.913
1135.00,49.912
1136.00,49.915
1137.00,49.899
1138.00,49.910
1139.00,49.893
1140.00,49.898
1141.00,49.889
1142.00,49.850
1143.00,49.874
1144.00,49.867
1145.00,49.864
1146.00,49.860
1147.00,49.870
1148.00,49.841
1149.00,49.871
1150.00,49.849
1151.00,49.864
1152.00,49.857
1153.00,49.828
1154.00,49.817
1155.00,49.864
1156.00,49.862
1157.00,49.832
1158.00,49.826
1159.00,49.849
1160.00,49.823
1161.00,49.834
1162.00,49.834
1163.00,49.856
1164.00,49.809
1165.00,49.813
1166.00,49.836
1167.00,49.812
1168.00,49.817
1169.00,49.818
1170.00,49.819
1171.00,49.807
1172.00,49.797
1173.00,49.799
1174.00,49.819
1175.00,49.795
1176.00,49.810
1177.00,49.809
1178.00,49.797
1179.00,49.805
1180.00,49.793
1181.00,49.805
1182.00,49.810
1183.00,49.806
1184.00,49.785
1185.00,49.809
1186.00,49.782
1187.00,49.807
1188.00,49.793
1189.00,49.811
1190.00,49.799
1191.00,49.808
1192.00,49.809
1193.00,49.806
1194.00,49.808
1195.00,49.785
1196.00,49.821
1197.00,49.792
1198.00,49.813
1199.00,49.818
1200.00,49.806
1201.00,49.811
1202.00,49.804
1203.00,49.812
1204.00,49.794
1205.00,49.809
1206.00,49.789
1207.00,49.807
1208.00,49.765
1209.00,49.789
1210.00,49.788
1211.00,49.758
1212.00,49.798
1213.00,49.766
1214.00,49.785
1215.00,49.768
1216.00,49.776
1217.00,49.790
1218.00,49.790
1219.00,49.798
1220.00,49.804
1221.00,49.838
1222.00,49.808
1223.00,49.831
1224.00,49.828
1225.00,49.810
1226.00,49.813
1227.00,49.809
1228.00,49.817
1229.00,49.826
1230.00,49.821
1231.00,49.816
1232.00,49.862
1233.00,49.829
1234.00,49.858
1235.00,49.868
1236.00,49.883
1237.00,49.862
1238.00,49.868
1239.00,49.888
1240.00,49.890
1241.00,49.866
1242.00,49.852
1243.00,49.884
1244.00,49.855
1245.00,49.886
1246.00,49.901
1247.00,49.909
1248.00,49.874
1249.00,49.892
1250.00,49.913
1251.00,49.901
1252.00,49.901
1253.00,49.901
1254.00,49.929
1255.00,49.927
1256.00,49.895
1257.00,49.914
1258.00,49.928
1259.00,49.942
1260.00,49.968
1261.00,49.965
1262.00,49.990
1263.00,49.946
1264.00,49.972
1265.00,49.978
1266.00,49.978
1267.00,49.996
1268.00,50.007
1269.00,50.002
1270.00,50.028
1271.00,50.029
1272.00,50.035
1273.00,50.039
1274.00,50.044
1275.00,50.020
1276.00,50.067
1277.00,50.083
1278.00,50.079
1279.00,50.066
1280.00,50.067
1281.00,50.080
1282.00,50.082
1283.00,50.079
1284.00,50.087
1285.00,50.057
1286.00,50.068
1287.00,50.077
1288.00,50.097
1289.00,50.080
1290.00,50.115
1291.00,50.112
1292.00,50.114
1293.00,50.112
1294.00,50.133
1295.00,50.156
1296.00,50.141
1297.00,50.158
1298.00,50.193
1299.00,50.175
1300.00,50.199
1301.00,50.202
1302.00,50.222
1303.00,50.219
1304.00,50.196
1305.00,50.233
1306.00,50.234
1307.00,50.221
1308.00,50.225
1309.00,50.253
1310.00,50.246
1311.00,50.248
1312.00,50.271
1313.00,50.278
1314.00,50.297
1315.00,50.303
1316.00,50.323
1317.00,50.335
1318.00,50.330
1319.00,50.340
1320.00,50.350
1321.00,50.484
1322.00,50.470
1323.00,50.465
1324.00,50.473
1325.00,50.467
1326.00,50.478
1327.00,50.449
1328.00,50.474
1329.00,50.455
1330.00,50.468
1331.00,50.471
1332.00,50.495
1333.00,50.471
1334.00,50.484
1335.00,50.522
1336.00,50.542
1337.00,50.554
1338.00,50.655
1339.00,50.722
1340.00,50.782
1341.00,50.834
1342.00,50.918
1343.00,50.951
1344.00,50.994
1345.00,51.021
1346.00,51.082
1347.00,51.107
1348.00,51.129
1349.00,51.179
1350.00,51.164
1351.00,51.228
1352.00,51.201
1353.00,51.134
1354.00,51.199
1355.00,51.244
1356.00,51.299
1357.00,51.211
1358.00,51.155
1359.00,51.188
1360.00,51.260
1361.00,51.383
1362.00,51.225
1363.00,51.307
1364.00,51.371
1365.00,51.283
1366.00,51.274
1367.00,51.319
1368.00,51.213
1369.00,51.206
1370.00,51.284
1371.00,51.255
1372.00,51.274
1373.00,51.265
1374.00,51.276
1375.00,51.268
1376.00,51.263
1377.00,51.220
1378.00,51.315
1379.00,51.263
1380.00,51.283
1381.00,51.342
1382.00,51.356
1383.00,51.328
1384.00,51.255
1385.00,51.075
1386.00,51.188
1387.00,51.262
1388.00,51.221
1389.00,51.102
1390.00,51.175
1391.00,51.287
1392.00,51.263
1393.00,51.353
1394.00,51.331
1395.00,51.265
1396.00,51.258
1397.00,51.095
1398.00,51.168
1399.00,51.394
1400.00,51.371
1401.00,51.234
1402.00,51.304
1403.00,51.342
1404.00,51.252
1405.00,51.332
1406.00,51.283
1407.00,51.273
1408.00,51.338
1409.00,51.294
1410.00,51.352
1411.00,51.277
1412.00,51.418
1413.00,51.359
1414.00,51.252
1415.00,51.309
1416.00,51.388
1417.00,51.492
1418.00,51.415
1419.00,51.369
1420.00,51.417
1421.00,51.455
1422.00,51.494
1423.00,51.491
1424.00,51.504
1425.00,51.462
1426.00,51.496
1427.00,51.564
1428.00,51.532
1429.00,51.527
1430.00,51.588
1431.00,51.576
1432.00,51.602
1433.00,51.667
1434.00,51.636
1435.00,51.683
1436.00,51.715
1437.00,51.688
1438.00,51.706
1439.00,51.736
1440.00,51.753
1441.00,51.780
1442.00,51.755
1443.00,51.822
1444.00,51.904
1445.00,51.826
1446.00,51.808
1447.00,51.855
1448.00,51.877
1449.00,51.907
1450.00,51.924
1451.00,51.929
1452.00,51.919
1453.00,51.957
1454.00,51.998
1455.00,52.019
1456.00,52.033
1457.00,52.049
1458.00,52.060
1459.00,52.089
1460.00,52.102
1461.00,52.114
1462.00,52.135
1463.00,52.142
1464.00,52.174
1465.00,52.188
1466.00,52.188
1467.00,52.182
1468.00,52.267
1469.00,52.244
1470.00,52.253
1471.00,52.297
1472.00,52.290
1473.00,52.316
1474.00,52.342
1475.00,52.342
1476.00,52.359
1477.00,52.332
1478.00,52.372
1479.00,52.399
1480.00,52.404
1481.00,52.402
1482.00,52.414
1483.00,52.441
1484.00,52.451
1485.00,52.471
1486.00,52.479
1487.00,52.515
1488.00,52.530
1489.00,52.534
1490.00,52.540
1491.00,52.540
1492.00,52.577
1493.00,52.579
1494.00,52.600
1495.00,52.614
1496.00,52.635
1497.00,52.648
1498.00,52.642
1499.00,52.665
1500.00,52.681
1501.00, 
1502.00, 
1503.00, 
1504.00, 
1505.00, 
1506.00, 
1507.00, 
1508.00, 
1509.00, 
1510.00, 
1511.00, 
1512.00, 
1513.00, 
1514.00, 
1515.00, 
1516.00, 
1517.00, 
1518.00, 
1519.00, 
1520.00, 
1521.00, 
1522.00, 
1523.00, 
1524.00, 
1525.00, 
1526.00, 
1527.00, 
1528.00, 
1529.00, 
1530.00, 
1531.00, 
1532.00, 
1533.00, 
1534.00, 
1535.00, 
1536.00, 
1537.00, 
1538.00, 
1539.00, 
1540.00, 
1541.00, 
1542.00, 
1543.00, 
1544.00, 
1545.00, 
1546.00, 
1547.00, 
1548.00, 
1549.00, 
1550.00, 
1551.00, 
1552.00, 
1553.00, 
1554.00, 
1555.00, 
1556.00, 
1557.00, 
1558.00, 
1559.00, 
1560.00, 
1561.00, 
1562.00, 
1563.00, 
1564.00, 
1565.00, 
1566.00, 
1567.00, 
1568.00, 
1569.00, 
1570.00, 
1571.00, 
1572.00, 
1573.00, 
1574.00, 
1575.00, 
1576.00, 
1577.00, 
1578.00, 
1579.00, 
1580.00, 
1581.00, 
1582.00, 
1583.00, 
1584.00, 
1585.00, 
1586.00, 
1587.00, 
1588.00, 
1589.00, 
1590.00, 
1591.00, 
1592.00, 
1593.00, 
1594.00, 
1595.00, 
1596.00, 
1597.00, 
1598.00, 
1599.00, 
1600.00, 
1601.00, 
1602.00, 
1603.00, 
1604.00, 
1605.00, 
1606.00, 
1607.00, 
1608.00, 
1609.00, 
1610.00, 
1611.00, 
1612.00, 
1613.00, 
1614.00, 
1615.00, 
1616.00, 
1617.00, 
1618.00, 
1619.00, 
1620.00, 
1621.00, 
1622.00, 
1623.00, 
1624.00, 
1625.00, 
1626.00, 
1627.00, 
1628.00, 
1629.00, 
1630.00, 
1631.00, 
1632.00, 
1633.00, 
1634.00, 
1635.00, 
1636.00, 
1637.00, 
1638.00, 
1639.00, 
1640.00, 
1641.00, 
1642.00, 
1643.00, 
1644.00, 
1645.00, 
1646.00, 
1647.00, 
1648.00, 
1649.00, 
1650.00, 
1651.00, 
1652.00, 
1653.00, 
1654.00, 
1655.00, 
1656.00, 
1657.00, 
1658.00, 
1659.00, 
1660.00, 
1661.00, 
1662.00, 
1663.00, 
1664.00, 
1665.00, 
1666.00, 
1667.00, 
1668.00, 
1669.00, 
1670.00, 
1671.00, 
1672.00, 
1673.00, 
1674.00, 
1675.00, 
1676.00, 
1677.00, 
1678.00, 
1679.00, 
1680.00, 
1681.00, 
1682.00, 
1683.00, 
1684.00, 
1685.00, 
1686.00, 
1687.00, 
1688.00, 
1689.00, 
1690.00, 
1691.00, 
1692.00, 
1693.00, 
1694.00, 
1695.00, 
1696.00, 
1697.00, 
1698.00, 
1699.00, 
1700.00, 
1701.00, 
1702.00, 
1703.00, 
1704.00, 
1705.00, 
1706.00, 
1707.00, 
1708.00, 
1709.00, 
1710.00, 
1711.00, 
1712.00, 
1713.00, 
1714.00, 
1715.00, 
1716.00, 
1717.00, 
1718.00, 
1719.00, 
1720.00, 
1721.00, 
1722.00, 
1723.00, 
1724.00, 
1725.00, 
1726.00, 
1727.00, 
1728.00, 
1729.00, 
1730.00, 
1731.00, 
1732.00, 
1733.00, 
1734.00, 
1735.00, 
1736.00, 
1737.00, 
1738.00, 
1739.00, 
1740.00, 
1741.00, 
1742.00, 
1743.00, 
1744.00, 
1745.00, 
1746.00, 
1747.00, 
1748.00, 
1749.00, 
1750.00, 
1751.00, 
1752.00, 
1753.00, 
1754.00, 
1755.00, 
1756.00, 
1757.00, 
1758.00, 
1759.00, 
1760.00, 
1761.00, 
1762.00, 
1763.00, 
1764.00, 
1765.00, 
1766.00, 
1767.00, 
1768.00, 
1769.00, 
1770.00, 
1771.00, 
1772.00, 
1773.00, 
1774.00, 
1775.00, 
1776.00, 
1777.00, 
1778.00, 
1779.00, 
1780.00, 
1781.00, 
1782.00, 
1783.00, 
1784.00, 
1785.00, 
1786.00, 
1787.00, 
1788.00, 
1789.00, 
1790.00, 
1791.00, 
1792.00, 
1793.00, 
1794.00, 
1795.00, 
1796.00, 
1797.00, 
1798.00, 
1799.00, 
1800.00, 
1801.00, 
1802.00, 
1803.00, 
1804.00, 
1805.00, 
1806.00, 
1807.00, 
1808.00, 
1809.00, 
1810.00, 
1811.00, 
1812.00, 
1813.00, 
1814.00, 
1815.00, 
1816.00, 
1817.00, 
1818.00, 
1819.00, 
1820.00, 
1821.00, 
1822.00, 
1823.00, 
1824.00, 
1825.00, 
1826.00, 
1827.00, 
1828.00, 
1829.00, 
1830.00, 
1831.00, 
1832.00, 
1833.00, 
1834.00, 
1835.00, 
1836.00, 
1837.00, 
1838.00, 
1839.00, 
1840.00, 
1841.00, 
1842.00, 
1843.00, 
1844.00, 
1845.00, 
1846.00, 
1847.00, 
1848.00, 
1849.00, 
1850.00, 
1851.00, 
1852.00, 
1853.00, 
1854.00, 
1855.00, 
1856.00, 
1857.00, 
1858.00, 
1859.00, 
1860.00, 
1861.00, 
1862.00, 
1863.00, 
1864.00, 
1865.00, 
1866.00, 
1867.00, 
1868.00, 
1869.00, 
1870.00, 
1871.00, 
1872.00, 
1873.00, 
1874.00, 
1875.00, 
1876.00, 
1877.00, 
1878.00, 
1879.00, 
1880.00, 
1881.00, 
1882.00, 
1883.00, 
1884.00, 
1885.00, 
1886.00, 
1887.00, 
1888.00, 
1889.00, 
1890.00, 
1891.00, 
1892.00, 
1893.00, 
1894.00, 
1895.00, 
1896.00, 
1897.00, 
1898.00, 
1899.00, 
1900.00, 
1901.00, 
1902.00, 
1903.00, 
1904.00, 
1905.00, 
1906.00, 
1907.00, 
1908.00, 
1909.00, 
1910.00, 
1911.00, 
1912.00, 
1913.00, 
1914.00, 
1915.00, 
1916.00, 
1917.00, 
1918.00, 
1919.00, 
1920.00, 
1921.00, 
1922.00, 
1923.00, 
1924.00, 
1925.00, 
1926.00, 
1927.00, 
1928.00, 
1929.00, 
1930.00, 
1931.00, 
1932.00, 
1933.00, 
1934.00, 
1935.00, 
1936.00, 
1937.00, 
1938.00, 
1939.00, 
1940.00, 
1941.00, 
1942.00, 
1943.00, 
1944.00, 
1945.00, 
1946.00, 
1947.00, 
1948.00, 
1949.00, 
1950.00, 
1951.00, 
1952.00, 
1953.00, 
1954.00, 
1955.00, 
1956.00, 
1957.00, 
1958.00, 
1959.00, 
1960.00, 
1961.00, 
1962.00, 
1963.00, 
1964.00, 
1965.00, 
1966.00, 
1967.00, 
1968.00, 
1969.00, 
1970.00, 
1971.00, 
1972.00, 
1973.00, 
1974.00, 
1975.00, 
1976.00, 
1977.00, 
1978.00, 
1979.00, 
1980.00, 
1981.00, 
1982.00, 
1983.00, 
1984.00, 
1985.00, 
1986.00, 
1987.00, 
1988.00, 
1989.00, 
1990.00, 
1991.00, 
1992.00, 
1993.00, 
1994.00, 
1995.00, 
1996.00, 
1997.00, 
1998.00, 
1999.00, 
2000.00, 
2001.00, 
2002.00, 
2003.00, 
2004.00, 
2005.00, 
2006.00, 
2007.00, 
2008.00, 
2009.00, 
2010.00, 
2011.00, 
2012.00, 
2013.00, 
2014.00, 
2015.00, 
2016.00, 
2017.00, 
2018.00, 
2019.00, 
2020.00, 
2021.00, 
2022.00, 
2023.00, 
2024.00, 
2025.00, 
2026.00, 
2027.00, 
2028.00, 
2029.00, 
2030.00, 
2031.00, 
2032.00, 
2033.00, 
2034.00, 
2035.00, 
2036.00, 
2037.00, 
2038.00, 
2039.00, 
2040.00, 
2041.00, 
2042.00, 
2043.00, 
2044.00, 
2045.00, 
2046.00, 
2047.00, 
2048.00, 
2049.00, 
2050.00, 
2051.00, 
2052.00, 
2053.00, 
2054.00, 
2055.00, 
2056.00, 
2057.00, 
2058.00, 
2059.00, 
2060.00, 
2061.00, 
2062.00, 
2063.00, 
2064.00, 
2065.00, 
2066.00, 
2067.00, 
2068.00, 
2069.00, 
2070.00, 
2071.00, 
2072.00, 
2073.00, 
2074.00, 
2075.00, 
2076.00, 
2077.00, 
2078.00, 
2079.00, 
2080.00, 
2081.00, 
2082.00, 
2083.00, 
2084.00, 
2085.00, 
2086.00, 
2087.00, 
2088.00, 
2089.00, 
2090.00, 
2091.00, 
2092.00, 
2093.00, 
2094.00, 
2095.00, 
2096.00, 
2097.00, 
2098.00, 
2099.00, 
2100.00, 
2101.00, 
2102.00, 
2103.00, 
2104.00, 
2105.00, 
2106.00, 
2107.00, 
2108.00, 
2109.00, 
2110.00, 
2111.00, 
2112.00, 
2113.00, 
2114.00, 
2115.00, 
2116.00, 
2117.00, 
2118.00, 
2119.00, 
2120.00, 
2121.00, 
2122.00, 
2123.00, 
2124.00, 
2125.00, 
2126.00, 
2127.00, 
2128.00, 
2129.00, 
2130.00, 
2131.00, 
2132.00, 
2133.00, 
2134.00, 
2135.00, 
2136.00, 
2137.00, 
2138.00, 
2139.00, 
2140.00, 
2141.00, 
2142.00, 
2143.00, 
2144.00, 
2145.00, 
2146.00, 
2147.00, 
2148.00, 
2149.00, 
2150.00, 
2151.00, 
2152.00, 
2153.00, 
2154.00, 
2155.00, 
2156.00, 
2157.00, 
2158.00, 
2159.00, 
2160.00, 
2161.00, 
2162.00, 
2163.00, 
2164.00, 
2165.00, 
2166.00, 
2167.00, 
2168.00, 
2169.00, 
2170.00, 
2171.00, 
2172.00, 
2173.00, 
2174.00, 
2175.00, 
2176.00, 
2177.00, 
2178.00, 
2179.00, 
2180.00, 
2181.00, 
2182.00, 
2183.00, 
2184.00, 
2185.00, 
2186.00, 
2187.00, 
2188.00, 
2189.00, 
2190.00, 
2191.00, 
2192.00, 
2193.00, 
2194.00, 
2195.00, 
2196.00, 
2197.00, 
2198.00, 
2199.00, 
2200.00, 
2201.00, 
2202.00, 
2203.00, 
2204.00, 
2205.00, 
2206.00, 
2207.00, 
2208.00, 
2209.00, 
2210.00, 
2211.00, 
2212.00, 
2213.00, 
2214.00, 
2215.00, 
2216.00, 
2217.00, 
2218.00, 
2219.00, 
2220.00, 
2221.00, 
2222.00, 
2223.00, 
2224.00, 
2225.00, 
2226.00, 
2227.00, 
2228.00, 
2229.00, 
2230.00, 
2231.00, 
2232.00, 
2233.00, 
2234.00, 
2235.00, 
2236.00, 
2237.00, 
2238.00, 
2239.00, 
2240.00, 
2241.00, 
2242.00, 
2243.00, 
2244.00, 
2245.00, 
2246.00, 
2247.00, 
2248.00, 
2249.00, 
2250.00, 
2251.00, 
2252.00, 
2253.00, 
2254.00, 
2255.00, 
2256.00, 
2257.00, 
2258.00, 
2259.00, 
2260.00, 
2261.00, 
2262.00, 
2263.00, 
2264.00, 
2265.00, 
2266.00, 
2267.00, 
2268.00, 
2269.00, 
2270.00, 
2271.00, 
2272.00, 
2273.00, 
2274.00, 
2275.00, 
2276.00, 
2277.00, 
2278.00, 
2279.00, 
2280.00, 
2281.00, 
2282.00, 
2283.00, 
2284.00, 
2285.00, 
2286.00, 
2287.00, 
2288.00, 
2289.00, 
2290.00, 
2291.00, 
2292.00, 
2293.00, 
2294.00, 
2295.00, 
2296.00, 
2297.00, 
2298.00, 
2299.00, 
2300.00, 
2301.00, 
2302.00, 
2303.00, 
2304.00, 
2305.00, 
2306.00, 
2307.00, 
2308.00, 
2309.00, 
2310.00, 
2311.00, 
2312.00, 
2313.00, 
2314.00, 
2315.00, 
2316.00, 
2317.00, 
2318.00, 
2319.00, 
2320.00, 
2321.00, 
2322.00, 
2323.00, 
2324.00, 
2325.00, 
2326.00, 
2327.00, 
2328.00, 
2329.00, 
2330.00, 
2331.00, 
2332.00, 
2333.00, 
2334.00, 
2335.00, 
2336.00, 
2337.00, 
2338.00, 
2339.00, 
2340.00, 
2341.00, 
2342.00, 
2343.00, 
2344.00, 
2345.00, 
2346.00, 
2347.00, 
2348.00, 
2349.00, 
2350.00, 
2351.00, 
2352.00, 
2353.00, 
2354.00, 
2355.00, 
2356.00, 
2357.00, 
2358.00, 
2359.00, 
2360.00, 
2361.00, 
2362.00, 
2363.00, 
2364.00, 
2365.00, 
2366.00, 
2367.00, 
2368.00, 
2369.00, 
2370.00, 
2371.00, 
2372.00, 
2373.00, 
2374.00, 
2375.00, 
2376.00, 
2377.00, 
2378.00, 
2379.00, 
2380.00, 
2381.00, 
2382.00, 
2383.00, 
2384.00, 
2385.00, 
2386.00, 
2387.00, 
2388.00, 
2389.00, 
2390.00, 
2391.00, 
2392.00, 
2393.00, 
2394.00, 
2395.00, 
2396.00, 
2397.00, 
2398.00, 
2399.00, 
2400.00, 
2401.00, 
2402.00, 
2403.00, 
2404.00, 
2405.00, 
2406.00, 
2407.00, 
2408.00, 
2409.00, 
2410.00, 
2411.00, 
2412.00, 
2413.00, 
2414.00, 
2415.00, 
2416.00, 
2417.00, 
2418.00, 
2419.00, 
2420.00, 
2421.00, 
2422.00, 
2423.00, 
2424.00, 
2425.00, 
2426.00, 
2427.00, 
2428.00, 
2429.00, 
2430.00, 
2431.00, 
2432.00, 
2433.00, 
2434.00, 
2435.00, 
2436.00, 
2437.00, 
2438.00, 
2439.00, 
2440.00, 
2441.00, 
2442.00, 
2443.00, 
2444.00, 
2445.00, 
2446.00, 
2447.00, 
2448.00, 
2449.00, 
2450.00, 
2451.00, 
2452.00, 
2453.00, 
2454.00, 
2455.00, 
2456.00, 
2457.00, 
2458.00, 
2459.00, 
2460.00, 
2461.00, 
2462.00, 
2463.00, 
2464.00, 
2465.00, 
2466.00, 
2467.00, 
2468.00, 
2469.00, 
2470.00, 
2471.00, 
2472.00, 
2473.00, 
2474.00, 
2475.00, 
2476.00, 
2477.00, 
2478.00, 
2479.00, 
2480.00, 
2481.00, 
2482.00, 
2483.00, 
2484.00, 
2485.00, 
2486.00, 
2487.00, 
2488.00, 
2489.00, 
2490.00, 
2491.00, 
2492.00, 
2493.00, 
2494.00, 
2495.00, 
2496.00, 
2497.00, 
2498.00, 
2499.00, 
2500.00, 
2501.00, 
2502.00, 
2503.00, 
2504.00, 
2505.00, 
2506.00, 
2507.00, 
2508.00, 
2509.00, 
2510.00, 
2511.00, 
2512.00, 
2513.00, 
2514.00, 
2515.00, 
2516.00, 
2517.00, 
2518.00, 
2519.00, 
2520.00, 
2521.00, 
2522.00, 
2523.00, 
2524.00, 
2525.00, 
2526.00, 
2527.00, 
2528.00, 
2529.00, 
2530.00, 
2531.00, 
2532.00, 
2533.00, 
2534.00, 
2535.00, 
2536.00, 
2537.00, 
2538.00, 
2539.00, 
2540.00, 
2541.00, 
2542.00, 
2543.00, 
2544.00, 
2545.00, 
2546.00, 
2547.00, 
2548.00, 
2549.00, 
2550.00, 
2551.00, 
2552.00, 
2553.00, 
2554.00, 
2555.00, 
2556.00, 
2557.00, 
2558.00, 
2559.00, 
2560.00, 
2561.00, 
2562.00, 
2563.00, 
2564.00, 
2565.00, 
2566.00, 
2567.00, 
2568.00, 
2569.00, 
2570.00, 
2571.00, 
2572.00, 
2573.00, 
2574.00, 
2575.00, 
2576.00, 
2577.00, 
2578.00, 
2579.00, 
2580.00, 
2581.00, 
2582.00, 
2583.00, 
2584.00, 
2585.00, 
2586.00, 
2587.00, 
2588.00, 
2589.00, 
2590.00, 
2591.00, 
2592.00, 
2593.00, 
2594.00, 
2595.00, 
2596.00, 
2597.00, 
2598.00, 
2599.00, 
2600.00, 
