"2cP2 - RawData"
"Wavelength nm.","T%"
200.00,0.002
201.00,0.002
202.00,0.004
203.00,0.003
204.00,0.004
205.00,0.002
206.00,0.001
207.00,-0.000
208.00,0.004
209.00,0.002
210.00,-0.003
211.00,0.003
212.00,0.003
213.00,-0.000
214.00,-0.001
215.00,0.002
216.00,0.001
217.00,0.001
218.00,0.001
219.00,0.000
220.00,0.004
221.00,0.005
222.00,0.001
223.00,0.003
224.00,0.003
225.00,0.002
226.00,0.002
227.00,-0.000
228.00,0.001
229.00,0.002
230.00,0.002
231.00,-0.000
232.00,0.003
233.00,0.002
234.00,0.003
235.00,-0.001
236.00,0.002
237.00,0.001
238.00,0.001
239.00,0.000
240.00,0.001
241.00,0.001
242.00,0.001
243.00,0.001
244.00,-0.002
245.00,-0.001
246.00,0.004
247.00,0.001
248.00,-0.001
249.00,0.000
250.00,0.003
251.00,0.002
252.00,0.002
253.00,0.001
254.00,0.001
255.00,0.001
256.00,-0.001
257.00,0.000
258.00,0.001
259.00,-0.000
260.00,-0.001
261.00,0.003
262.00,0.002
263.00,0.001
264.00,-0.001
265.00,0.001
266.00,-0.000
267.00,0.000
268.00,0.003
269.00,0.000
270.00,-0.001
271.00,0.000
272.00,0.000
273.00,0.001
274.00,0.000
275.00,0.000
276.00,0.002
277.00,0.001
278.00,0.001
279.00,0.001
280.00,-0.000
281.00,0.001
282.00,0.002
283.00,-0.002
284.00,0.002
285.00,0.001
286.00,-0.002
287.00,0.002
288.00,-0.000
289.00,-0.000
290.00,0.000
291.00,0.001
292.00,0.001
293.00,-0.001
294.00,0.001
295.00,0.000
296.00,-0.000
297.00,-0.000
298.00,0.001
299.00,0.003
300.00,0.005
301.00,0.008
302.00,0.013
303.00,0.018
304.00,0.028
305.00,0.043
306.00,0.065
307.00,0.099
308.00,0.152
309.00,0.234
310.00,0.326
311.00,0.440
312.00,0.605
313.00,0.813
314.00,1.059
315.00,1.375
316.00,1.753
317.00,2.203
318.00,2.727
319.00,3.375
320.00,4.064
321.00,4.856
322.00,5.737
323.00,6.749
324.00,7.781
325.00,8.859
326.00,9.945
327.00,11.240
328.00,12.481
329.00,13.864
330.00,15.195
331.00,16.569
332.00,18.023
333.00,19.446
334.00,20.795
335.00,22.265
336.00,23.685
337.00,25.101
338.00,26.513
339.00,27.781
340.00,29.184
341.00,30.434
342.00,31.584
343.00,32.811
344.00,33.926
345.00,34.986
346.00,35.903
347.00,37.004
348.00,37.981
349.00,38.794
350.00,39.605
351.00,40.436
352.00,41.078
353.00,41.880
354.00,42.509
355.00,43.037
356.00,43.755
357.00,44.262
358.00,44.796
359.00,45.315
360.00,45.723
361.00,46.212
362.00,46.627
363.00,47.001
364.00,47.370
365.00,47.696
366.00,48.021
367.00,48.275
368.00,48.442
369.00,48.680
370.00,48.936
371.00,49.069
372.00,49.161
373.00,49.235
374.00,49.249
375.00,49.231
376.00,49.350
377.00,49.335
378.00,49.372
379.00,49.435
380.00,49.392
381.00,49.436
382.00,49.625
383.00,49.702
384.00,49.912
385.00,50.120
386.00,50.271
387.00,50.422
388.00,50.611
389.00,50.834
390.00,50.853
391.00,51.087
392.00,51.195
393.00,51.345
394.00,51.433
395.00,51.535
396.00,51.654
397.00,51.696
398.00,51.826
399.00,51.874
400.00,51.875
401.00,52.046
402.00,51.987
403.00,52.105
404.00,52.137
405.00,52.243
406.00,52.256
407.00,52.204
408.00,52.226
409.00,52.151
410.00,52.097
411.00,52.057
412.00,52.013
413.00,52.165
414.00,52.094
415.00,51.949
416.00,52.048
417.00,52.058
418.00,52.176
419.00,52.162
420.00,52.169
421.00,52.264
422.00,52.369
423.00,52.365
424.00,52.302
425.00,52.373
426.00,52.403
427.00,52.429
428.00,52.468
429.00,52.434
430.00,52.497
431.00,52.502
432.00,52.479
433.00,52.539
434.00,52.545
435.00,52.554
436.00,52.558
437.00,52.593
438.00,52.632
439.00,52.668
440.00,52.633
441.00,52.644
442.00,52.726
443.00,52.702
444.00,52.775
445.00,52.802
446.00,52.774
447.00,52.879
448.00,52.856
449.00,52.918
450.00,52.907
451.00,52.955
452.00,53.059
453.00,53.053
454.00,53.060
455.00,53.146
456.00,53.129
457.00,53.116
458.00,53.211
459.00,53.245
460.00,53.289
461.00,53.277
462.00,53.270
463.00,53.356
464.00,53.426
465.00,53.406
466.00,53.445
467.00,53.490
468.00,53.457
469.00,53.527
470.00,53.449
471.00,53.444
472.00,53.481
473.00,53.434
474.00,53.451
475.00,53.383
476.00,53.423
477.00,53.428
478.00,53.542
479.00,53.518
480.00,53.615
481.00,53.655
482.00,53.675
483.00,53.655
484.00,53.675
485.00,53.769
486.00,53.832
487.00,53.844
488.00,53.855
489.00,53.950
490.00,53.952
491.00,54.000
492.00,54.108
493.00,54.027
494.00,53.962
495.00,53.987
496.00,54.013
497.00,53.969
498.00,54.088
499.00,54.077
500.00,54.021
501.00,54.062
502.00,54.085
503.00,54.161
504.00,54.197
505.00,54.153
506.00,54.176
507.00,54.222
508.00,54.200
509.00,54.283
510.00,54.308
511.00,54.300
512.00,54.286
513.00,54.363
514.00,54.391
515.00,54.483
516.00,54.494
517.00,54.488
518.00,54.565
519.00,54.585
520.00,54.549
521.00,54.504
522.00,54.537
523.00,54.519
524.00,54.560
525.00,54.588
526.00,54.636
527.00,54.580
528.00,54.550
529.00,54.534
530.00,54.533
531.00,54.687
532.00,54.741
533.00,54.762
534.00,54.642
535.00,54.629
536.00,54.788
537.00,54.600
538.00,54.740
539.00,54.790
540.00,54.718
541.00,54.789
542.00,54.767
543.00,54.738
544.00,54.768
545.00,54.737
546.00,54.753
547.00,54.806
548.00,54.667
549.00,54.641
550.00,54.834
551.00,54.814
552.00,54.899
553.00,54.949
554.00,54.972
555.00,54.894
556.00,54.916
557.00,54.958
558.00,54.916
559.00,54.911
560.00,55.024
561.00,54.970
562.00,55.025
563.00,55.039
564.00,55.014
565.00,54.974
566.00,54.933
567.00,54.914
568.00,54.919
569.00,54.926
570.00,54.796
571.00,54.778
572.00,54.891
573.00,54.850
574.00,54.900
575.00,54.866
576.00,54.868
577.00,54.829
578.00,54.913
579.00,54.903
580.00,54.876
581.00,54.931
582.00,55.046
583.00,55.060
584.00,55.080
585.00,55.113
586.00,55.084
587.00,55.148
588.00,55.088
589.00,55.053
590.00,55.097
591.00,55.135
592.00,55.068
593.00,55.119
594.00,55.107
595.00,55.044
596.00,55.078
597.00,55.140
598.00,55.170
599.00,55.112
600.00,55.160
601.00,55.174
602.00,55.103
603.00,55.175
604.00,55.114
605.00,55.163
606.00,55.187
607.00,55.055
608.00,55.033
609.00,55.070
610.00,54.977
611.00,54.911
612.00,55.038
613.00,54.997
614.00,55.004
615.00,54.906
616.00,54.954
617.00,54.952
618.00,54.908
619.00,54.889
620.00,54.843
621.00,54.873
622.00,54.885
623.00,54.934
624.00,54.856
625.00,54.878
626.00,54.923
627.00,54.844
628.00,54.801
629.00,54.802
630.00,54.845
631.00,54.833
632.00,54.793
633.00,54.793
634.00,54.754
635.00,54.786
636.00,54.797
637.00,54.817
638.00,54.835
639.00,54.750
640.00,54.764
641.00,54.670
642.00,54.677
643.00,54.666
644.00,54.620
645.00,54.676
646.00,54.634
647.00,54.649
648.00,54.604
649.00,54.641
650.00,54.530
651.00,54.642
652.00,54.483
653.00,54.449
654.00,54.708
655.00,54.204
656.00,54.483
657.00,54.506
658.00,54.486
659.00,54.559
660.00,54.554
661.00,54.387
662.00,54.600
663.00,54.423
664.00,54.504
665.00,54.376
666.00,54.490
667.00,54.440
668.00,54.195
669.00,54.363
670.00,54.400
671.00,54.232
672.00,54.297
673.00,54.409
674.00,54.254
675.00,54.230
676.00,54.327
677.00,54.082
678.00,54.001
679.00,54.166
680.00,54.192
681.00,54.011
682.00,54.050
683.00,53.966
684.00,53.978
685.00,54.015
686.00,54.165
687.00,54.026
688.00,53.901
689.00,53.792
690.00,53.930
691.00,53.773
692.00,53.851
693.00,53.813
694.00,53.765
695.00,53.782
696.00,53.722
697.00,53.768
698.00,53.701
699.00,53.679
700.00,53.750
701.00,53.682
702.00,53.632
703.00,53.604
704.00,53.632
705.00,53.522
706.00,53.685
707.00,53.405
708.00,53.374
709.00,53.615
710.00,53.370
711.00,53.294
712.00,53.400
713.00,53.292
714.00,53.240
715.00,53.193
716.00,53.112
717.00,53.147
718.00,53.085
719.00,53.000
720.00,53.048
721.00,57.706
722.00,57.643
723.00,57.551
724.00,57.579
725.00,57.481
726.00,57.401
727.00,57.292
728.00,57.265
729.00,57.130
730.00,57.077
731.00,57.086
732.00,56.995
733.00,56.938
734.00,56.823
735.00,56.830
736.00,56.745
737.00,56.732
738.00,56.598
739.00,56.639
740.00,56.600
741.00,56.620
742.00,56.505
743.00,56.444
744.00,56.300
745.00,56.290
746.00,56.162
747.00,56.155
748.00,56.028
749.00,56.009
750.00,55.874
751.00,55.801
752.00,55.813
753.00,55.668
754.00,55.671
755.00,55.562
756.00,55.548
757.00,55.493
758.00,55.413
759.00,55.423
760.00,55.453
761.00,55.352
762.00,55.258
763.00,55.242
764.00,55.129
765.00,55.108
766.00,55.095
767.00,55.027
768.00,54.970
769.00,54.976
770.00,54.953
771.00,54.903
772.00,54.818
773.00,54.775
774.00,54.742
775.00,54.781
776.00,54.693
777.00,54.684
778.00,54.620
779.00,54.624
780.00,54.569
781.00,54.460
782.00,54.447
783.00,54.352
784.00,54.458
785.00,54.306
786.00,54.285
787.00,54.186
788.00,54.184
789.00,54.215
790.00,54.113
791.00,54.026
792.00,54.028
793.00,53.970
794.00,53.899
795.00,53.840
796.00,53.863
797.00,53.806
798.00,53.800
799.00,53.729
800.00,53.675
801.00,53.669
802.00,53.600
803.00,53.581
804.00,53.492
805.00,53.427
806.00,53.394
807.00,53.376
808.00,53.362
809.00,53.259
810.00,53.300
811.00,53.256
812.00,53.249
813.00,53.211
814.00,53.175
815.00,53.176
816.00,53.036
817.00,53.080
818.00,53.013
819.00,53.026
820.00,52.920
821.00,52.907
822.00,52.745
823.00,52.852
824.00,52.866
825.00,52.592
826.00,52.565
827.00,52.581
828.00,52.753
829.00,52.649
830.00,52.615
831.00,55.109
832.00,55.089
833.00,55.024
834.00,54.997
835.00,54.943
836.00,54.939
837.00,54.898
838.00,54.839
839.00,54.845
840.00,54.765
841.00,54.813
842.00,54.713
843.00,54.700
844.00,54.664
845.00,54.629
846.00,54.593
847.00,54.570
848.00,54.529
849.00,54.477
850.00,54.420
851.00,54.355
852.00,54.346
853.00,54.325
854.00,54.286
855.00,54.161
856.00,54.189
857.00,54.159
858.00,54.154
859.00,54.092
860.00,54.082
861.00,54.047
862.00,53.933
863.00,54.031
864.00,53.948
865.00,53.906
866.00,53.897
867.00,53.898
868.00,53.853
869.00,53.892
870.00,53.760
871.00,53.814
872.00,53.811
873.00,53.769
874.00,53.803
875.00,53.755
876.00,53.722
877.00,53.639
878.00,53.814
879.00,53.660
880.00,53.632
881.00,53.593
882.00,53.646
883.00,53.563
884.00,53.517
885.00,53.483
886.00,53.493
887.00,53.445
888.00,53.434
889.00,53.406
890.00,53.392
891.00,53.357
892.00,53.350
893.00,53.296
894.00,53.280
895.00,53.257
896.00,53.236
897.00,53.218
898.00,53.175
899.00,53.141
900.00,53.158
901.00,53.143
902.00,53.107
903.00,53.098
904.00,53.103
905.00,53.050
906.00,53.065
907.00,53.037
908.00,52.991
909.00,52.972
910.00,52.947
911.00,52.918
912.00,52.918
913.00,52.890
914.00,52.853
915.00,52.844
916.00,52.782
917.00,52.706
918.00,52.917
919.00,52.716
920.00,52.701
921.00,52.679
922.00,52.671
923.00,52.623
924.00,52.623
925.00,52.596
926.00,52.576
927.00,52.544
928.00,52.532
929.00,52.543
930.00,52.466
931.00,52.456
932.00,52.455
933.00,52.489
934.00,52.419
935.00,52.389
936.00,52.375
937.00,52.327
938.00,52.322
939.00,52.320
940.00,52.279
941.00,52.259
942.00,52.194
943.00,52.241
944.00,52.182
945.00,52.153
946.00,52.167
947.00,52.150
948.00,52.123
949.00,52.070
950.00,52.094
951.00,52.069
952.00,52.016
953.00,51.996
954.00,51.987
955.00,51.944
956.00,51.908
957.00,51.886
958.00,51.889
959.00,51.840
960.00,51.810
961.00,51.806
962.00,51.804
963.00,51.726
964.00,51.788
965.00,51.742
966.00,51.737
967.00,51.718
968.00,51.707
969.00,51.724
970.00,51.688
971.00,51.682
972.00,51.652
973.00,51.688
974.00,51.673
975.00,51.665
976.00,51.682
977.00,51.684
978.00,51.742
979.00,51.801
980.00,51.710
981.00,51.706
982.00,51.662
983.00,51.656
984.00,51.658
985.00,51.678
986.00,51.633
987.00,51.663
988.00,51.645
989.00,51.631
990.00,51.603
991.00,51.592
992.00,51.614
993.00,51.546
994.00,51.555
995.00,51.537
996.00,51.514
997.00,51.513
998.00,51.492
999.00,51.510
1000.00,51.451
1001.00,51.471
1002.00,51.464
1003.00,51.456
1004.00,51.411
1005.00,51.394
1006.00,51.410
1007.00,51.356
1008.00,51.355
1009.00,51.351
1010.00,51.342
1011.00,51.323
1012.00,51.298
1013.00,51.312
1014.00,51.279
1015.00,51.278
1016.00,51.259
1017.00,51.250
1018.00,51.216
1019.00,51.200
1020.00,51.207
1021.00,51.180
1022.00,51.166
1023.00,51.137
1024.00,51.138
1025.00,51.120
1026.00,51.103
1027.00,51.094
1028.00,51.090
1029.00,51.065
1030.00,51.037
1031.00,51.058
1032.00,51.012
1033.00,51.001
1034.00,50.960
1035.00,50.954
1036.00,50.914
1037.00,50.902
1038.00,50.873
1039.00,50.853
1040.00,50.851
1041.00,50.802
1042.00,50.813
1043.00,50.783
1044.00,50.815
1045.00,50.800
1046.00,50.813
1047.00,50.820
1048.00,50.819
1049.00,50.835
1050.00,50.835
1051.00,50.855
1052.00,50.867
1053.00,50.888
1054.00,50.879
1055.00,50.882
1056.00,50.903
1057.00,50.899
1058.00,50.892
1059.00,50.870
1060.00,50.896
1061.00,50.889
1062.00,50.864
1063.00,50.870
1064.00,50.866
1065.00,50.866
1066.00,50.827
1067.00,50.836
1068.00,50.850
1069.00,50.821
1070.00,50.787
1071.00,50.774
1072.00,50.804
1073.00,50.770
1074.00,50.780
1075.00,50.769
1076.00,50.770
1077.00,50.762
1078.00,50.734
1079.00,50.733
1080.00,50.732
1081.00,50.698
1082.00,50.696
1083.00,50.685
1084.00,50.666
1085.00,50.657
1086.00,50.669
1087.00,50.660
1088.00,50.633
1089.00,50.609
1090.00,50.619
1091.00,50.626
1092.00,50.603
1093.00,50.595
1094.00,50.583
1095.00,50.573
1096.00,50.559
1097.00,50.558
1098.00,50.557
1099.00,50.543
1100.00,50.543
1101.00,50.537
1102.00,50.548
1103.00,50.519
1104.00,50.516
1105.00,50.497
1106.00,50.490
1107.00,50.482
1108.00,50.485
1109.00,50.477
1110.00,50.473
1111.00,50.457
1112.00,50.462
1113.00,50.446
1114.00,50.433
1115.00,50.430
1116.00,50.439
1117.00,50.405
1118.00,50.410
1119.00,50.412
1120.00,50.407
1121.00,50.394
1122.00,50.379
1123.00,50.372
1124.00,50.374
1125.00,50.330
1126.00,50.356
1127.00,50.347
1128.00,50.338
1129.00,50.312
1130.00,50.319
1131.00,50.334
1132.00,50.320
1133.00,50.297
1134.00,50.309
1135.00,50.296
1136.00,50.279
1137.00,50.293
1138.00,50.287
1139.00,50.282
1140.00,50.289
1141.00,50.281
1142.00,50.272
1143.00,50.261
1144.00,50.267
1145.00,50.262
1146.00,50.244
1147.00,50.261
1148.00,50.232
1149.00,50.242
1150.00,50.235
1151.00,50.238
1152.00,50.235
1153.00,50.229
1154.00,50.213
1155.00,50.214
1156.00,50.207
1157.00,50.208
1158.00,50.192
1159.00,50.215
1160.00,50.195
1161.00,50.209
1162.00,50.214
1163.00,50.221
1164.00,50.207
1165.00,50.192
1166.00,50.194
1167.00,50.192
1168.00,50.200
1169.00,50.185
1170.00,50.200
1171.00,50.177
1172.00,50.177
1173.00,50.177
1174.00,50.187
1175.00,50.175
1176.00,50.181
1177.00,50.173
1178.00,50.188
1179.00,50.197
1180.00,50.171
1181.00,50.185
1182.00,50.188
1183.00,50.165
1184.00,50.159
1185.00,50.181
1186.00,50.154
1187.00,50.164
1188.00,50.156
1189.00,50.173
1190.00,50.156
1191.00,50.149
1192.00,50.179
1193.00,50.175
1194.00,50.168
1195.00,50.145
1196.00,50.181
1197.00,50.165
1198.00,50.166
1199.00,50.165
1200.00,50.189
1201.00,50.206
1202.00,50.155
1203.00,50.179
1204.00,50.158
1205.00,50.169
1206.00,50.164
1207.00,50.193
1208.00,50.178
1209.00,50.147
1210.00,50.160
1211.00,50.158
1212.00,50.157
1213.00,50.121
1214.00,50.166
1215.00,50.144
1216.00,50.127
1217.00,50.138
1218.00,50.144
1219.00,50.156
1220.00,50.163
1221.00,50.197
1222.00,50.167
1223.00,50.163
1224.00,50.158
1225.00,50.157
1226.00,50.151
1227.00,50.137
1228.00,50.157
1229.00,50.171
1230.00,50.198
1231.00,50.183
1232.00,50.215
1233.00,50.206
1234.00,50.224
1235.00,50.209
1236.00,50.232
1237.00,50.203
1238.00,50.199
1239.00,50.206
1240.00,50.221
1241.00,50.213
1242.00,50.197
1243.00,50.242
1244.00,50.217
1245.00,50.247
1246.00,50.247
1247.00,50.246
1248.00,50.217
1249.00,50.224
1250.00,50.254
1251.00,50.263
1252.00,50.262
1253.00,50.253
1254.00,50.266
1255.00,50.274
1256.00,50.244
1257.00,50.216
1258.00,50.283
1259.00,50.283
1260.00,50.286
1261.00,50.291
1262.00,50.299
1263.00,50.287
1264.00,50.288
1265.00,50.293
1266.00,50.311
1267.00,50.317
1268.00,50.338
1269.00,50.342
1270.00,50.331
1271.00,50.324
1272.00,50.333
1273.00,50.358
1274.00,50.358
1275.00,50.338
1276.00,50.362
1277.00,50.361
1278.00,50.374
1279.00,50.360
1280.00,50.365
1281.00,50.387
1282.00,50.388
1283.00,50.392
1284.00,50.393
1285.00,50.377
1286.00,50.387
1287.00,50.382
1288.00,50.403
1289.00,50.390
1290.00,50.397
1291.00,50.442
1292.00,50.417
1293.00,50.404
1294.00,50.437
1295.00,50.456
1296.00,50.437
1297.00,50.439
1298.00,50.467
1299.00,50.467
1300.00,50.467
1301.00,50.453
1302.00,50.496
1303.00,50.492
1304.00,50.449
1305.00,50.484
1306.00,50.505
1307.00,50.493
1308.00,50.487
1309.00,50.512
1310.00,50.527
1311.00,50.521
1312.00,50.531
1313.00,50.563
1314.00,50.566
1315.00,50.558
1316.00,50.586
1317.00,50.600
1318.00,50.590
1319.00,50.589
1320.00,50.630
1321.00,50.777
1322.00,50.761
1323.00,50.755
1324.00,50.754
1325.00,50.763
1326.00,50.736
1327.00,50.756
1328.00,50.777
1329.00,50.733
1330.00,50.745
1331.00,50.755
1332.00,50.756
1333.00,50.758
1334.00,50.782
1335.00,50.822
1336.00,50.833
1337.00,50.865
1338.00,50.951
1339.00,50.972
1340.00,51.021
1341.00,51.080
1342.00,51.163
1343.00,51.213
1344.00,51.243
1345.00,51.286
1346.00,51.359
1347.00,51.357
1348.00,51.372
1349.00,51.423
1350.00,51.430
1351.00,51.450
1352.00,51.448
1353.00,51.469
1354.00,51.452
1355.00,51.483
1356.00,51.460
1357.00,51.500
1358.00,51.487
1359.00,51.489
1360.00,51.548
1361.00,51.526
1362.00,51.491
1363.00,51.587
1364.00,51.447
1365.00,51.547
1366.00,51.536
1367.00,51.475
1368.00,51.522
1369.00,51.503
1370.00,51.491
1371.00,51.501
1372.00,51.471
1373.00,51.466
1374.00,51.487
1375.00,51.496
1376.00,51.477
1377.00,51.457
1378.00,51.518
1379.00,51.501
1380.00,51.503
1381.00,51.445
1382.00,51.485
1383.00,51.483
1384.00,51.431
1385.00,51.397
1386.00,51.469
1387.00,51.447
1388.00,51.425
1389.00,51.483
1390.00,51.496
1391.00,51.457
1392.00,51.501
1393.00,51.572
1394.00,51.469
1395.00,51.448
1396.00,51.465
1397.00,51.571
1398.00,51.426
1399.00,51.496
1400.00,51.500
1401.00,51.529
1402.00,51.506
1403.00,51.369
1404.00,51.461
1405.00,51.505
1406.00,51.520
1407.00,51.517
1408.00,51.515
1409.00,51.549
1410.00,51.536
1411.00,51.539
1412.00,51.622
1413.00,51.550
1414.00,51.529
1415.00,51.554
1416.00,51.598
1417.00,51.614
1418.00,51.586
1419.00,51.654
1420.00,51.634
1421.00,51.654
1422.00,51.667
1423.00,51.657
1424.00,51.689
1425.00,51.663
1426.00,51.685
1427.00,51.715
1428.00,51.721
1429.00,51.725
1430.00,51.752
1431.00,51.762
1432.00,51.788
1433.00,51.790
1434.00,51.801
1435.00,51.880
1436.00,51.832
1437.00,51.836
1438.00,51.850
1439.00,51.884
1440.00,51.897
1441.00,51.901
1442.00,51.908
1443.00,51.932
1444.00,51.984
1445.00,51.953
1446.00,51.943
1447.00,51.974
1448.00,52.013
1449.00,52.033
1450.00,52.028
1451.00,52.049
1452.00,52.067
1453.00,52.067
1454.00,52.084
1455.00,52.118
1456.00,52.152
1457.00,52.157
1458.00,52.142
1459.00,52.171
1460.00,52.182
1461.00,52.198
1462.00,52.215
1463.00,52.218
1464.00,52.242
1465.00,52.254
1466.00,52.234
1467.00,52.254
1468.00,52.354
1469.00,52.297
1470.00,52.311
1471.00,52.349
1472.00,52.357
1473.00,52.361
1474.00,52.415
1475.00,52.381
1476.00,52.392
1477.00,52.380
1478.00,52.425
1479.00,52.448
1480.00,52.434
1481.00,52.427
1482.00,52.444
1483.00,52.483
1484.00,52.472
1485.00,52.497
1486.00,52.524
1487.00,52.534
1488.00,52.542
1489.00,52.570
1490.00,52.567
1491.00,52.555
1492.00,52.583
1493.00,52.597
1494.00,52.595
1495.00,52.618
1496.00,52.633
1497.00,52.646
1498.00,52.636
1499.00,52.643
1500.00,52.694
1501.00, 
1502.00, 
1503.00, 
1504.00, 
1505.00, 
1506.00, 
1507.00, 
1508.00, 
1509.00, 
1510.00, 
1511.00, 
1512.00, 
1513.00, 
1514.00, 
1515.00, 
1516.00, 
1517.00, 
1518.00, 
1519.00, 
1520.00, 
1521.00, 
1522.00, 
1523.00, 
1524.00, 
1525.00, 
1526.00, 
1527.00, 
1528.00, 
1529.00, 
1530.00, 
1531.00, 
1532.00, 
1533.00, 
1534.00, 
1535.00, 
1536.00, 
1537.00, 
1538.00, 
1539.00, 
1540.00, 
1541.00, 
1542.00, 
1543.00, 
1544.00, 
1545.00, 
1546.00, 
1547.00, 
1548.00, 
1549.00, 
1550.00, 
1551.00, 
1552.00, 
1553.00, 
1554.00, 
1555.00, 
1556.00, 
1557.00, 
1558.00, 
1559.00, 
1560.00, 
1561.00, 
1562.00, 
1563.00, 
1564.00, 
1565.00, 
1566.00, 
1567.00, 
1568.00, 
1569.00, 
1570.00, 
1571.00, 
1572.00, 
1573.00, 
1574.00, 
1575.00, 
1576.00, 
1577.00, 
1578.00, 
1579.00, 
1580.00, 
1581.00, 
1582.00, 
1583.00, 
1584.00, 
1585.00, 
1586.00, 
1587.00, 
1588.00, 
1589.00, 
1590.00, 
1591.00, 
1592.00, 
1593.00, 
1594.00, 
1595.00, 
1596.00, 
1597.00, 
1598.00, 
1599.00, 
1600.00, 
1601.00, 
1602.00, 
1603.00, 
1604.00, 
1605.00, 
1606.00, 
1607.00, 
1608.00, 
1609.00, 
1610.00, 
1611.00, 
1612.00, 
1613.00, 
1614.00, 
1615.00, 
1616.00, 
1617.00, 
1618.00, 
1619.00, 
1620.00, 
1621.00, 
1622.00, 
1623.00, 
1624.00, 
1625.00, 
1626.00, 
1627.00, 
1628.00, 
1629.00, 
1630.00, 
1631.00, 
1632.00, 
1633.00, 
1634.00, 
1635.00, 
1636.00, 
1637.00, 
1638.00, 
1639.00, 
1640.00, 
1641.00, 
1642.00, 
1643.00, 
1644.00, 
1645.00, 
1646.00, 
1647.00, 
1648.00, 
1649.00, 
1650.00, 
1651.00, 
1652.00, 
1653.00, 
1654.00, 
1655.00, 
1656.00, 
1657.00, 
1658.00, 
1659.00, 
1660.00, 
1661.00, 
1662.00, 
1663.00, 
1664.00, 
1665.00, 
1666.00, 
1667.00, 
1668.00, 
1669.00, 
1670.00, 
1671.00, 
1672.00, 
1673.00, 
1674.00, 
1675.00, 
1676.00, 
1677.00, 
1678.00, 
1679.00, 
1680.00, 
1681.00, 
1682.00, 
1683.00, 
1684.00, 
1685.00, 
1686.00, 
1687.00, 
1688.00, 
1689.00, 
1690.00, 
1691.00, 
1692.00, 
1693.00, 
1694.00, 
1695.00, 
1696.00, 
1697.00, 
1698.00, 
1699.00, 
1700.00, 
1701.00, 
1702.00, 
1703.00, 
1704.00, 
1705.00, 
1706.00, 
1707.00, 
1708.00, 
1709.00, 
1710.00, 
1711.00, 
1712.00, 
1713.00, 
1714.00, 
1715.00, 
1716.00, 
1717.00, 
1718.00, 
1719.00, 
1720.00, 
1721.00, 
1722.00, 
1723.00, 
1724.00, 
1725.00, 
1726.00, 
1727.00, 
1728.00, 
1729.00, 
1730.00, 
1731.00, 
1732.00, 
1733.00, 
1734.00, 
1735.00, 
1736.00, 
1737.00, 
1738.00, 
1739.00, 
1740.00, 
1741.00, 
1742.00, 
1743.00, 
1744.00, 
1745.00, 
1746.00, 
1747.00, 
1748.00, 
1749.00, 
1750.00, 
1751.00, 
1752.00, 
1753.00, 
1754.00, 
1755.00, 
1756.00, 
1757.00, 
1758.00, 
1759.00, 
1760.00, 
1761.00, 
1762.00, 
1763.00, 
1764.00, 
1765.00, 
1766.00, 
1767.00, 
1768.00, 
1769.00, 
1770.00, 
1771.00, 
1772.00, 
1773.00, 
1774.00, 
1775.00, 
1776.00, 
1777.00, 
1778.00, 
1779.00, 
1780.00, 
1781.00, 
1782.00, 
1783.00, 
1784.00, 
1785.00, 
1786.00, 
1787.00, 
1788.00, 
1789.00, 
1790.00, 
1791.00, 
1792.00, 
1793.00, 
1794.00, 
1795.00, 
1796.00, 
1797.00, 
1798.00, 
1799.00, 
1800.00, 
1801.00, 
1802.00, 
1803.00, 
1804.00, 
1805.00, 
1806.00, 
1807.00, 
1808.00, 
1809.00, 
1810.00, 
1811.00, 
1812.00, 
1813.00, 
1814.00, 
1815.00, 
1816.00, 
1817.00, 
1818.00, 
1819.00, 
1820.00, 
1821.00, 
1822.00, 
1823.00, 
1824.00, 
1825.00, 
1826.00, 
1827.00, 
1828.00, 
1829.00, 
1830.00, 
1831.00, 
1832.00, 
1833.00, 
1834.00, 
1835.00, 
1836.00, 
1837.00, 
1838.00, 
1839.00, 
1840.00, 
1841.00, 
1842.00, 
1843.00, 
1844.00, 
1845.00, 
1846.00, 
1847.00, 
1848.00, 
1849.00, 
1850.00, 
1851.00, 
1852.00, 
1853.00, 
1854.00, 
1855.00, 
1856.00, 
1857.00, 
1858.00, 
1859.00, 
1860.00, 
1861.00, 
1862.00, 
1863.00, 
1864.00, 
1865.00, 
1866.00, 
1867.00, 
1868.00, 
1869.00, 
1870.00, 
1871.00, 
1872.00, 
1873.00, 
1874.00, 
1875.00, 
1876.00, 
1877.00, 
1878.00, 
1879.00, 
1880.00, 
1881.00, 
1882.00, 
1883.00, 
1884.00, 
1885.00, 
1886.00, 
1887.00, 
1888.00, 
1889.00, 
1890.00, 
1891.00, 
1892.00, 
1893.00, 
1894.00, 
1895.00, 
1896.00, 
1897.00, 
1898.00, 
1899.00, 
1900.00, 
1901.00, 
1902.00, 
1903.00, 
1904.00, 
1905.00, 
1906.00, 
1907.00, 
1908.00, 
1909.00, 
1910.00, 
1911.00, 
1912.00, 
1913.00, 
1914.00, 
1915.00, 
1916.00, 
1917.00, 
1918.00, 
1919.00, 
1920.00, 
1921.00, 
1922.00, 
1923.00, 
1924.00, 
1925.00, 
1926.00, 
1927.00, 
1928.00, 
1929.00, 
1930.00, 
1931.00, 
1932.00, 
1933.00, 
1934.00, 
1935.00, 
1936.00, 
1937.00, 
1938.00, 
1939.00, 
1940.00, 
1941.00, 
1942.00, 
1943.00, 
1944.00, 
1945.00, 
1946.00, 
1947.00, 
1948.00, 
1949.00, 
1950.00, 
1951.00, 
1952.00, 
1953.00, 
1954.00, 
1955.00, 
1956.00, 
1957.00, 
1958.00, 
1959.00, 
1960.00, 
1961.00, 
1962.00, 
1963.00, 
1964.00, 
1965.00, 
1966.00, 
1967.00, 
1968.00, 
1969.00, 
1970.00, 
1971.00, 
1972.00, 
1973.00, 
1974.00, 
1975.00, 
1976.00, 
1977.00, 
1978.00, 
1979.00, 
1980.00, 
1981.00, 
1982.00, 
1983.00, 
1984.00, 
1985.00, 
1986.00, 
1987.00, 
1988.00, 
1989.00, 
1990.00, 
1991.00, 
1992.00, 
1993.00, 
1994.00, 
1995.00, 
1996.00, 
1997.00, 
1998.00, 
1999.00, 
2000.00, 
2001.00, 
2002.00, 
2003.00, 
2004.00, 
2005.00, 
2006.00, 
2007.00, 
2008.00, 
2009.00, 
2010.00, 
2011.00, 
2012.00, 
2013.00, 
2014.00, 
2015.00, 
2016.00, 
2017.00, 
2018.00, 
2019.00, 
2020.00, 
2021.00, 
2022.00, 
2023.00, 
2024.00, 
2025.00, 
2026.00, 
2027.00, 
2028.00, 
2029.00, 
2030.00, 
2031.00, 
2032.00, 
2033.00, 
2034.00, 
2035.00, 
2036.00, 
2037.00, 
2038.00, 
2039.00, 
2040.00, 
2041.00, 
2042.00, 
2043.00, 
2044.00, 
2045.00, 
2046.00, 
2047.00, 
2048.00, 
2049.00, 
2050.00, 
2051.00, 
2052.00, 
2053.00, 
2054.00, 
2055.00, 
2056.00, 
2057.00, 
2058.00, 
2059.00, 
2060.00, 
2061.00, 
2062.00, 
2063.00, 
2064.00, 
2065.00, 
2066.00, 
2067.00, 
2068.00, 
2069.00, 
2070.00, 
2071.00, 
2072.00, 
2073.00, 
2074.00, 
2075.00, 
2076.00, 
2077.00, 
2078.00, 
2079.00, 
2080.00, 
2081.00, 
2082.00, 
2083.00, 
2084.00, 
2085.00, 
2086.00, 
2087.00, 
2088.00, 
2089.00, 
2090.00, 
2091.00, 
2092.00, 
2093.00, 
2094.00, 
2095.00, 
2096.00, 
2097.00, 
2098.00, 
2099.00, 
2100.00, 
2101.00, 
2102.00, 
2103.00, 
2104.00, 
2105.00, 
2106.00, 
2107.00, 
2108.00, 
2109.00, 
2110.00, 
2111.00, 
2112.00, 
2113.00, 
2114.00, 
2115.00, 
2116.00, 
2117.00, 
2118.00, 
2119.00, 
2120.00, 
2121.00, 
2122.00, 
2123.00, 
2124.00, 
2125.00, 
2126.00, 
2127.00, 
2128.00, 
2129.00, 
2130.00, 
2131.00, 
2132.00, 
2133.00, 
2134.00, 
2135.00, 
2136.00, 
2137.00, 
2138.00, 
2139.00, 
2140.00, 
2141.00, 
2142.00, 
2143.00, 
2144.00, 
2145.00, 
2146.00, 
2147.00, 
2148.00, 
2149.00, 
2150.00, 
2151.00, 
2152.00, 
2153.00, 
2154.00, 
2155.00, 
2156.00, 
2157.00, 
2158.00, 
2159.00, 
2160.00, 
2161.00, 
2162.00, 
2163.00, 
2164.00, 
2165.00, 
2166.00, 
2167.00, 
2168.00, 
2169.00, 
2170.00, 
2171.00, 
2172.00, 
2173.00, 
2174.00, 
2175.00, 
2176.00, 
2177.00, 
2178.00, 
2179.00, 
2180.00, 
2181.00, 
2182.00, 
2183.00, 
2184.00, 
2185.00, 
2186.00, 
2187.00, 
2188.00, 
2189.00, 
2190.00, 
2191.00, 
2192.00, 
2193.00, 
2194.00, 
2195.00, 
2196.00, 
2197.00, 
2198.00, 
2199.00, 
2200.00, 
2201.00, 
2202.00, 
2203.00, 
2204.00, 
2205.00, 
2206.00, 
2207.00, 
2208.00, 
2209.00, 
2210.00, 
2211.00, 
2212.00, 
2213.00, 
2214.00, 
2215.00, 
2216.00, 
2217.00, 
2218.00, 
2219.00, 
2220.00, 
2221.00, 
2222.00, 
2223.00, 
2224.00, 
2225.00, 
2226.00, 
2227.00, 
2228.00, 
2229.00, 
2230.00, 
2231.00, 
2232.00, 
2233.00, 
2234.00, 
2235.00, 
2236.00, 
2237.00, 
2238.00, 
2239.00, 
2240.00, 
2241.00, 
2242.00, 
2243.00, 
2244.00, 
2245.00, 
2246.00, 
2247.00, 
2248.00, 
2249.00, 
2250.00, 
2251.00, 
2252.00, 
2253.00, 
2254.00, 
2255.00, 
2256.00, 
2257.00, 
2258.00, 
2259.00, 
2260.00, 
2261.00, 
2262.00, 
2263.00, 
2264.00, 
2265.00, 
2266.00, 
2267.00, 
2268.00, 
2269.00, 
2270.00, 
2271.00, 
2272.00, 
2273.00, 
2274.00, 
2275.00, 
2276.00, 
2277.00, 
2278.00, 
2279.00, 
2280.00, 
2281.00, 
2282.00, 
2283.00, 
2284.00, 
2285.00, 
2286.00, 
2287.00, 
2288.00, 
2289.00, 
2290.00, 
2291.00, 
2292.00, 
2293.00, 
2294.00, 
2295.00, 
2296.00, 
2297.00, 
2298.00, 
2299.00, 
2300.00, 
2301.00, 
2302.00, 
2303.00, 
2304.00, 
2305.00, 
2306.00, 
2307.00, 
2308.00, 
2309.00, 
2310.00, 
2311.00, 
2312.00, 
2313.00, 
2314.00, 
2315.00, 
2316.00, 
2317.00, 
2318.00, 
2319.00, 
2320.00, 
2321.00, 
2322.00, 
2323.00, 
2324.00, 
2325.00, 
2326.00, 
2327.00, 
2328.00, 
2329.00, 
2330.00, 
2331.00, 
2332.00, 
2333.00, 
2334.00, 
2335.00, 
2336.00, 
2337.00, 
2338.00, 
2339.00, 
2340.00, 
2341.00, 
2342.00, 
2343.00, 
2344.00, 
2345.00, 
2346.00, 
2347.00, 
2348.00, 
2349.00, 
2350.00, 
2351.00, 
2352.00, 
2353.00, 
2354.00, 
2355.00, 
2356.00, 
2357.00, 
2358.00, 
2359.00, 
2360.00, 
2361.00, 
2362.00, 
2363.00, 
2364.00, 
2365.00, 
2366.00, 
2367.00, 
2368.00, 
2369.00, 
2370.00, 
2371.00, 
2372.00, 
2373.00, 
2374.00, 
2375.00, 
2376.00, 
2377.00, 
2378.00, 
2379.00, 
2380.00, 
2381.00, 
2382.00, 
2383.00, 
2384.00, 
2385.00, 
2386.00, 
2387.00, 
2388.00, 
2389.00, 
2390.00, 
2391.00, 
2392.00, 
2393.00, 
2394.00, 
2395.00, 
2396.00, 
2397.00, 
2398.00, 
2399.00, 
2400.00, 
2401.00, 
2402.00, 
2403.00, 
2404.00, 
2405.00, 
2406.00, 
2407.00, 
2408.00, 
2409.00, 
2410.00, 
2411.00, 
2412.00, 
2413.00, 
2414.00, 
2415.00, 
2416.00, 
2417.00, 
2418.00, 
2419.00, 
2420.00, 
2421.00, 
2422.00, 
2423.00, 
2424.00, 
2425.00, 
2426.00, 
2427.00, 
2428.00, 
2429.00, 
2430.00, 
2431.00, 
2432.00, 
2433.00, 
2434.00, 
2435.00, 
2436.00, 
2437.00, 
2438.00, 
2439.00, 
2440.00, 
2441.00, 
2442.00, 
2443.00, 
2444.00, 
2445.00, 
2446.00, 
2447.00, 
2448.00, 
2449.00, 
2450.00, 
2451.00, 
2452.00, 
2453.00, 
2454.00, 
2455.00, 
2456.00, 
2457.00, 
2458.00, 
2459.00, 
2460.00, 
2461.00, 
2462.00, 
2463.00, 
2464.00, 
2465.00, 
2466.00, 
2467.00, 
2468.00, 
2469.00, 
2470.00, 
2471.00, 
2472.00, 
2473.00, 
2474.00, 
2475.00, 
2476.00, 
2477.00, 
2478.00, 
2479.00, 
2480.00, 
2481.00, 
2482.00, 
2483.00, 
2484.00, 
2485.00, 
2486.00, 
2487.00, 
2488.00, 
2489.00, 
2490.00, 
2491.00, 
2492.00, 
2493.00, 
2494.00, 
2495.00, 
2496.00, 
2497.00, 
2498.00, 
2499.00, 
2500.00, 
2501.00, 
2502.00, 
2503.00, 
2504.00, 
2505.00, 
2506.00, 
2507.00, 
2508.00, 
2509.00, 
2510.00, 
2511.00, 
2512.00, 
2513.00, 
2514.00, 
2515.00, 
2516.00, 
2517.00, 
2518.00, 
2519.00, 
2520.00, 
2521.00, 
2522.00, 
2523.00, 
2524.00, 
2525.00, 
2526.00, 
2527.00, 
2528.00, 
2529.00, 
2530.00, 
2531.00, 
2532.00, 
2533.00, 
2534.00, 
2535.00, 
2536.00, 
2537.00, 
2538.00, 
2539.00, 
2540.00, 
2541.00, 
2542.00, 
2543.00, 
2544.00, 
2545.00, 
2546.00, 
2547.00, 
2548.00, 
2549.00, 
2550.00, 
2551.00, 
2552.00, 
2553.00, 
2554.00, 
2555.00, 
2556.00, 
2557.00, 
2558.00, 
2559.00, 
2560.00, 
2561.00, 
2562.00, 
2563.00, 
2564.00, 
2565.00, 
2566.00, 
2567.00, 
2568.00, 
2569.00, 
2570.00, 
2571.00, 
2572.00, 
2573.00, 
2574.00, 
2575.00, 
2576.00, 
2577.00, 
2578.00, 
2579.00, 
2580.00, 
2581.00, 
2582.00, 
2583.00, 
2584.00, 
2585.00, 
2586.00, 
2587.00, 
2588.00, 
2589.00, 
2590.00, 
2591.00, 
2592.00, 
2593.00, 
2594.00, 
2595.00, 
2596.00, 
2597.00, 
2598.00, 
2599.00, 
2600.00, 
