"2cP3 - RawData"
"Wavelength nm.","T%"
200.00,0.002
201.00,0.000
202.00,0.001
203.00,0.002
204.00,0.002
205.00,0.001
206.00,0.004
207.00,-0.000
208.00,0.001
209.00,0.004
210.00,0.003
211.00,-0.000
212.00,0.001
213.00,0.003
214.00,0.001
215.00,0.003
216.00,0.002
217.00,0.003
218.00,-0.003
219.00,0.004
220.00,0.000
221.00,0.002
222.00,0.002
223.00,0.000
224.00,0.002
225.00,0.000
226.00,0.002
227.00,-0.002
228.00,0.001
229.00,0.000
230.00,0.002
231.00,0.001
232.00,0.001
233.00,-0.001
234.00,0.001
235.00,0.002
236.00,0.002
237.00,0.000
238.00,0.001
239.00,0.002
240.00,0.002
241.00,0.001
242.00,0.000
243.00,0.003
244.00,0.001
245.00,-0.000
246.00,-0.001
247.00,0.001
248.00,0.002
249.00,0.003
250.00,-0.000
251.00,-0.001
252.00,0.001
253.00,0.002
254.00,0.000
255.00,0.003
256.00,0.001
257.00,0.001
258.00,0.000
259.00,0.000
260.00,-0.001
261.00,0.002
262.00,-0.001
263.00,0.001
264.00,0.002
265.00,0.003
266.00,0.002
267.00,0.001
268.00,0.001
269.00,0.001
270.00,0.001
271.00,0.000
272.00,0.002
273.00,0.001
274.00,-0.000
275.00,-0.000
276.00,0.001
277.00,0.001
278.00,0.001
279.00,0.002
280.00,0.000
281.00,-0.001
282.00,0.001
283.00,0.001
284.00,0.000
285.00,-0.000
286.00,0.002
287.00,0.003
288.00,0.002
289.00,0.001
290.00,0.003
291.00,0.001
292.00,0.001
293.00,-0.000
294.00,-0.001
295.00,0.000
296.00,-0.000
297.00,0.001
298.00,0.001
299.00,0.002
300.00,0.003
301.00,0.006
302.00,0.009
303.00,0.012
304.00,0.017
305.00,0.029
306.00,0.040
307.00,0.066
308.00,0.103
309.00,0.160
310.00,0.218
311.00,0.284
312.00,0.395
313.00,0.545
314.00,0.729
315.00,0.943
316.00,1.201
317.00,1.529
318.00,1.883
319.00,2.318
320.00,2.836
321.00,3.372
322.00,4.042
323.00,4.756
324.00,5.521
325.00,6.272
326.00,7.059
327.00,7.985
328.00,8.926
329.00,9.877
330.00,10.896
331.00,11.939
332.00,12.995
333.00,14.099
334.00,15.141
335.00,16.260
336.00,17.308
337.00,18.379
338.00,19.416
339.00,20.376
340.00,21.453
341.00,22.478
342.00,23.392
343.00,24.306
344.00,25.177
345.00,25.917
346.00,26.785
347.00,27.643
348.00,28.436
349.00,29.036
350.00,29.706
351.00,30.369
352.00,30.883
353.00,31.472
354.00,31.988
355.00,32.463
356.00,33.029
357.00,33.408
358.00,33.845
359.00,34.238
360.00,34.638
361.00,34.952
362.00,35.323
363.00,35.620
364.00,35.919
365.00,36.168
366.00,36.428
367.00,36.602
368.00,36.729
369.00,36.900
370.00,37.126
371.00,37.222
372.00,37.315
373.00,37.411
374.00,37.372
375.00,37.409
376.00,37.509
377.00,37.534
378.00,37.471
379.00,37.463
380.00,37.588
381.00,37.581
382.00,37.630
383.00,37.754
384.00,37.845
385.00,37.966
386.00,38.061
387.00,38.238
388.00,38.301
389.00,38.412
390.00,38.552
391.00,38.690
392.00,38.802
393.00,38.812
394.00,38.911
395.00,38.978
396.00,38.984
397.00,39.069
398.00,39.139
399.00,39.222
400.00,39.226
401.00,39.301
402.00,39.317
403.00,39.317
404.00,39.368
405.00,39.461
406.00,39.469
407.00,39.393
408.00,39.398
409.00,39.322
410.00,39.291
411.00,39.278
412.00,39.308
413.00,39.319
414.00,39.340
415.00,39.282
416.00,39.309
417.00,39.430
418.00,39.429
419.00,39.449
420.00,39.413
421.00,39.515
422.00,39.567
423.00,39.637
424.00,39.555
425.00,39.619
426.00,39.681
427.00,39.739
428.00,39.800
429.00,39.796
430.00,39.842
431.00,39.886
432.00,39.910
433.00,39.952
434.00,39.988
435.00,40.040
436.00,40.092
437.00,40.125
438.00,40.185
439.00,40.242
440.00,40.302
441.00,40.345
442.00,40.399
443.00,40.458
444.00,40.502
445.00,40.549
446.00,40.633
447.00,40.781
448.00,40.762
449.00,40.887
450.00,40.963
451.00,41.019
452.00,41.105
453.00,41.170
454.00,41.219
455.00,41.324
456.00,41.351
457.00,41.428
458.00,41.497
459.00,41.609
460.00,41.697
461.00,41.764
462.00,41.816
463.00,41.913
464.00,42.034
465.00,42.098
466.00,42.159
467.00,42.196
468.00,42.267
469.00,42.513
470.00,42.452
471.00,42.506
472.00,42.590
473.00,42.614
474.00,42.676
475.00,42.753
476.00,42.821
477.00,42.838
478.00,43.012
479.00,43.074
480.00,43.171
481.00,43.309
482.00,43.413
483.00,43.420
484.00,43.512
485.00,43.698
486.00,43.751
487.00,43.820
488.00,43.930
489.00,44.071
490.00,44.117
491.00,44.194
492.00,44.342
493.00,44.313
494.00,44.333
495.00,44.362
496.00,44.530
497.00,44.567
498.00,44.705
499.00,44.813
500.00,44.793
501.00,44.898
502.00,45.015
503.00,45.106
504.00,45.180
505.00,45.277
506.00,45.307
507.00,45.320
508.00,45.433
509.00,45.547
510.00,45.590
511.00,45.656
512.00,45.768
513.00,45.847
514.00,45.928
515.00,46.045
516.00,46.052
517.00,46.140
518.00,46.324
519.00,46.369
520.00,46.351
521.00,46.411
522.00,46.456
523.00,46.550
524.00,46.545
525.00,46.596
526.00,46.687
527.00,46.750
528.00,46.817
529.00,46.825
530.00,46.817
531.00,47.057
532.00,47.102
533.00,47.162
534.00,47.189
535.00,47.248
536.00,47.323
537.00,47.339
538.00,47.413
539.00,47.486
540.00,47.454
541.00,47.514
542.00,47.556
543.00,47.589
544.00,47.673
545.00,47.657
546.00,47.655
547.00,47.779
548.00,47.863
549.00,47.834
550.00,47.909
551.00,47.982
552.00,48.041
553.00,48.109
554.00,48.163
555.00,48.204
556.00,48.192
557.00,48.232
558.00,48.292
559.00,48.358
560.00,48.439
561.00,48.447
562.00,48.515
563.00,48.534
564.00,48.559
565.00,48.558
566.00,48.608
567.00,48.613
568.00,48.602
569.00,48.621
570.00,48.622
571.00,48.602
572.00,48.687
573.00,48.719
574.00,48.793
575.00,48.780
576.00,48.812
577.00,48.842
578.00,48.941
579.00,48.945
580.00,49.002
581.00,49.102
582.00,49.134
583.00,49.145
584.00,49.217
585.00,49.251
586.00,49.306
587.00,49.387
588.00,49.361
589.00,49.350
590.00,49.388
591.00,49.450
592.00,49.396
593.00,49.473
594.00,49.508
595.00,49.471
596.00,49.524
597.00,49.629
598.00,49.545
599.00,49.513
600.00,49.706
601.00,49.831
602.00,49.811
603.00,49.891
604.00,49.857
605.00,49.843
606.00,49.898
607.00,49.823
608.00,49.924
609.00,49.923
610.00,49.886
611.00,49.868
612.00,49.997
613.00,49.977
614.00,49.935
615.00,49.920
616.00,49.955
617.00,50.046
618.00,50.137
619.00,50.098
620.00,50.125
621.00,50.183
622.00,50.018
623.00,50.203
624.00,50.232
625.00,50.153
626.00,50.169
627.00,50.267
628.00,50.374
629.00,50.327
630.00,50.360
631.00,50.319
632.00,50.430
633.00,50.480
634.00,50.399
635.00,50.485
636.00,50.605
637.00,50.618
638.00,50.667
639.00,50.726
640.00,50.593
641.00,50.438
642.00,50.663
643.00,50.773
644.00,50.683
645.00,50.711
646.00,50.809
647.00,50.774
648.00,50.870
649.00,50.956
650.00,50.701
651.00,50.781
652.00,50.959
653.00,51.101
654.00,50.986
655.00,50.909
656.00,51.025
657.00,51.196
658.00,51.084
659.00,51.216
660.00,51.270
661.00,51.059
662.00,51.314
663.00,51.250
664.00,51.337
665.00,51.278
666.00,51.333
667.00,51.433
668.00,51.211
669.00,51.560
670.00,51.506
671.00,51.392
672.00,51.426
673.00,51.547
674.00,51.487
675.00,51.578
676.00,51.650
677.00,51.518
678.00,51.545
679.00,51.558
680.00,51.505
681.00,51.542
682.00,51.689
683.00,51.636
684.00,51.752
685.00,51.770
686.00,51.566
687.00,51.801
688.00,51.988
689.00,51.758
690.00,51.816
691.00,51.832
692.00,51.841
693.00,51.722
694.00,51.748
695.00,51.873
696.00,51.873
697.00,51.978
698.00,51.911
699.00,52.005
700.00,52.081
701.00,51.977
702.00,52.010
703.00,52.087
704.00,52.138
705.00,52.058
706.00,52.245
707.00,51.968
708.00,52.000
709.00,52.335
710.00,52.018
711.00,52.010
712.00,52.094
713.00,52.068
714.00,51.965
715.00,52.083
716.00,52.012
717.00,52.012
718.00,52.047
719.00,52.050
720.00,52.110
721.00,56.739
722.00,56.754
723.00,56.655
724.00,56.686
725.00,56.611
726.00,56.656
727.00,56.480
728.00,56.537
729.00,56.389
730.00,56.453
731.00,56.443
732.00,56.378
733.00,56.334
734.00,56.358
735.00,56.242
736.00,56.291
737.00,56.283
738.00,56.216
739.00,56.246
740.00,56.225
741.00,56.279
742.00,56.196
743.00,56.148
744.00,56.052
745.00,56.035
746.00,56.002
747.00,56.027
748.00,55.942
749.00,55.951
750.00,55.858
751.00,55.816
752.00,55.786
753.00,55.714
754.00,55.660
755.00,55.656
756.00,55.582
757.00,55.598
758.00,55.557
759.00,55.617
760.00,55.624
761.00,55.492
762.00,55.531
763.00,55.469
764.00,55.454
765.00,55.338
766.00,55.360
767.00,55.308
768.00,55.296
769.00,55.249
770.00,55.272
771.00,55.294
772.00,55.299
773.00,55.203
774.00,55.219
775.00,55.291
776.00,55.144
777.00,55.122
778.00,55.134
779.00,55.067
780.00,55.042
781.00,55.032
782.00,55.069
783.00,54.951
784.00,54.956
785.00,54.923
786.00,54.866
787.00,54.835
788.00,54.780
789.00,54.816
790.00,54.777
791.00,54.722
792.00,54.717
793.00,54.738
794.00,54.595
795.00,54.588
796.00,54.587
797.00,54.608
798.00,54.550
799.00,54.396
800.00,54.510
801.00,54.512
802.00,54.349
803.00,54.392
804.00,54.312
805.00,54.275
806.00,54.328
807.00,54.343
808.00,54.271
809.00,54.107
810.00,54.201
811.00,54.167
812.00,54.168
813.00,54.075
814.00,54.089
815.00,54.121
816.00,53.972
817.00,54.034
818.00,53.934
819.00,54.000
820.00,53.919
821.00,53.915
822.00,53.704
823.00,53.852
824.00,53.894
825.00,53.722
826.00,53.610
827.00,53.751
828.00,53.675
829.00,53.706
830.00,53.607
831.00,56.060
832.00,56.020
833.00,56.007
834.00,55.982
835.00,55.897
836.00,55.926
837.00,55.886
838.00,55.857
839.00,55.819
840.00,55.800
841.00,55.821
842.00,55.767
843.00,55.715
844.00,55.706
845.00,55.674
846.00,55.629
847.00,55.600
848.00,55.599
849.00,55.508
850.00,55.545
851.00,55.435
852.00,55.440
853.00,55.411
854.00,55.371
855.00,55.218
856.00,55.318
857.00,55.236
858.00,55.260
859.00,55.185
860.00,55.212
861.00,55.175
862.00,55.146
863.00,55.098
864.00,55.101
865.00,55.070
866.00,55.027
867.00,55.042
868.00,54.999
869.00,55.015
870.00,54.891
871.00,54.978
872.00,54.965
873.00,54.922
874.00,54.960
875.00,54.909
876.00,54.854
877.00,54.868
878.00,54.891
879.00,54.847
880.00,54.823
881.00,54.805
882.00,54.785
883.00,54.761
884.00,54.712
885.00,54.715
886.00,54.688
887.00,54.646
888.00,54.638
889.00,54.635
890.00,54.597
891.00,54.564
892.00,54.577
893.00,54.522
894.00,54.512
895.00,54.483
896.00,54.467
897.00,54.446
898.00,54.409
899.00,54.416
900.00,54.407
901.00,54.364
902.00,54.354
903.00,54.343
904.00,54.323
905.00,54.308
906.00,54.287
907.00,54.266
908.00,54.191
909.00,54.172
910.00,54.163
911.00,54.148
912.00,54.128
913.00,54.125
914.00,54.097
915.00,54.068
916.00,54.038
917.00,53.998
918.00,53.990
919.00,53.949
920.00,53.950
921.00,53.928
922.00,53.912
923.00,53.886
924.00,53.882
925.00,53.851
926.00,53.857
927.00,53.801
928.00,53.799
929.00,53.794
930.00,53.754
931.00,53.748
932.00,53.709
933.00,53.701
934.00,53.690
935.00,53.647
936.00,53.630
937.00,53.601
938.00,53.599
939.00,53.576
940.00,53.556
941.00,53.533
942.00,53.455
943.00,53.518
944.00,53.444
945.00,53.440
946.00,53.434
947.00,53.409
948.00,53.383
949.00,53.335
950.00,53.323
951.00,53.405
952.00,53.285
953.00,53.250
954.00,53.249
955.00,53.219
956.00,53.186
957.00,53.155
958.00,53.157
959.00,53.115
960.00,53.087
961.00,53.056
962.00,53.078
963.00,53.011
964.00,53.024
965.00,53.011
966.00,52.999
967.00,52.975
968.00,52.974
969.00,52.997
970.00,52.962
971.00,52.971
972.00,52.936
973.00,52.976
974.00,52.976
975.00,52.967
976.00,52.977
977.00,52.959
978.00,52.992
979.00,52.938
980.00,52.962
981.00,52.960
982.00,52.931
983.00,52.927
984.00,52.909
985.00,52.913
986.00,52.867
987.00,52.898
988.00,52.869
989.00,52.870
990.00,52.847
991.00,52.825
992.00,52.865
993.00,52.793
994.00,52.820
995.00,52.794
996.00,52.789
997.00,52.783
998.00,52.752
999.00,52.776
1000.00,52.723
1001.00,52.725
1002.00,52.711
1003.00,52.711
1004.00,52.664
1005.00,52.649
1006.00,52.679
1007.00,52.622
1008.00,52.622
1009.00,52.621
1010.00,52.607
1011.00,52.595
1012.00,52.619
1013.00,52.579
1014.00,52.531
1015.00,52.529
1016.00,52.503
1017.00,52.520
1018.00,52.475
1019.00,52.461
1020.00,52.474
1021.00,52.442
1022.00,52.436
1023.00,52.401
1024.00,52.409
1025.00,52.379
1026.00,52.365
1027.00,52.386
1028.00,52.343
1029.00,52.315
1030.00,52.281
1031.00,52.302
1032.00,52.253
1033.00,52.250
1034.00,52.210
1035.00,52.196
1036.00,52.173
1037.00,52.151
1038.00,52.135
1039.00,52.113
1040.00,52.090
1041.00,52.044
1042.00,52.056
1043.00,52.024
1044.00,52.055
1045.00,52.035
1046.00,52.037
1047.00,52.048
1048.00,52.033
1049.00,52.056
1050.00,52.088
1051.00,52.106
1052.00,52.119
1053.00,52.118
1054.00,52.113
1055.00,52.121
1056.00,52.140
1057.00,52.145
1058.00,52.135
1059.00,52.100
1060.00,52.137
1061.00,52.125
1062.00,52.082
1063.00,52.091
1064.00,52.105
1065.00,52.085
1066.00,52.060
1067.00,52.067
1068.00,52.079
1069.00,52.047
1070.00,52.013
1071.00,52.020
1072.00,52.054
1073.00,52.025
1074.00,52.006
1075.00,51.994
1076.00,51.989
1077.00,51.966
1078.00,51.964
1079.00,51.956
1080.00,51.955
1081.00,51.926
1082.00,51.928
1083.00,51.903
1084.00,51.888
1085.00,51.886
1086.00,51.885
1087.00,51.893
1088.00,51.916
1089.00,51.855
1090.00,51.846
1091.00,51.844
1092.00,51.817
1093.00,51.814
1094.00,51.809
1095.00,51.799
1096.00,51.779
1097.00,51.776
1098.00,51.777
1099.00,51.758
1100.00,51.761
1101.00,51.775
1102.00,51.733
1103.00,51.722
1104.00,51.730
1105.00,51.715
1106.00,51.692
1107.00,51.694
1108.00,51.698
1109.00,51.687
1110.00,51.668
1111.00,51.664
1112.00,51.664
1113.00,51.645
1114.00,51.629
1115.00,51.634
1116.00,51.644
1117.00,51.606
1118.00,51.611
1119.00,51.605
1120.00,51.601
1121.00,51.581
1122.00,51.580
1123.00,51.584
1124.00,51.561
1125.00,51.531
1126.00,51.556
1127.00,51.555
1128.00,51.521
1129.00,51.514
1130.00,51.512
1131.00,51.498
1132.00,51.502
1133.00,51.530
1134.00,51.562
1135.00,51.471
1136.00,51.463
1137.00,51.477
1138.00,51.467
1139.00,51.446
1140.00,51.472
1141.00,51.459
1142.00,51.443
1143.00,51.430
1144.00,51.411
1145.00,51.419
1146.00,51.418
1147.00,51.396
1148.00,51.406
1149.00,51.436
1150.00,51.390
1151.00,51.406
1152.00,51.386
1153.00,51.377
1154.00,51.370
1155.00,51.392
1156.00,51.396
1157.00,51.395
1158.00,51.373
1159.00,51.391
1160.00,51.370
1161.00,51.377
1162.00,51.374
1163.00,51.384
1164.00,51.366
1165.00,51.358
1166.00,51.371
1167.00,51.373
1168.00,51.372
1169.00,51.360
1170.00,51.373
1171.00,51.339
1172.00,51.341
1173.00,51.346
1174.00,51.360
1175.00,51.347
1176.00,51.355
1177.00,51.353
1178.00,51.357
1179.00,51.360
1180.00,51.329
1181.00,51.348
1182.00,51.341
1183.00,51.335
1184.00,51.326
1185.00,51.341
1186.00,51.317
1187.00,51.319
1188.00,51.309
1189.00,51.327
1190.00,51.307
1191.00,51.283
1192.00,51.323
1193.00,51.311
1194.00,51.318
1195.00,51.319
1196.00,51.328
1197.00,51.314
1198.00,51.304
1199.00,51.310
1200.00,51.311
1201.00,51.310
1202.00,51.275
1203.00,51.299
1204.00,51.287
1205.00,51.302
1206.00,51.297
1207.00,51.323
1208.00,51.297
1209.00,51.301
1210.00,51.315
1211.00,51.282
1212.00,51.301
1213.00,51.261
1214.00,51.305
1215.00,51.274
1216.00,51.269
1217.00,51.281
1218.00,51.267
1219.00,51.284
1220.00,51.260
1221.00,51.282
1222.00,51.274
1223.00,51.298
1224.00,51.268
1225.00,51.258
1226.00,51.261
1227.00,51.242
1228.00,51.279
1229.00,51.291
1230.00,51.315
1231.00,51.292
1232.00,51.316
1233.00,51.324
1234.00,51.333
1235.00,51.323
1236.00,51.343
1237.00,51.323
1238.00,51.310
1239.00,51.319
1240.00,51.325
1241.00,51.328
1242.00,51.302
1243.00,51.336
1244.00,51.310
1245.00,51.344
1246.00,51.344
1247.00,51.335
1248.00,51.313
1249.00,51.332
1250.00,51.367
1251.00,51.363
1252.00,51.357
1253.00,51.374
1254.00,51.381
1255.00,51.398
1256.00,51.415
1257.00,51.330
1258.00,51.378
1259.00,51.359
1260.00,51.367
1261.00,51.375
1262.00,51.375
1263.00,51.369
1264.00,51.389
1265.00,51.399
1266.00,51.401
1267.00,51.405
1268.00,51.414
1269.00,51.432
1270.00,51.459
1271.00,51.435
1272.00,51.434
1273.00,51.454
1274.00,51.448
1275.00,51.436
1276.00,51.440
1277.00,51.451
1278.00,51.471
1279.00,51.450
1280.00,51.466
1281.00,51.484
1282.00,51.474
1283.00,51.479
1284.00,51.475
1285.00,51.458
1286.00,51.462
1287.00,51.456
1288.00,51.481
1289.00,51.459
1290.00,51.480
1291.00,51.493
1292.00,51.488
1293.00,51.478
1294.00,51.510
1295.00,51.518
1296.00,51.518
1297.00,51.517
1298.00,51.546
1299.00,51.545
1300.00,51.556
1301.00,51.550
1302.00,51.586
1303.00,51.554
1304.00,51.536
1305.00,51.581
1306.00,51.580
1307.00,51.581
1308.00,51.574
1309.00,51.582
1310.00,51.595
1311.00,51.582
1312.00,51.580
1313.00,51.603
1314.00,51.622
1315.00,51.624
1316.00,51.640
1317.00,51.663
1318.00,51.655
1319.00,51.646
1320.00,51.678
1321.00,51.801
1322.00,51.796
1323.00,51.776
1324.00,51.793
1325.00,51.777
1326.00,51.792
1327.00,51.777
1328.00,51.767
1329.00,51.768
1330.00,51.793
1331.00,51.778
1332.00,51.777
1333.00,51.775
1334.00,51.811
1335.00,51.833
1336.00,51.860
1337.00,51.859
1338.00,51.941
1339.00,51.964
1340.00,52.039
1341.00,52.097
1342.00,52.139
1343.00,52.224
1344.00,52.266
1345.00,52.304
1346.00,52.376
1347.00,52.362
1348.00,52.377
1349.00,52.398
1350.00,52.414
1351.00,52.431
1352.00,52.455
1353.00,52.426
1354.00,52.464
1355.00,52.594
1356.00,52.494
1357.00,52.433
1358.00,52.433
1359.00,52.460
1360.00,52.632
1361.00,53.363
1362.00,52.466
1363.00,52.617
1364.00,52.534
1365.00,52.526
1366.00,52.537
1367.00,52.507
1368.00,52.546
1369.00,52.514
1370.00,52.521
1371.00,52.528
1372.00,52.467
1373.00,52.481
1374.00,52.510
1375.00,52.498
1376.00,52.527
1377.00,52.480
1378.00,52.524
1379.00,52.478
1380.00,52.527
1381.00,52.522
1382.00,52.484
1383.00,52.446
1384.00,52.422
1385.00,52.460
1386.00,52.444
1387.00,52.423
1388.00,52.454
1389.00,52.494
1390.00,52.459
1391.00,52.432
1392.00,52.456
1393.00,52.525
1394.00,52.476
1395.00,52.425
1396.00,52.469
1397.00,52.432
1398.00,52.451
1399.00,52.438
1400.00,52.500
1401.00,52.471
1402.00,52.542
1403.00,52.517
1404.00,52.506
1405.00,52.521
1406.00,52.539
1407.00,52.531
1408.00,52.487
1409.00,52.547
1410.00,52.563
1411.00,52.526
1412.00,52.615
1413.00,52.531
1414.00,52.516
1415.00,52.562
1416.00,52.624
1417.00,52.647
1418.00,52.634
1419.00,52.613
1420.00,52.670
1421.00,52.752
1422.00,52.720
1423.00,52.678
1424.00,52.694
1425.00,52.685
1426.00,52.701
1427.00,52.721
1428.00,52.728
1429.00,52.735
1430.00,52.756
1431.00,52.782
1432.00,52.795
1433.00,52.814
1434.00,52.830
1435.00,52.878
1436.00,52.857
1437.00,52.843
1438.00,52.866
1439.00,52.912
1440.00,52.937
1441.00,52.924
1442.00,52.936
1443.00,52.935
1444.00,52.985
1445.00,52.979
1446.00,52.983
1447.00,52.998
1448.00,53.027
1449.00,53.041
1450.00,53.059
1451.00,53.081
1452.00,53.070
1453.00,53.076
1454.00,53.113
1455.00,53.140
1456.00,53.140
1457.00,53.141
1458.00,53.148
1459.00,53.182
1460.00,53.188
1461.00,53.198
1462.00,53.237
1463.00,53.221
1464.00,53.251
1465.00,53.268
1466.00,53.259
1467.00,53.266
1468.00,53.352
1469.00,53.299
1470.00,53.319
1471.00,53.342
1472.00,53.363
1473.00,53.372
1474.00,53.384
1475.00,53.396
1476.00,53.419
1477.00,53.389
1478.00,53.419
1479.00,53.442
1480.00,53.446
1481.00,53.454
1482.00,53.460
1483.00,53.501
1484.00,53.502
1485.00,53.496
1486.00,53.529
1487.00,53.566
1488.00,53.569
1489.00,53.574
1490.00,53.588
1491.00,53.588
1492.00,53.616
1493.00,53.611
1494.00,53.628
1495.00,53.650
1496.00,53.651
1497.00,53.673
1498.00,53.677
1499.00,53.685
1500.00,53.717
1501.00, 
1502.00, 
1503.00, 
1504.00, 
1505.00, 
1506.00, 
1507.00, 
1508.00, 
1509.00, 
1510.00, 
1511.00, 
1512.00, 
1513.00, 
1514.00, 
1515.00, 
1516.00, 
1517.00, 
1518.00, 
1519.00, 
1520.00, 
1521.00, 
1522.00, 
1523.00, 
1524.00, 
1525.00, 
1526.00, 
1527.00, 
1528.00, 
1529.00, 
1530.00, 
1531.00, 
1532.00, 
1533.00, 
1534.00, 
1535.00, 
1536.00, 
1537.00, 
1538.00, 
1539.00, 
1540.00, 
1541.00, 
1542.00, 
1543.00, 
1544.00, 
1545.00, 
1546.00, 
1547.00, 
1548.00, 
1549.00, 
1550.00, 
1551.00, 
1552.00, 
1553.00, 
1554.00, 
1555.00, 
1556.00, 
1557.00, 
1558.00, 
1559.00, 
1560.00, 
1561.00, 
1562.00, 
1563.00, 
1564.00, 
1565.00, 
1566.00, 
1567.00, 
1568.00, 
1569.00, 
1570.00, 
1571.00, 
1572.00, 
1573.00, 
1574.00, 
1575.00, 
1576.00, 
1577.00, 
1578.00, 
1579.00, 
1580.00, 
1581.00, 
1582.00, 
1583.00, 
1584.00, 
1585.00, 
1586.00, 
1587.00, 
1588.00, 
1589.00, 
1590.00, 
1591.00, 
1592.00, 
1593.00, 
1594.00, 
1595.00, 
1596.00, 
1597.00, 
1598.00, 
1599.00, 
1600.00, 
1601.00, 
1602.00, 
1603.00, 
1604.00, 
1605.00, 
1606.00, 
1607.00, 
1608.00, 
1609.00, 
1610.00, 
1611.00, 
1612.00, 
1613.00, 
1614.00, 
1615.00, 
1616.00, 
1617.00, 
1618.00, 
1619.00, 
1620.00, 
1621.00, 
1622.00, 
1623.00, 
1624.00, 
1625.00, 
1626.00, 
1627.00, 
1628.00, 
1629.00, 
1630.00, 
1631.00, 
1632.00, 
1633.00, 
1634.00, 
1635.00, 
1636.00, 
1637.00, 
1638.00, 
1639.00, 
1640.00, 
1641.00, 
1642.00, 
1643.00, 
1644.00, 
1645.00, 
1646.00, 
1647.00, 
1648.00, 
1649.00, 
1650.00, 
1651.00, 
1652.00, 
1653.00, 
1654.00, 
1655.00, 
1656.00, 
1657.00, 
1658.00, 
1659.00, 
1660.00, 
1661.00, 
1662.00, 
1663.00, 
1664.00, 
1665.00, 
1666.00, 
1667.00, 
1668.00, 
1669.00, 
1670.00, 
1671.00, 
1672.00, 
1673.00, 
1674.00, 
1675.00, 
1676.00, 
1677.00, 
1678.00, 
1679.00, 
1680.00, 
1681.00, 
1682.00, 
1683.00, 
1684.00, 
1685.00, 
1686.00, 
1687.00, 
1688.00, 
1689.00, 
1690.00, 
1691.00, 
1692.00, 
1693.00, 
1694.00, 
1695.00, 
1696.00, 
1697.00, 
1698.00, 
1699.00, 
1700.00, 
1701.00, 
1702.00, 
1703.00, 
1704.00, 
1705.00, 
1706.00, 
1707.00, 
1708.00, 
1709.00, 
1710.00, 
1711.00, 
1712.00, 
1713.00, 
1714.00, 
1715.00, 
1716.00, 
1717.00, 
1718.00, 
1719.00, 
1720.00, 
1721.00, 
1722.00, 
1723.00, 
1724.00, 
1725.00, 
1726.00, 
1727.00, 
1728.00, 
1729.00, 
1730.00, 
1731.00, 
1732.00, 
1733.00, 
1734.00, 
1735.00, 
1736.00, 
1737.00, 
1738.00, 
1739.00, 
1740.00, 
1741.00, 
1742.00, 
1743.00, 
1744.00, 
1745.00, 
1746.00, 
1747.00, 
1748.00, 
1749.00, 
1750.00, 
1751.00, 
1752.00, 
1753.00, 
1754.00, 
1755.00, 
1756.00, 
1757.00, 
1758.00, 
1759.00, 
1760.00, 
1761.00, 
1762.00, 
1763.00, 
1764.00, 
1765.00, 
1766.00, 
1767.00, 
1768.00, 
1769.00, 
1770.00, 
1771.00, 
1772.00, 
1773.00, 
1774.00, 
1775.00, 
1776.00, 
1777.00, 
1778.00, 
1779.00, 
1780.00, 
1781.00, 
1782.00, 
1783.00, 
1784.00, 
1785.00, 
1786.00, 
1787.00, 
1788.00, 
1789.00, 
1790.00, 
1791.00, 
1792.00, 
1793.00, 
1794.00, 
1795.00, 
1796.00, 
1797.00, 
1798.00, 
1799.00, 
1800.00, 
1801.00, 
1802.00, 
1803.00, 
1804.00, 
1805.00, 
1806.00, 
1807.00, 
1808.00, 
1809.00, 
1810.00, 
1811.00, 
1812.00, 
1813.00, 
1814.00, 
1815.00, 
1816.00, 
1817.00, 
1818.00, 
1819.00, 
1820.00, 
1821.00, 
1822.00, 
1823.00, 
1824.00, 
1825.00, 
1826.00, 
1827.00, 
1828.00, 
1829.00, 
1830.00, 
1831.00, 
1832.00, 
1833.00, 
1834.00, 
1835.00, 
1836.00, 
1837.00, 
1838.00, 
1839.00, 
1840.00, 
1841.00, 
1842.00, 
1843.00, 
1844.00, 
1845.00, 
1846.00, 
1847.00, 
1848.00, 
1849.00, 
1850.00, 
1851.00, 
1852.00, 
1853.00, 
1854.00, 
1855.00, 
1856.00, 
1857.00, 
1858.00, 
1859.00, 
1860.00, 
1861.00, 
1862.00, 
1863.00, 
1864.00, 
1865.00, 
1866.00, 
1867.00, 
1868.00, 
1869.00, 
1870.00, 
1871.00, 
1872.00, 
1873.00, 
1874.00, 
1875.00, 
1876.00, 
1877.00, 
1878.00, 
1879.00, 
1880.00, 
1881.00, 
1882.00, 
1883.00, 
1884.00, 
1885.00, 
1886.00, 
1887.00, 
1888.00, 
1889.00, 
1890.00, 
1891.00, 
1892.00, 
1893.00, 
1894.00, 
1895.00, 
1896.00, 
1897.00, 
1898.00, 
1899.00, 
1900.00, 
1901.00, 
1902.00, 
1903.00, 
1904.00, 
1905.00, 
1906.00, 
1907.00, 
1908.00, 
1909.00, 
1910.00, 
1911.00, 
1912.00, 
1913.00, 
1914.00, 
1915.00, 
1916.00, 
1917.00, 
1918.00, 
1919.00, 
1920.00, 
1921.00, 
1922.00, 
1923.00, 
1924.00, 
1925.00, 
1926.00, 
1927.00, 
1928.00, 
1929.00, 
1930.00, 
1931.00, 
1932.00, 
1933.00, 
1934.00, 
1935.00, 
1936.00, 
1937.00, 
1938.00, 
1939.00, 
1940.00, 
1941.00, 
1942.00, 
1943.00, 
1944.00, 
1945.00, 
1946.00, 
1947.00, 
1948.00, 
1949.00, 
1950.00, 
1951.00, 
1952.00, 
1953.00, 
1954.00, 
1955.00, 
1956.00, 
1957.00, 
1958.00, 
1959.00, 
1960.00, 
1961.00, 
1962.00, 
1963.00, 
1964.00, 
1965.00, 
1966.00, 
1967.00, 
1968.00, 
1969.00, 
1970.00, 
1971.00, 
1972.00, 
1973.00, 
1974.00, 
1975.00, 
1976.00, 
1977.00, 
1978.00, 
1979.00, 
1980.00, 
1981.00, 
1982.00, 
1983.00, 
1984.00, 
1985.00, 
1986.00, 
1987.00, 
1988.00, 
1989.00, 
1990.00, 
1991.00, 
1992.00, 
1993.00, 
1994.00, 
1995.00, 
1996.00, 
1997.00, 
1998.00, 
1999.00, 
2000.00, 
2001.00, 
2002.00, 
2003.00, 
2004.00, 
2005.00, 
2006.00, 
2007.00, 
2008.00, 
2009.00, 
2010.00, 
2011.00, 
2012.00, 
2013.00, 
2014.00, 
2015.00, 
2016.00, 
2017.00, 
2018.00, 
2019.00, 
2020.00, 
2021.00, 
2022.00, 
2023.00, 
2024.00, 
2025.00, 
2026.00, 
2027.00, 
2028.00, 
2029.00, 
2030.00, 
2031.00, 
2032.00, 
2033.00, 
2034.00, 
2035.00, 
2036.00, 
2037.00, 
2038.00, 
2039.00, 
2040.00, 
2041.00, 
2042.00, 
2043.00, 
2044.00, 
2045.00, 
2046.00, 
2047.00, 
2048.00, 
2049.00, 
2050.00, 
2051.00, 
2052.00, 
2053.00, 
2054.00, 
2055.00, 
2056.00, 
2057.00, 
2058.00, 
2059.00, 
2060.00, 
2061.00, 
2062.00, 
2063.00, 
2064.00, 
2065.00, 
2066.00, 
2067.00, 
2068.00, 
2069.00, 
2070.00, 
2071.00, 
2072.00, 
2073.00, 
2074.00, 
2075.00, 
2076.00, 
2077.00, 
2078.00, 
2079.00, 
2080.00, 
2081.00, 
2082.00, 
2083.00, 
2084.00, 
2085.00, 
2086.00, 
2087.00, 
2088.00, 
2089.00, 
2090.00, 
2091.00, 
2092.00, 
2093.00, 
2094.00, 
2095.00, 
2096.00, 
2097.00, 
2098.00, 
2099.00, 
2100.00, 
2101.00, 
2102.00, 
2103.00, 
2104.00, 
2105.00, 
2106.00, 
2107.00, 
2108.00, 
2109.00, 
2110.00, 
2111.00, 
2112.00, 
2113.00, 
2114.00, 
2115.00, 
2116.00, 
2117.00, 
2118.00, 
2119.00, 
2120.00, 
2121.00, 
2122.00, 
2123.00, 
2124.00, 
2125.00, 
2126.00, 
2127.00, 
2128.00, 
2129.00, 
2130.00, 
2131.00, 
2132.00, 
2133.00, 
2134.00, 
2135.00, 
2136.00, 
2137.00, 
2138.00, 
2139.00, 
2140.00, 
2141.00, 
2142.00, 
2143.00, 
2144.00, 
2145.00, 
2146.00, 
2147.00, 
2148.00, 
2149.00, 
2150.00, 
2151.00, 
2152.00, 
2153.00, 
2154.00, 
2155.00, 
2156.00, 
2157.00, 
2158.00, 
2159.00, 
2160.00, 
2161.00, 
2162.00, 
2163.00, 
2164.00, 
2165.00, 
2166.00, 
2167.00, 
2168.00, 
2169.00, 
2170.00, 
2171.00, 
2172.00, 
2173.00, 
2174.00, 
2175.00, 
2176.00, 
2177.00, 
2178.00, 
2179.00, 
2180.00, 
2181.00, 
2182.00, 
2183.00, 
2184.00, 
2185.00, 
2186.00, 
2187.00, 
2188.00, 
2189.00, 
2190.00, 
2191.00, 
2192.00, 
2193.00, 
2194.00, 
2195.00, 
2196.00, 
2197.00, 
2198.00, 
2199.00, 
2200.00, 
2201.00, 
2202.00, 
2203.00, 
2204.00, 
2205.00, 
2206.00, 
2207.00, 
2208.00, 
2209.00, 
2210.00, 
2211.00, 
2212.00, 
2213.00, 
2214.00, 
2215.00, 
2216.00, 
2217.00, 
2218.00, 
2219.00, 
2220.00, 
2221.00, 
2222.00, 
2223.00, 
2224.00, 
2225.00, 
2226.00, 
2227.00, 
2228.00, 
2229.00, 
2230.00, 
2231.00, 
2232.00, 
2233.00, 
2234.00, 
2235.00, 
2236.00, 
2237.00, 
2238.00, 
2239.00, 
2240.00, 
2241.00, 
2242.00, 
2243.00, 
2244.00, 
2245.00, 
2246.00, 
2247.00, 
2248.00, 
2249.00, 
2250.00, 
2251.00, 
2252.00, 
2253.00, 
2254.00, 
2255.00, 
2256.00, 
2257.00, 
2258.00, 
2259.00, 
2260.00, 
2261.00, 
2262.00, 
2263.00, 
2264.00, 
2265.00, 
2266.00, 
2267.00, 
2268.00, 
2269.00, 
2270.00, 
2271.00, 
2272.00, 
2273.00, 
2274.00, 
2275.00, 
2276.00, 
2277.00, 
2278.00, 
2279.00, 
2280.00, 
2281.00, 
2282.00, 
2283.00, 
2284.00, 
2285.00, 
2286.00, 
2287.00, 
2288.00, 
2289.00, 
2290.00, 
2291.00, 
2292.00, 
2293.00, 
2294.00, 
2295.00, 
2296.00, 
2297.00, 
2298.00, 
2299.00, 
2300.00, 
2301.00, 
2302.00, 
2303.00, 
2304.00, 
2305.00, 
2306.00, 
2307.00, 
2308.00, 
2309.00, 
2310.00, 
2311.00, 
2312.00, 
2313.00, 
2314.00, 
2315.00, 
2316.00, 
2317.00, 
2318.00, 
2319.00, 
2320.00, 
2321.00, 
2322.00, 
2323.00, 
2324.00, 
2325.00, 
2326.00, 
2327.00, 
2328.00, 
2329.00, 
2330.00, 
2331.00, 
2332.00, 
2333.00, 
2334.00, 
2335.00, 
2336.00, 
2337.00, 
2338.00, 
2339.00, 
2340.00, 
2341.00, 
2342.00, 
2343.00, 
2344.00, 
2345.00, 
2346.00, 
2347.00, 
2348.00, 
2349.00, 
2350.00, 
2351.00, 
2352.00, 
2353.00, 
2354.00, 
2355.00, 
2356.00, 
2357.00, 
2358.00, 
2359.00, 
2360.00, 
2361.00, 
2362.00, 
2363.00, 
2364.00, 
2365.00, 
2366.00, 
2367.00, 
2368.00, 
2369.00, 
2370.00, 
2371.00, 
2372.00, 
2373.00, 
2374.00, 
2375.00, 
2376.00, 
2377.00, 
2378.00, 
2379.00, 
2380.00, 
2381.00, 
2382.00, 
2383.00, 
2384.00, 
2385.00, 
2386.00, 
2387.00, 
2388.00, 
2389.00, 
2390.00, 
2391.00, 
2392.00, 
2393.00, 
2394.00, 
2395.00, 
2396.00, 
2397.00, 
2398.00, 
2399.00, 
2400.00, 
2401.00, 
2402.00, 
2403.00, 
2404.00, 
2405.00, 
2406.00, 
2407.00, 
2408.00, 
2409.00, 
2410.00, 
2411.00, 
2412.00, 
2413.00, 
2414.00, 
2415.00, 
2416.00, 
2417.00, 
2418.00, 
2419.00, 
2420.00, 
2421.00, 
2422.00, 
2423.00, 
2424.00, 
2425.00, 
2426.00, 
2427.00, 
2428.00, 
2429.00, 
2430.00, 
2431.00, 
2432.00, 
2433.00, 
2434.00, 
2435.00, 
2436.00, 
2437.00, 
2438.00, 
2439.00, 
2440.00, 
2441.00, 
2442.00, 
2443.00, 
2444.00, 
2445.00, 
2446.00, 
2447.00, 
2448.00, 
2449.00, 
2450.00, 
2451.00, 
2452.00, 
2453.00, 
2454.00, 
2455.00, 
2456.00, 
2457.00, 
2458.00, 
2459.00, 
2460.00, 
2461.00, 
2462.00, 
2463.00, 
2464.00, 
2465.00, 
2466.00, 
2467.00, 
2468.00, 
2469.00, 
2470.00, 
2471.00, 
2472.00, 
2473.00, 
2474.00, 
2475.00, 
2476.00, 
2477.00, 
2478.00, 
2479.00, 
2480.00, 
2481.00, 
2482.00, 
2483.00, 
2484.00, 
2485.00, 
2486.00, 
2487.00, 
2488.00, 
2489.00, 
2490.00, 
2491.00, 
2492.00, 
2493.00, 
2494.00, 
2495.00, 
2496.00, 
2497.00, 
2498.00, 
2499.00, 
2500.00, 
2501.00, 
2502.00, 
2503.00, 
2504.00, 
2505.00, 
2506.00, 
2507.00, 
2508.00, 
2509.00, 
2510.00, 
2511.00, 
2512.00, 
2513.00, 
2514.00, 
2515.00, 
2516.00, 
2517.00, 
2518.00, 
2519.00, 
2520.00, 
2521.00, 
2522.00, 
2523.00, 
2524.00, 
2525.00, 
2526.00, 
2527.00, 
2528.00, 
2529.00, 
2530.00, 
2531.00, 
2532.00, 
2533.00, 
2534.00, 
2535.00, 
2536.00, 
2537.00, 
2538.00, 
2539.00, 
2540.00, 
2541.00, 
2542.00, 
2543.00, 
2544.00, 
2545.00, 
2546.00, 
2547.00, 
2548.00, 
2549.00, 
2550.00, 
2551.00, 
2552.00, 
2553.00, 
2554.00, 
2555.00, 
2556.00, 
2557.00, 
2558.00, 
2559.00, 
2560.00, 
2561.00, 
2562.00, 
2563.00, 
2564.00, 
2565.00, 
2566.00, 
2567.00, 
2568.00, 
2569.00, 
2570.00, 
2571.00, 
2572.00, 
2573.00, 
2574.00, 
2575.00, 
2576.00, 
2577.00, 
2578.00, 
2579.00, 
2580.00, 
2581.00, 
2582.00, 
2583.00, 
2584.00, 
2585.00, 
2586.00, 
2587.00, 
2588.00, 
2589.00, 
2590.00, 
2591.00, 
2592.00, 
2593.00, 
2594.00, 
2595.00, 
2596.00, 
2597.00, 
2598.00, 
2599.00, 
2600.00, 
