"2cP4 - RawData"
"Wavelength nm.","T%"
200.00,0.001
201.00,0.001
202.00,-0.000
203.00,0.001
204.00,0.000
205.00,-0.000
206.00,0.002
207.00,0.001
208.00,0.000
209.00,0.002
210.00,0.001
211.00,-0.000
212.00,0.003
213.00,0.001
214.00,0.002
215.00,0.000
216.00,0.001
217.00,0.005
218.00,-0.000
219.00,0.002
220.00,0.003
221.00,0.002
222.00,0.003
223.00,0.003
224.00,0.001
225.00,-0.001
226.00,0.000
227.00,0.004
228.00,0.004
229.00,0.001
230.00,0.003
231.00,0.001
232.00,0.000
233.00,0.000
234.00,0.000
235.00,0.002
236.00,-0.001
237.00,0.002
238.00,0.002
239.00,0.000
240.00,0.000
241.00,0.002
242.00,0.001
243.00,-0.000
244.00,-0.001
245.00,0.001
246.00,0.002
247.00,0.002
248.00,0.003
249.00,0.002
250.00,-0.001
251.00,0.001
252.00,0.002
253.00,0.002
254.00,-0.001
255.00,0.001
256.00,0.002
257.00,-0.001
258.00,0.001
259.00,-0.000
260.00,0.000
261.00,0.002
262.00,-0.001
263.00,0.002
264.00,0.000
265.00,-0.001
266.00,0.000
267.00,0.000
268.00,0.000
269.00,0.001
270.00,0.001
271.00,0.002
272.00,0.001
273.00,0.000
274.00,-0.001
275.00,0.002
276.00,-0.001
277.00,0.001
278.00,0.000
279.00,0.001
280.00,0.000
281.00,0.001
282.00,0.002
283.00,-0.000
284.00,0.000
285.00,0.002
286.00,0.001
287.00,0.001
288.00,-0.001
289.00,0.001
290.00,0.001
291.00,0.000
292.00,0.001
293.00,0.001
294.00,-0.001
295.00,0.001
296.00,0.002
297.00,0.000
298.00,0.000
299.00,0.002
300.00,0.003
301.00,0.005
302.00,0.006
303.00,0.011
304.00,0.016
305.00,0.023
306.00,0.033
307.00,0.053
308.00,0.083
309.00,0.125
310.00,0.182
311.00,0.241
312.00,0.334
313.00,0.420
314.00,0.579
315.00,0.749
316.00,0.955
317.00,1.219
318.00,1.497
319.00,1.853
320.00,2.260
321.00,2.708
322.00,3.200
323.00,3.766
324.00,4.350
325.00,4.974
326.00,5.611
327.00,6.335
328.00,7.086
329.00,7.817
330.00,8.611
331.00,9.398
332.00,10.235
333.00,11.042
334.00,11.833
335.00,12.717
336.00,13.548
337.00,14.389
338.00,15.268
339.00,15.857
340.00,16.778
341.00,17.562
342.00,18.231
343.00,18.880
344.00,19.581
345.00,20.253
346.00,20.775
347.00,21.407
348.00,21.983
349.00,22.440
350.00,22.977
351.00,23.357
352.00,23.844
353.00,24.282
354.00,24.634
355.00,24.981
356.00,25.368
357.00,25.660
358.00,25.936
359.00,26.281
360.00,26.564
361.00,26.766
362.00,26.938
363.00,27.181
364.00,27.330
365.00,27.527
366.00,27.709
367.00,27.818
368.00,27.931
369.00,28.036
370.00,28.107
371.00,28.211
372.00,28.208
373.00,28.227
374.00,28.220
375.00,28.224
376.00,28.304
377.00,28.240
378.00,28.235
379.00,28.176
380.00,28.194
381.00,28.158
382.00,28.207
383.00,28.277
384.00,28.340
385.00,28.389
386.00,28.437
387.00,28.541
388.00,28.601
389.00,28.635
390.00,28.748
391.00,28.781
392.00,28.874
393.00,28.896
394.00,28.909
395.00,28.981
396.00,28.945
397.00,29.030
398.00,29.056
399.00,29.090
400.00,29.109
401.00,29.137
402.00,29.121
403.00,29.121
404.00,29.143
405.00,29.162
406.00,29.186
407.00,29.159
408.00,29.153
409.00,29.108
410.00,29.057
411.00,29.084
412.00,29.116
413.00,29.131
414.00,29.113
415.00,29.091
416.00,29.161
417.00,29.172
418.00,29.217
419.00,29.235
420.00,29.242
421.00,29.367
422.00,29.403
423.00,29.454
424.00,29.472
425.00,29.509
426.00,29.573
427.00,29.626
428.00,29.658
429.00,29.674
430.00,29.754
431.00,29.830
432.00,29.836
433.00,29.941
434.00,29.993
435.00,30.076
436.00,30.110
437.00,30.221
438.00,30.272
439.00,30.359
440.00,30.437
441.00,30.506
442.00,30.583
443.00,30.653
444.00,30.752
445.00,30.811
446.00,30.904
447.00,31.051
448.00,31.070
449.00,31.221
450.00,31.283
451.00,31.386
452.00,31.523
453.00,31.594
454.00,31.761
455.00,31.886
456.00,31.915
457.00,31.998
458.00,32.181
459.00,32.258
460.00,32.387
461.00,32.550
462.00,32.603
463.00,32.722
464.00,32.929
465.00,32.995
466.00,33.130
467.00,33.213
468.00,33.333
469.00,33.488
470.00,33.544
471.00,33.621
472.00,33.762
473.00,33.833
474.00,33.930
475.00,34.040
476.00,34.137
477.00,34.253
478.00,34.422
479.00,34.486
480.00,34.655
481.00,34.775
482.00,34.921
483.00,34.988
484.00,35.149
485.00,35.325
486.00,35.381
487.00,35.497
488.00,35.659
489.00,35.856
490.00,35.931
491.00,36.049
492.00,36.236
493.00,36.312
494.00,36.281
495.00,36.477
496.00,36.598
497.00,36.658
498.00,36.813
499.00,36.948
500.00,36.961
501.00,37.117
502.00,37.244
503.00,37.382
504.00,37.455
505.00,37.585
506.00,37.678
507.00,37.808
508.00,37.885
509.00,38.024
510.00,38.047
511.00,38.143
512.00,38.279
513.00,38.415
514.00,38.512
515.00,38.655
516.00,38.697
517.00,38.791
518.00,38.949
519.00,39.030
520.00,39.042
521.00,39.089
522.00,39.207
523.00,39.259
524.00,39.309
525.00,39.400
526.00,39.517
527.00,39.537
528.00,39.633
529.00,39.686
530.00,39.694
531.00,39.905
532.00,39.998
533.00,40.005
534.00,40.119
535.00,40.195
536.00,40.239
537.00,40.302
538.00,40.357
539.00,40.503
540.00,40.517
541.00,40.575
542.00,40.594
543.00,40.670
544.00,40.757
545.00,40.769
546.00,40.756
547.00,40.880
548.00,40.914
549.00,40.985
550.00,41.057
551.00,41.102
552.00,41.130
553.00,41.255
554.00,41.344
555.00,41.361
556.00,41.434
557.00,41.459
558.00,41.505
559.00,41.542
560.00,41.651
561.00,41.663
562.00,41.768
563.00,41.766
564.00,41.831
565.00,41.842
566.00,41.835
567.00,41.863
568.00,41.897
569.00,41.935
570.00,41.896
571.00,41.923
572.00,42.010
573.00,42.012
574.00,42.100
575.00,42.121
576.00,42.151
577.00,42.203
578.00,42.256
579.00,42.299
580.00,42.333
581.00,42.414
582.00,42.545
583.00,42.551
584.00,42.625
585.00,42.649
586.00,42.666
587.00,42.775
588.00,42.805
589.00,42.850
590.00,42.914
591.00,42.942
592.00,42.879
593.00,42.933
594.00,42.971
595.00,43.004
596.00,43.096
597.00,43.168
598.00,43.215
599.00,43.141
600.00,43.243
601.00,43.263
602.00,43.359
603.00,43.407
604.00,43.403
605.00,43.524
606.00,43.565
607.00,43.484
608.00,43.488
609.00,43.571
610.00,43.549
611.00,43.532
612.00,43.706
613.00,43.785
614.00,43.692
615.00,43.653
616.00,43.747
617.00,43.792
618.00,43.907
619.00,43.894
620.00,43.884
621.00,43.875
622.00,44.121
623.00,44.186
624.00,44.160
625.00,44.214
626.00,44.295
627.00,44.351
628.00,44.356
629.00,44.454
630.00,44.497
631.00,44.498
632.00,44.590
633.00,44.619
634.00,44.635
635.00,44.734
636.00,44.857
637.00,44.950
638.00,45.030
639.00,45.013
640.00,45.042
641.00,45.053
642.00,45.145
643.00,45.244
644.00,45.156
645.00,45.238
646.00,45.349
647.00,45.438
648.00,45.485
649.00,45.665
650.00,45.458
651.00,45.547
652.00,45.745
653.00,45.802
654.00,45.760
655.00,45.816
656.00,45.941
657.00,46.073
658.00,46.094
659.00,46.109
660.00,46.313
661.00,46.237
662.00,46.441
663.00,46.453
664.00,46.556
665.00,46.598
666.00,46.715
667.00,46.607
668.00,46.423
669.00,46.927
670.00,46.881
671.00,47.269
672.00,47.794
673.00,47.166
674.00,47.064
675.00,47.165
676.00,47.321
677.00,47.367
678.00,47.417
679.00,47.619
680.00,47.549
681.00,47.541
682.00,47.674
683.00,47.680
684.00,47.806
685.00,47.915
686.00,47.964
687.00,47.970
688.00,47.925
689.00,47.828
690.00,48.170
691.00,47.966
692.00,48.041
693.00,48.361
694.00,48.422
695.00,48.360
696.00,48.394
697.00,48.536
698.00,48.604
699.00,48.656
700.00,48.781
701.00,48.811
702.00,48.798
703.00,48.838
704.00,48.970
705.00,48.991
706.00,49.152
707.00,49.026
708.00,49.120
709.00,49.299
710.00,49.248
711.00,49.072
712.00,49.231
713.00,49.229
714.00,49.248
715.00,49.479
716.00,49.421
717.00,49.411
718.00,49.329
719.00,49.505
720.00,49.609
721.00,54.104
722.00,54.079
723.00,54.050
724.00,54.097
725.00,54.058
726.00,54.032
727.00,53.958
728.00,54.070
729.00,53.965
730.00,54.138
731.00,54.040
732.00,54.073
733.00,54.054
734.00,54.091
735.00,54.082
736.00,54.118
737.00,54.106
738.00,54.102
739.00,54.135
740.00,54.128
741.00,54.157
742.00,54.140
743.00,54.061
744.00,54.118
745.00,54.094
746.00,54.118
747.00,54.071
748.00,54.100
749.00,54.130
750.00,53.993
751.00,54.013
752.00,54.045
753.00,53.949
754.00,54.003
755.00,53.926
756.00,53.928
757.00,53.932
758.00,53.906
759.00,53.981
760.00,54.000
761.00,53.920
762.00,53.903
763.00,53.934
764.00,53.904
765.00,53.892
766.00,53.935
767.00,53.901
768.00,53.792
769.00,53.865
770.00,53.936
771.00,53.811
772.00,53.863
773.00,53.916
774.00,53.894
775.00,53.926
776.00,53.902
777.00,53.876
778.00,53.792
779.00,53.870
780.00,53.827
781.00,53.813
782.00,53.783
783.00,53.792
784.00,53.796
785.00,53.781
786.00,53.706
787.00,53.706
788.00,53.738
789.00,53.724
790.00,53.688
791.00,53.706
792.00,53.590
793.00,53.638
794.00,53.517
795.00,53.556
796.00,53.505
797.00,53.531
798.00,53.466
799.00,53.460
800.00,53.498
801.00,53.440
802.00,53.458
803.00,53.357
804.00,53.327
805.00,53.357
806.00,53.376
807.00,53.360
808.00,53.260
809.00,53.229
810.00,53.252
811.00,53.210
812.00,53.307
813.00,53.156
814.00,53.204
815.00,53.189
816.00,53.164
817.00,53.168
818.00,53.170
819.00,53.182
820.00,53.016
821.00,53.143
822.00,52.958
823.00,52.953
824.00,53.056
825.00,52.897
826.00,52.740
827.00,52.909
828.00,52.960
829.00,52.956
830.00,52.888
831.00,55.045
832.00,55.008
833.00,54.994
834.00,54.968
835.00,54.899
836.00,54.958
837.00,54.896
838.00,54.869
839.00,54.857
840.00,54.829
841.00,54.859
842.00,54.795
843.00,54.761
844.00,54.787
845.00,54.709
846.00,54.720
847.00,54.681
848.00,54.667
849.00,54.619
850.00,54.586
851.00,54.521
852.00,54.509
853.00,54.493
854.00,54.479
855.00,54.349
856.00,54.411
857.00,54.354
858.00,54.382
859.00,54.323
860.00,54.329
861.00,54.301
862.00,54.268
863.00,54.232
864.00,54.239
865.00,54.217
866.00,54.183
867.00,54.210
868.00,54.169
869.00,54.179
870.00,54.099
871.00,54.136
872.00,54.136
873.00,54.122
874.00,54.132
875.00,54.046
876.00,54.084
877.00,54.058
878.00,54.063
879.00,54.038
880.00,54.012
881.00,54.002
882.00,54.007
883.00,53.959
884.00,53.946
885.00,53.900
886.00,53.893
887.00,53.878
888.00,53.848
889.00,53.843
890.00,53.796
891.00,53.848
892.00,53.796
893.00,53.749
894.00,53.728
895.00,53.716
896.00,53.678
897.00,53.655
898.00,53.648
899.00,53.664
900.00,53.617
901.00,53.586
902.00,53.585
903.00,53.599
904.00,53.551
905.00,53.551
906.00,53.553
907.00,53.533
908.00,53.480
909.00,53.479
910.00,53.461
911.00,53.448
912.00,53.405
913.00,53.387
914.00,53.371
915.00,53.357
916.00,53.318
917.00,53.277
918.00,53.286
919.00,53.240
920.00,53.212
921.00,53.216
922.00,53.210
923.00,53.168
924.00,53.138
925.00,53.162
926.00,53.160
927.00,53.113
928.00,53.076
929.00,53.093
930.00,53.001
931.00,53.030
932.00,52.997
933.00,52.988
934.00,52.973
935.00,52.939
936.00,52.915
937.00,52.907
938.00,52.876
939.00,52.885
940.00,52.850
941.00,52.849
942.00,52.764
943.00,52.820
944.00,52.781
945.00,52.733
946.00,52.706
947.00,52.683
948.00,52.707
949.00,52.658
950.00,52.656
951.00,52.656
952.00,52.606
953.00,52.561
954.00,52.557
955.00,52.510
956.00,52.484
957.00,52.453
958.00,52.475
959.00,52.488
960.00,52.423
961.00,52.402
962.00,52.408
963.00,52.348
964.00,52.357
965.00,52.356
966.00,52.322
967.00,52.305
968.00,52.299
969.00,52.321
970.00,52.289
971.00,52.312
972.00,52.273
973.00,52.303
974.00,52.312
975.00,52.289
976.00,52.307
977.00,52.350
978.00,52.333
979.00,52.283
980.00,52.312
981.00,52.306
982.00,52.289
983.00,52.278
984.00,52.276
985.00,52.281
986.00,52.246
987.00,52.263
988.00,52.240
989.00,52.249
990.00,52.205
991.00,52.175
992.00,52.223
993.00,52.152
994.00,52.151
995.00,52.136
996.00,52.118
997.00,52.103
998.00,52.085
999.00,52.106
1000.00,52.062
1001.00,52.070
1002.00,52.059
1003.00,52.063
1004.00,52.024
1005.00,52.002
1006.00,52.029
1007.00,52.007
1008.00,51.973
1009.00,51.958
1010.00,51.944
1011.00,51.928
1012.00,51.895
1013.00,51.911
1014.00,51.883
1015.00,51.898
1016.00,51.871
1017.00,51.874
1018.00,51.843
1019.00,51.821
1020.00,51.823
1021.00,51.786
1022.00,51.785
1023.00,51.752
1024.00,51.758
1025.00,51.744
1026.00,51.738
1027.00,51.699
1028.00,51.695
1029.00,51.680
1030.00,51.636
1031.00,51.656
1032.00,51.599
1033.00,51.610
1034.00,51.579
1035.00,51.551
1036.00,51.523
1037.00,51.498
1038.00,51.474
1039.00,51.452
1040.00,51.454
1041.00,51.414
1042.00,51.421
1043.00,51.382
1044.00,51.423
1045.00,51.412
1046.00,51.425
1047.00,51.427
1048.00,51.426
1049.00,51.428
1050.00,51.446
1051.00,51.466
1052.00,51.459
1053.00,51.483
1054.00,51.476
1055.00,51.494
1056.00,51.506
1057.00,51.502
1058.00,51.499
1059.00,51.485
1060.00,51.492
1061.00,51.489
1062.00,51.455
1063.00,51.466
1064.00,51.470
1065.00,51.465
1066.00,51.446
1067.00,51.440
1068.00,51.465
1069.00,51.416
1070.00,51.396
1071.00,51.374
1072.00,51.391
1073.00,51.357
1074.00,51.354
1075.00,51.351
1076.00,51.342
1077.00,51.331
1078.00,51.311
1079.00,51.309
1080.00,51.313
1081.00,51.287
1082.00,51.294
1083.00,51.294
1084.00,51.273
1085.00,51.256
1086.00,51.263
1087.00,51.245
1088.00,51.229
1089.00,51.208
1090.00,51.213
1091.00,51.229
1092.00,51.204
1093.00,51.195
1094.00,51.176
1095.00,51.158
1096.00,51.152
1097.00,51.143
1098.00,51.134
1099.00,51.148
1100.00,51.124
1101.00,51.116
1102.00,51.114
1103.00,51.105
1104.00,51.096
1105.00,51.081
1106.00,51.071
1107.00,51.060
1108.00,51.063
1109.00,51.037
1110.00,51.031
1111.00,51.031
1112.00,51.032
1113.00,51.022
1114.00,51.007
1115.00,50.999
1116.00,51.003
1117.00,50.971
1118.00,50.958
1119.00,50.968
1120.00,50.957
1121.00,50.949
1122.00,50.950
1123.00,50.941
1124.00,50.943
1125.00,50.913
1126.00,50.923
1127.00,50.932
1128.00,50.915
1129.00,50.895
1130.00,50.882
1131.00,50.883
1132.00,50.875
1133.00,50.859
1134.00,50.865
1135.00,50.835
1136.00,50.841
1137.00,50.837
1138.00,50.841
1139.00,50.835
1140.00,50.827
1141.00,50.824
1142.00,50.810
1143.00,50.820
1144.00,50.790
1145.00,50.804
1146.00,50.800
1147.00,50.782
1148.00,50.767
1149.00,50.796
1150.00,50.792
1151.00,50.773
1152.00,50.766
1153.00,50.762
1154.00,50.740
1155.00,50.744
1156.00,50.744
1157.00,50.759
1158.00,50.737
1159.00,50.760
1160.00,50.765
1161.00,50.749
1162.00,50.730
1163.00,50.751
1164.00,50.747
1165.00,50.729
1166.00,50.727
1167.00,50.722
1168.00,50.741
1169.00,50.717
1170.00,50.712
1171.00,50.707
1172.00,50.704
1173.00,50.692
1174.00,50.722
1175.00,50.716
1176.00,50.708
1177.00,50.699
1178.00,50.705
1179.00,50.719
1180.00,50.685
1181.00,50.697
1182.00,50.710
1183.00,50.684
1184.00,50.674
1185.00,50.686
1186.00,50.668
1187.00,50.724
1188.00,50.693
1189.00,50.701
1190.00,50.702
1191.00,50.668
1192.00,50.689
1193.00,50.697
1194.00,50.688
1195.00,50.644
1196.00,50.676
1197.00,50.676
1198.00,50.660
1199.00,50.665
1200.00,50.671
1201.00,50.682
1202.00,50.664
1203.00,50.674
1204.00,50.666
1205.00,50.672
1206.00,50.651
1207.00,50.669
1208.00,50.645
1209.00,50.642
1210.00,50.641
1211.00,50.636
1212.00,50.662
1213.00,50.626
1214.00,50.655
1215.00,50.650
1216.00,50.643
1217.00,50.638
1218.00,50.629
1219.00,50.628
1220.00,50.632
1221.00,50.645
1222.00,50.619
1223.00,50.663
1224.00,50.639
1225.00,50.626
1226.00,50.643
1227.00,50.629
1228.00,50.630
1229.00,50.632
1230.00,50.668
1231.00,50.662
1232.00,50.677
1233.00,50.681
1234.00,50.701
1235.00,50.683
1236.00,50.700
1237.00,50.689
1238.00,50.680
1239.00,50.675
1240.00,50.677
1241.00,50.684
1242.00,50.657
1243.00,50.686
1244.00,50.675
1245.00,50.716
1246.00,50.716
1247.00,50.701
1248.00,50.699
1249.00,50.703
1250.00,50.713
1251.00,50.717
1252.00,50.717
1253.00,50.709
1254.00,50.747
1255.00,50.748
1256.00,50.723
1257.00,50.693
1258.00,50.743
1259.00,50.750
1260.00,50.755
1261.00,50.750
1262.00,50.762
1263.00,50.740
1264.00,50.762
1265.00,50.771
1266.00,50.783
1267.00,50.802
1268.00,50.774
1269.00,50.776
1270.00,50.799
1271.00,50.781
1272.00,50.783
1273.00,50.800
1274.00,50.804
1275.00,50.797
1276.00,50.809
1277.00,50.808
1278.00,50.816
1279.00,50.809
1280.00,50.789
1281.00,50.819
1282.00,50.827
1283.00,50.783
1284.00,50.804
1285.00,50.792
1286.00,50.809
1287.00,50.796
1288.00,50.825
1289.00,50.815
1290.00,50.842
1291.00,50.831
1292.00,50.842
1293.00,50.824
1294.00,50.825
1295.00,50.865
1296.00,50.858
1297.00,50.853
1298.00,50.874
1299.00,50.851
1300.00,50.875
1301.00,50.855
1302.00,50.883
1303.00,50.894
1304.00,50.874
1305.00,50.893
1306.00,50.910
1307.00,50.908
1308.00,50.900
1309.00,50.925
1310.00,50.926
1311.00,50.931
1312.00,50.934
1313.00,50.953
1314.00,50.988
1315.00,50.985
1316.00,51.000
1317.00,51.029
1318.00,51.015
1319.00,51.008
1320.00,51.027
1321.00,51.152
1322.00,51.143
1323.00,51.124
1324.00,51.136
1325.00,51.118
1326.00,51.131
1327.00,51.101
1328.00,51.124
1329.00,51.118
1330.00,51.116
1331.00,51.124
1332.00,51.119
1333.00,51.125
1334.00,51.148
1335.00,51.176
1336.00,51.215
1337.00,51.222
1338.00,51.296
1339.00,51.348
1340.00,51.405
1341.00,51.462
1342.00,51.525
1343.00,51.576
1344.00,51.628
1345.00,51.648
1346.00,51.696
1347.00,51.725
1348.00,51.750
1349.00,51.766
1350.00,51.796
1351.00,51.800
1352.00,51.810
1353.00,51.780
1354.00,51.802
1355.00,51.797
1356.00,51.862
1357.00,51.819
1358.00,51.874
1359.00,51.861
1360.00,51.921
1361.00,51.848
1362.00,51.854
1363.00,51.885
1364.00,51.839
1365.00,51.849
1366.00,51.852
1367.00,51.858
1368.00,51.867
1369.00,51.833
1370.00,51.851
1371.00,51.841
1372.00,51.828
1373.00,51.826
1374.00,51.833
1375.00,51.826
1376.00,51.837
1377.00,51.808
1378.00,51.745
1379.00,51.815
1380.00,51.865
1381.00,51.892
1382.00,51.962
1383.00,51.798
1384.00,51.784
1385.00,51.775
1386.00,51.850
1387.00,51.828
1388.00,51.784
1389.00,51.779
1390.00,51.739
1391.00,51.816
1392.00,51.810
1393.00,51.816
1394.00,51.881
1395.00,51.808
1396.00,51.810
1397.00,51.816
1398.00,51.738
1399.00,51.834
1400.00,51.765
1401.00,51.849
1402.00,51.629
1403.00,51.821
1404.00,51.829
1405.00,51.847
1406.00,51.862
1407.00,51.835
1408.00,51.872
1409.00,51.865
1410.00,51.888
1411.00,51.871
1412.00,51.975
1413.00,51.864
1414.00,51.882
1415.00,51.899
1416.00,51.956
1417.00,52.001
1418.00,51.943
1419.00,51.914
1420.00,51.984
1421.00,52.010
1422.00,52.011
1423.00,52.008
1424.00,52.028
1425.00,52.010
1426.00,52.014
1427.00,52.069
1428.00,52.061
1429.00,52.047
1430.00,52.091
1431.00,52.093
1432.00,52.106
1433.00,52.126
1434.00,52.132
1435.00,52.195
1436.00,52.174
1437.00,52.176
1438.00,52.205
1439.00,52.235
1440.00,52.234
1441.00,52.240
1442.00,52.251
1443.00,52.274
1444.00,52.288
1445.00,52.300
1446.00,52.311
1447.00,52.319
1448.00,52.366
1449.00,52.379
1450.00,52.375
1451.00,52.380
1452.00,52.385
1453.00,52.390
1454.00,52.423
1455.00,52.447
1456.00,52.469
1457.00,52.479
1458.00,52.479
1459.00,52.492
1460.00,52.531
1461.00,52.541
1462.00,52.566
1463.00,52.562
1464.00,52.582
1465.00,52.607
1466.00,52.583
1467.00,52.585
1468.00,52.692
1469.00,52.637
1470.00,52.642
1471.00,52.683
1472.00,52.679
1473.00,52.678
1474.00,52.718
1475.00,52.719
1476.00,52.746
1477.00,52.705
1478.00,52.739
1479.00,52.786
1480.00,52.773
1481.00,52.774
1482.00,52.788
1483.00,52.823
1484.00,52.805
1485.00,52.817
1486.00,52.828
1487.00,52.865
1488.00,52.872
1489.00,52.869
1490.00,52.903
1491.00,52.898
1492.00,52.916
1493.00,52.933
1494.00,52.946
1495.00,52.941
1496.00,52.952
1497.00,52.982
1498.00,52.985
1499.00,52.981
1500.00,53.015
1501.00, 
1502.00, 
1503.00, 
1504.00, 
1505.00, 
1506.00, 
1507.00, 
1508.00, 
1509.00, 
1510.00, 
1511.00, 
1512.00, 
1513.00, 
1514.00, 
1515.00, 
1516.00, 
1517.00, 
1518.00, 
1519.00, 
1520.00, 
1521.00, 
1522.00, 
1523.00, 
1524.00, 
1525.00, 
1526.00, 
1527.00, 
1528.00, 
1529.00, 
1530.00, 
1531.00, 
1532.00, 
1533.00, 
1534.00, 
1535.00, 
1536.00, 
1537.00, 
1538.00, 
1539.00, 
1540.00, 
1541.00, 
1542.00, 
1543.00, 
1544.00, 
1545.00, 
1546.00, 
1547.00, 
1548.00, 
1549.00, 
1550.00, 
1551.00, 
1552.00, 
1553.00, 
1554.00, 
1555.00, 
1556.00, 
1557.00, 
1558.00, 
1559.00, 
1560.00, 
1561.00, 
1562.00, 
1563.00, 
1564.00, 
1565.00, 
1566.00, 
1567.00, 
1568.00, 
1569.00, 
1570.00, 
1571.00, 
1572.00, 
1573.00, 
1574.00, 
1575.00, 
1576.00, 
1577.00, 
1578.00, 
1579.00, 
1580.00, 
1581.00, 
1582.00, 
1583.00, 
1584.00, 
1585.00, 
1586.00, 
1587.00, 
1588.00, 
1589.00, 
1590.00, 
1591.00, 
1592.00, 
1593.00, 
1594.00, 
1595.00, 
1596.00, 
1597.00, 
1598.00, 
1599.00, 
1600.00, 
1601.00, 
1602.00, 
1603.00, 
1604.00, 
1605.00, 
1606.00, 
1607.00, 
1608.00, 
1609.00, 
1610.00, 
1611.00, 
1612.00, 
1613.00, 
1614.00, 
1615.00, 
1616.00, 
1617.00, 
1618.00, 
1619.00, 
1620.00, 
1621.00, 
1622.00, 
1623.00, 
1624.00, 
1625.00, 
1626.00, 
1627.00, 
1628.00, 
1629.00, 
1630.00, 
1631.00, 
1632.00, 
1633.00, 
1634.00, 
1635.00, 
1636.00, 
1637.00, 
1638.00, 
1639.00, 
1640.00, 
1641.00, 
1642.00, 
1643.00, 
1644.00, 
1645.00, 
1646.00, 
1647.00, 
1648.00, 
1649.00, 
1650.00, 
1651.00, 
1652.00, 
1653.00, 
1654.00, 
1655.00, 
1656.00, 
1657.00, 
1658.00, 
1659.00, 
1660.00, 
1661.00, 
1662.00, 
1663.00, 
1664.00, 
1665.00, 
1666.00, 
1667.00, 
1668.00, 
1669.00, 
1670.00, 
1671.00, 
1672.00, 
1673.00, 
1674.00, 
1675.00, 
1676.00, 
1677.00, 
1678.00, 
1679.00, 
1680.00, 
1681.00, 
1682.00, 
1683.00, 
1684.00, 
1685.00, 
1686.00, 
1687.00, 
1688.00, 
1689.00, 
1690.00, 
1691.00, 
1692.00, 
1693.00, 
1694.00, 
1695.00, 
1696.00, 
1697.00, 
1698.00, 
1699.00, 
1700.00, 
1701.00, 
1702.00, 
1703.00, 
1704.00, 
1705.00, 
1706.00, 
1707.00, 
1708.00, 
1709.00, 
1710.00, 
1711.00, 
1712.00, 
1713.00, 
1714.00, 
1715.00, 
1716.00, 
1717.00, 
1718.00, 
1719.00, 
1720.00, 
1721.00, 
1722.00, 
1723.00, 
1724.00, 
1725.00, 
1726.00, 
1727.00, 
1728.00, 
1729.00, 
1730.00, 
1731.00, 
1732.00, 
1733.00, 
1734.00, 
1735.00, 
1736.00, 
1737.00, 
1738.00, 
1739.00, 
1740.00, 
1741.00, 
1742.00, 
1743.00, 
1744.00, 
1745.00, 
1746.00, 
1747.00, 
1748.00, 
1749.00, 
1750.00, 
1751.00, 
1752.00, 
1753.00, 
1754.00, 
1755.00, 
1756.00, 
1757.00, 
1758.00, 
1759.00, 
1760.00, 
1761.00, 
1762.00, 
1763.00, 
1764.00, 
1765.00, 
1766.00, 
1767.00, 
1768.00, 
1769.00, 
1770.00, 
1771.00, 
1772.00, 
1773.00, 
1774.00, 
1775.00, 
1776.00, 
1777.00, 
1778.00, 
1779.00, 
1780.00, 
1781.00, 
1782.00, 
1783.00, 
1784.00, 
1785.00, 
1786.00, 
1787.00, 
1788.00, 
1789.00, 
1790.00, 
1791.00, 
1792.00, 
1793.00, 
1794.00, 
1795.00, 
1796.00, 
1797.00, 
1798.00, 
1799.00, 
1800.00, 
1801.00, 
1802.00, 
1803.00, 
1804.00, 
1805.00, 
1806.00, 
1807.00, 
1808.00, 
1809.00, 
1810.00, 
1811.00, 
1812.00, 
1813.00, 
1814.00, 
1815.00, 
1816.00, 
1817.00, 
1818.00, 
1819.00, 
1820.00, 
1821.00, 
1822.00, 
1823.00, 
1824.00, 
1825.00, 
1826.00, 
1827.00, 
1828.00, 
1829.00, 
1830.00, 
1831.00, 
1832.00, 
1833.00, 
1834.00, 
1835.00, 
1836.00, 
1837.00, 
1838.00, 
1839.00, 
1840.00, 
1841.00, 
1842.00, 
1843.00, 
1844.00, 
1845.00, 
1846.00, 
1847.00, 
1848.00, 
1849.00, 
1850.00, 
1851.00, 
1852.00, 
1853.00, 
1854.00, 
1855.00, 
1856.00, 
1857.00, 
1858.00, 
1859.00, 
1860.00, 
1861.00, 
1862.00, 
1863.00, 
1864.00, 
1865.00, 
1866.00, 
1867.00, 
1868.00, 
1869.00, 
1870.00, 
1871.00, 
1872.00, 
1873.00, 
1874.00, 
1875.00, 
1876.00, 
1877.00, 
1878.00, 
1879.00, 
1880.00, 
1881.00, 
1882.00, 
1883.00, 
1884.00, 
1885.00, 
1886.00, 
1887.00, 
1888.00, 
1889.00, 
1890.00, 
1891.00, 
1892.00, 
1893.00, 
1894.00, 
1895.00, 
1896.00, 
1897.00, 
1898.00, 
1899.00, 
1900.00, 
1901.00, 
1902.00, 
1903.00, 
1904.00, 
1905.00, 
1906.00, 
1907.00, 
1908.00, 
1909.00, 
1910.00, 
1911.00, 
1912.00, 
1913.00, 
1914.00, 
1915.00, 
1916.00, 
1917.00, 
1918.00, 
1919.00, 
1920.00, 
1921.00, 
1922.00, 
1923.00, 
1924.00, 
1925.00, 
1926.00, 
1927.00, 
1928.00, 
1929.00, 
1930.00, 
1931.00, 
1932.00, 
1933.00, 
1934.00, 
1935.00, 
1936.00, 
1937.00, 
1938.00, 
1939.00, 
1940.00, 
1941.00, 
1942.00, 
1943.00, 
1944.00, 
1945.00, 
1946.00, 
1947.00, 
1948.00, 
1949.00, 
1950.00, 
1951.00, 
1952.00, 
1953.00, 
1954.00, 
1955.00, 
1956.00, 
1957.00, 
1958.00, 
1959.00, 
1960.00, 
1961.00, 
1962.00, 
1963.00, 
1964.00, 
1965.00, 
1966.00, 
1967.00, 
1968.00, 
1969.00, 
1970.00, 
1971.00, 
1972.00, 
1973.00, 
1974.00, 
1975.00, 
1976.00, 
1977.00, 
1978.00, 
1979.00, 
1980.00, 
1981.00, 
1982.00, 
1983.00, 
1984.00, 
1985.00, 
1986.00, 
1987.00, 
1988.00, 
1989.00, 
1990.00, 
1991.00, 
1992.00, 
1993.00, 
1994.00, 
1995.00, 
1996.00, 
1997.00, 
1998.00, 
1999.00, 
2000.00, 
2001.00, 
2002.00, 
2003.00, 
2004.00, 
2005.00, 
2006.00, 
2007.00, 
2008.00, 
2009.00, 
2010.00, 
2011.00, 
2012.00, 
2013.00, 
2014.00, 
2015.00, 
2016.00, 
2017.00, 
2018.00, 
2019.00, 
2020.00, 
2021.00, 
2022.00, 
2023.00, 
2024.00, 
2025.00, 
2026.00, 
2027.00, 
2028.00, 
2029.00, 
2030.00, 
2031.00, 
2032.00, 
2033.00, 
2034.00, 
2035.00, 
2036.00, 
2037.00, 
2038.00, 
2039.00, 
2040.00, 
2041.00, 
2042.00, 
2043.00, 
2044.00, 
2045.00, 
2046.00, 
2047.00, 
2048.00, 
2049.00, 
2050.00, 
2051.00, 
2052.00, 
2053.00, 
2054.00, 
2055.00, 
2056.00, 
2057.00, 
2058.00, 
2059.00, 
2060.00, 
2061.00, 
2062.00, 
2063.00, 
2064.00, 
2065.00, 
2066.00, 
2067.00, 
2068.00, 
2069.00, 
2070.00, 
2071.00, 
2072.00, 
2073.00, 
2074.00, 
2075.00, 
2076.00, 
2077.00, 
2078.00, 
2079.00, 
2080.00, 
2081.00, 
2082.00, 
2083.00, 
2084.00, 
2085.00, 
2086.00, 
2087.00, 
2088.00, 
2089.00, 
2090.00, 
2091.00, 
2092.00, 
2093.00, 
2094.00, 
2095.00, 
2096.00, 
2097.00, 
2098.00, 
2099.00, 
2100.00, 
2101.00, 
2102.00, 
2103.00, 
2104.00, 
2105.00, 
2106.00, 
2107.00, 
2108.00, 
2109.00, 
2110.00, 
2111.00, 
2112.00, 
2113.00, 
2114.00, 
2115.00, 
2116.00, 
2117.00, 
2118.00, 
2119.00, 
2120.00, 
2121.00, 
2122.00, 
2123.00, 
2124.00, 
2125.00, 
2126.00, 
2127.00, 
2128.00, 
2129.00, 
2130.00, 
2131.00, 
2132.00, 
2133.00, 
2134.00, 
2135.00, 
2136.00, 
2137.00, 
2138.00, 
2139.00, 
2140.00, 
2141.00, 
2142.00, 
2143.00, 
2144.00, 
2145.00, 
2146.00, 
2147.00, 
2148.00, 
2149.00, 
2150.00, 
2151.00, 
2152.00, 
2153.00, 
2154.00, 
2155.00, 
2156.00, 
2157.00, 
2158.00, 
2159.00, 
2160.00, 
2161.00, 
2162.00, 
2163.00, 
2164.00, 
2165.00, 
2166.00, 
2167.00, 
2168.00, 
2169.00, 
2170.00, 
2171.00, 
2172.00, 
2173.00, 
2174.00, 
2175.00, 
2176.00, 
2177.00, 
2178.00, 
2179.00, 
2180.00, 
2181.00, 
2182.00, 
2183.00, 
2184.00, 
2185.00, 
2186.00, 
2187.00, 
2188.00, 
2189.00, 
2190.00, 
2191.00, 
2192.00, 
2193.00, 
2194.00, 
2195.00, 
2196.00, 
2197.00, 
2198.00, 
2199.00, 
2200.00, 
2201.00, 
2202.00, 
2203.00, 
2204.00, 
2205.00, 
2206.00, 
2207.00, 
2208.00, 
2209.00, 
2210.00, 
2211.00, 
2212.00, 
2213.00, 
2214.00, 
2215.00, 
2216.00, 
2217.00, 
2218.00, 
2219.00, 
2220.00, 
2221.00, 
2222.00, 
2223.00, 
2224.00, 
2225.00, 
2226.00, 
2227.00, 
2228.00, 
2229.00, 
2230.00, 
2231.00, 
2232.00, 
2233.00, 
2234.00, 
2235.00, 
2236.00, 
2237.00, 
2238.00, 
2239.00, 
2240.00, 
2241.00, 
2242.00, 
2243.00, 
2244.00, 
2245.00, 
2246.00, 
2247.00, 
2248.00, 
2249.00, 
2250.00, 
2251.00, 
2252.00, 
2253.00, 
2254.00, 
2255.00, 
2256.00, 
2257.00, 
2258.00, 
2259.00, 
2260.00, 
2261.00, 
2262.00, 
2263.00, 
2264.00, 
2265.00, 
2266.00, 
2267.00, 
2268.00, 
2269.00, 
2270.00, 
2271.00, 
2272.00, 
2273.00, 
2274.00, 
2275.00, 
2276.00, 
2277.00, 
2278.00, 
2279.00, 
2280.00, 
2281.00, 
2282.00, 
2283.00, 
2284.00, 
2285.00, 
2286.00, 
2287.00, 
2288.00, 
2289.00, 
2290.00, 
2291.00, 
2292.00, 
2293.00, 
2294.00, 
2295.00, 
2296.00, 
2297.00, 
2298.00, 
2299.00, 
2300.00, 
2301.00, 
2302.00, 
2303.00, 
2304.00, 
2305.00, 
2306.00, 
2307.00, 
2308.00, 
2309.00, 
2310.00, 
2311.00, 
2312.00, 
2313.00, 
2314.00, 
2315.00, 
2316.00, 
2317.00, 
2318.00, 
2319.00, 
2320.00, 
2321.00, 
2322.00, 
2323.00, 
2324.00, 
2325.00, 
2326.00, 
2327.00, 
2328.00, 
2329.00, 
2330.00, 
2331.00, 
2332.00, 
2333.00, 
2334.00, 
2335.00, 
2336.00, 
2337.00, 
2338.00, 
2339.00, 
2340.00, 
2341.00, 
2342.00, 
2343.00, 
2344.00, 
2345.00, 
2346.00, 
2347.00, 
2348.00, 
2349.00, 
2350.00, 
2351.00, 
2352.00, 
2353.00, 
2354.00, 
2355.00, 
2356.00, 
2357.00, 
2358.00, 
2359.00, 
2360.00, 
2361.00, 
2362.00, 
2363.00, 
2364.00, 
2365.00, 
2366.00, 
2367.00, 
2368.00, 
2369.00, 
2370.00, 
2371.00, 
2372.00, 
2373.00, 
2374.00, 
2375.00, 
2376.00, 
2377.00, 
2378.00, 
2379.00, 
2380.00, 
2381.00, 
2382.00, 
2383.00, 
2384.00, 
2385.00, 
2386.00, 
2387.00, 
2388.00, 
2389.00, 
2390.00, 
2391.00, 
2392.00, 
2393.00, 
2394.00, 
2395.00, 
2396.00, 
2397.00, 
2398.00, 
2399.00, 
2400.00, 
2401.00, 
2402.00, 
2403.00, 
2404.00, 
2405.00, 
2406.00, 
2407.00, 
2408.00, 
2409.00, 
2410.00, 
2411.00, 
2412.00, 
2413.00, 
2414.00, 
2415.00, 
2416.00, 
2417.00, 
2418.00, 
2419.00, 
2420.00, 
2421.00, 
2422.00, 
2423.00, 
2424.00, 
2425.00, 
2426.00, 
2427.00, 
2428.00, 
2429.00, 
2430.00, 
2431.00, 
2432.00, 
2433.00, 
2434.00, 
2435.00, 
2436.00, 
2437.00, 
2438.00, 
2439.00, 
2440.00, 
2441.00, 
2442.00, 
2443.00, 
2444.00, 
2445.00, 
2446.00, 
2447.00, 
2448.00, 
2449.00, 
2450.00, 
2451.00, 
2452.00, 
2453.00, 
2454.00, 
2455.00, 
2456.00, 
2457.00, 
2458.00, 
2459.00, 
2460.00, 
2461.00, 
2462.00, 
2463.00, 
2464.00, 
2465.00, 
2466.00, 
2467.00, 
2468.00, 
2469.00, 
2470.00, 
2471.00, 
2472.00, 
2473.00, 
2474.00, 
2475.00, 
2476.00, 
2477.00, 
2478.00, 
2479.00, 
2480.00, 
2481.00, 
2482.00, 
2483.00, 
2484.00, 
2485.00, 
2486.00, 
2487.00, 
2488.00, 
2489.00, 
2490.00, 
2491.00, 
2492.00, 
2493.00, 
2494.00, 
2495.00, 
2496.00, 
2497.00, 
2498.00, 
2499.00, 
2500.00, 
2501.00, 
2502.00, 
2503.00, 
2504.00, 
2505.00, 
2506.00, 
2507.00, 
2508.00, 
2509.00, 
2510.00, 
2511.00, 
2512.00, 
2513.00, 
2514.00, 
2515.00, 
2516.00, 
2517.00, 
2518.00, 
2519.00, 
2520.00, 
2521.00, 
2522.00, 
2523.00, 
2524.00, 
2525.00, 
2526.00, 
2527.00, 
2528.00, 
2529.00, 
2530.00, 
2531.00, 
2532.00, 
2533.00, 
2534.00, 
2535.00, 
2536.00, 
2537.00, 
2538.00, 
2539.00, 
2540.00, 
2541.00, 
2542.00, 
2543.00, 
2544.00, 
2545.00, 
2546.00, 
2547.00, 
2548.00, 
2549.00, 
2550.00, 
2551.00, 
2552.00, 
2553.00, 
2554.00, 
2555.00, 
2556.00, 
2557.00, 
2558.00, 
2559.00, 
2560.00, 
2561.00, 
2562.00, 
2563.00, 
2564.00, 
2565.00, 
2566.00, 
2567.00, 
2568.00, 
2569.00, 
2570.00, 
2571.00, 
2572.00, 
2573.00, 
2574.00, 
2575.00, 
2576.00, 
2577.00, 
2578.00, 
2579.00, 
2580.00, 
2581.00, 
2582.00, 
2583.00, 
2584.00, 
2585.00, 
2586.00, 
2587.00, 
2588.00, 
2589.00, 
2590.00, 
2591.00, 
2592.00, 
2593.00, 
2594.00, 
2595.00, 
2596.00, 
2597.00, 
2598.00, 
2599.00, 
2600.00, 
