"2cP5 - RawData"
"Wavelength nm.","T%"
200.00,0.002
201.00,0.003
202.00,0.001
203.00,0.006
204.00,0.004
205.00,0.003
206.00,0.002
207.00,-0.002
208.00,0.002
209.00,0.001
210.00,-0.002
211.00,0.000
212.00,0.003
213.00,0.002
214.00,0.001
215.00,0.001
216.00,0.001
217.00,0.001
218.00,0.001
219.00,0.002
220.00,0.002
221.00,0.000
222.00,0.001
223.00,0.000
224.00,0.000
225.00,0.001
226.00,0.002
227.00,0.003
228.00,0.003
229.00,0.001
230.00,-0.000
231.00,-0.001
232.00,-0.001
233.00,0.001
234.00,0.002
235.00,-0.000
236.00,-0.000
237.00,0.001
238.00,0.003
239.00,0.001
240.00,0.001
241.00,0.001
242.00,0.001
243.00,-0.001
244.00,-0.000
245.00,0.001
246.00,0.000
247.00,-0.000
248.00,0.001
249.00,0.001
250.00,0.000
251.00,0.000
252.00,0.001
253.00,-0.000
254.00,0.001
255.00,0.002
256.00,-0.000
257.00,0.001
258.00,0.000
259.00,0.001
260.00,-0.000
261.00,0.001
262.00,0.002
263.00,0.002
264.00,0.001
265.00,0.001
266.00,-0.000
267.00,0.001
268.00,0.001
269.00,0.001
270.00,-0.000
271.00,0.001
272.00,0.000
273.00,0.001
274.00,0.000
275.00,-0.000
276.00,0.001
277.00,0.000
278.00,0.000
279.00,0.001
280.00,-0.000
281.00,0.000
282.00,-0.000
283.00,0.001
284.00,0.002
285.00,0.000
286.00,0.001
287.00,0.001
288.00,0.001
289.00,0.002
290.00,0.000
291.00,0.000
292.00,0.001
293.00,0.000
294.00,0.001
295.00,0.000
296.00,0.002
297.00,0.001
298.00,0.002
299.00,0.003
300.00,0.001
301.00,0.004
302.00,0.006
303.00,0.009
304.00,0.012
305.00,0.020
306.00,0.031
307.00,0.050
308.00,0.076
309.00,0.114
310.00,0.160
311.00,0.213
312.00,0.289
313.00,0.399
314.00,0.531
315.00,0.686
316.00,0.876
317.00,1.110
318.00,1.366
319.00,1.682
320.00,2.039
321.00,2.450
322.00,2.914
323.00,3.458
324.00,3.997
325.00,4.514
326.00,5.104
327.00,5.770
328.00,6.434
329.00,7.130
330.00,7.837
331.00,8.542
332.00,9.311
333.00,10.081
334.00,10.808
335.00,11.603
336.00,12.366
337.00,13.117
338.00,13.861
339.00,14.509
340.00,15.248
341.00,15.946
342.00,16.572
343.00,17.214
344.00,17.788
345.00,18.390
346.00,18.872
347.00,19.435
348.00,19.945
349.00,20.407
350.00,20.896
351.00,21.318
352.00,21.648
353.00,22.013
354.00,22.383
355.00,22.668
356.00,23.039
357.00,23.300
358.00,23.551
359.00,23.830
360.00,24.072
361.00,24.243
362.00,24.472
363.00,24.619
364.00,24.780
365.00,24.920
366.00,25.115
367.00,25.150
368.00,25.234
369.00,25.317
370.00,25.422
371.00,25.422
372.00,25.457
373.00,25.493
374.00,25.466
375.00,25.447
376.00,25.509
377.00,25.496
378.00,25.394
379.00,25.372
380.00,25.358
381.00,25.351
382.00,25.372
383.00,25.432
384.00,25.477
385.00,25.522
386.00,25.562
387.00,25.643
388.00,25.701
389.00,25.754
390.00,25.799
391.00,25.830
392.00,25.901
393.00,25.919
394.00,25.904
395.00,25.949
396.00,25.978
397.00,25.986
398.00,26.017
399.00,26.015
400.00,26.032
401.00,26.028
402.00,26.022
403.00,26.037
404.00,26.063
405.00,26.099
406.00,26.103
407.00,26.053
408.00,26.061
409.00,26.012
410.00,25.983
411.00,25.982
412.00,25.975
413.00,26.013
414.00,26.024
415.00,26.019
416.00,26.049
417.00,26.068
418.00,26.099
419.00,26.157
420.00,26.127
421.00,26.206
422.00,26.302
423.00,26.289
424.00,26.332
425.00,26.352
426.00,26.409
427.00,26.475
428.00,26.561
429.00,26.583
430.00,26.572
431.00,26.683
432.00,26.640
433.00,26.788
434.00,26.841
435.00,26.896
436.00,26.979
437.00,27.069
438.00,27.178
439.00,27.205
440.00,27.251
441.00,27.337
442.00,27.406
443.00,27.541
444.00,27.647
445.00,27.660
446.00,27.771
447.00,27.868
448.00,27.998
449.00,28.115
450.00,28.194
451.00,28.284
452.00,28.423
453.00,28.526
454.00,28.640
455.00,28.761
456.00,28.842
457.00,28.971
458.00,29.106
459.00,29.202
460.00,29.332
461.00,29.442
462.00,29.554
463.00,29.737
464.00,29.878
465.00,29.938
466.00,30.084
467.00,30.202
468.00,30.313
469.00,30.463
470.00,30.560
471.00,30.668
472.00,30.785
473.00,30.838
474.00,30.963
475.00,31.077
476.00,31.164
477.00,31.283
478.00,31.479
479.00,31.568
480.00,31.743
481.00,31.895
482.00,32.001
483.00,32.119
484.00,32.272
485.00,32.462
486.00,32.550
487.00,32.677
488.00,32.852
489.00,33.032
490.00,33.123
491.00,33.234
492.00,33.409
493.00,33.460
494.00,33.532
495.00,33.679
496.00,33.794
497.00,33.943
498.00,34.068
499.00,34.199
500.00,34.264
501.00,34.343
502.00,34.537
503.00,34.684
504.00,34.793
505.00,34.886
506.00,34.976
507.00,35.091
508.00,35.196
509.00,35.353
510.00,35.465
511.00,35.574
512.00,35.665
513.00,35.809
514.00,35.943
515.00,36.050
516.00,36.132
517.00,36.239
518.00,36.384
519.00,36.479
520.00,36.515
521.00,36.633
522.00,36.719
523.00,36.750
524.00,36.857
525.00,36.935
526.00,37.048
527.00,37.127
528.00,37.232
529.00,37.237
530.00,37.292
531.00,37.528
532.00,37.594
533.00,37.646
534.00,37.699
535.00,37.836
536.00,37.867
537.00,37.927
538.00,38.007
539.00,38.089
540.00,38.144
541.00,38.183
542.00,38.258
543.00,38.293
544.00,38.405
545.00,38.391
546.00,38.367
547.00,38.548
548.00,38.652
549.00,38.696
550.00,38.722
551.00,38.796
552.00,38.881
553.00,38.944
554.00,39.013
555.00,39.058
556.00,39.078
557.00,39.096
558.00,39.210
559.00,39.289
560.00,39.269
561.00,39.356
562.00,39.489
563.00,39.431
564.00,39.539
565.00,39.536
566.00,39.600
567.00,39.623
568.00,39.671
569.00,39.694
570.00,39.669
571.00,39.687
572.00,39.759
573.00,39.821
574.00,39.846
575.00,39.915
576.00,39.933
577.00,39.985
578.00,40.068
579.00,40.096
580.00,40.137
581.00,40.235
582.00,40.295
583.00,40.282
584.00,40.372
585.00,40.426
586.00,40.421
587.00,40.516
588.00,40.570
589.00,40.538
590.00,40.614
591.00,40.633
592.00,40.515
593.00,40.692
594.00,40.802
595.00,40.785
596.00,40.814
597.00,40.888
598.00,40.906
599.00,40.920
600.00,41.042
601.00,41.100
602.00,41.112
603.00,41.214
604.00,41.211
605.00,41.251
606.00,41.313
607.00,41.238
608.00,41.333
609.00,41.342
610.00,41.359
611.00,41.389
612.00,41.491
613.00,41.527
614.00,41.497
615.00,41.545
616.00,41.640
617.00,41.632
618.00,41.695
619.00,41.713
620.00,41.807
621.00,41.870
622.00,41.839
623.00,41.925
624.00,41.932
625.00,42.018
626.00,42.114
627.00,42.089
628.00,42.177
629.00,42.236
630.00,42.289
631.00,42.310
632.00,42.401
633.00,42.458
634.00,42.504
635.00,42.554
636.00,42.703
637.00,42.820
638.00,42.809
639.00,42.894
640.00,42.865
641.00,42.919
642.00,43.009
643.00,43.095
644.00,43.129
645.00,43.154
646.00,43.287
647.00,43.390
648.00,43.417
649.00,43.545
650.00,43.428
651.00,43.622
652.00,43.660
653.00,43.752
654.00,43.746
655.00,43.803
656.00,43.872
657.00,44.121
658.00,44.024
659.00,44.017
660.00,44.242
661.00,44.303
662.00,43.987
663.00,44.451
664.00,44.536
665.00,44.549
666.00,44.671
667.00,44.796
668.00,44.627
669.00,45.002
670.00,45.019
671.00,44.975
672.00,44.999
673.00,45.264
674.00,45.223
675.00,45.325
676.00,45.479
677.00,45.474
678.00,45.579
679.00,45.635
680.00,45.667
681.00,45.762
682.00,45.919
683.00,45.870
684.00,46.062
685.00,46.162
686.00,46.147
687.00,46.174
688.00,46.228
689.00,46.267
690.00,46.372
691.00,46.453
692.00,46.539
693.00,46.512
694.00,46.543
695.00,46.660
696.00,46.781
697.00,46.914
698.00,46.937
699.00,47.073
700.00,47.176
701.00,47.276
702.00,47.220
703.00,47.255
704.00,47.307
705.00,47.422
706.00,47.759
707.00,47.578
708.00,47.496
709.00,47.877
710.00,47.771
711.00,47.716
712.00,47.907
713.00,47.824
714.00,47.899
715.00,48.030
716.00,47.933
717.00,48.020
718.00,48.151
719.00,48.068
720.00,48.127
721.00,52.731
722.00,52.771
723.00,52.749
724.00,52.844
725.00,52.742
726.00,52.860
727.00,52.770
728.00,52.883
729.00,52.755
730.00,52.916
731.00,52.825
732.00,52.882
733.00,52.947
734.00,52.906
735.00,52.969
736.00,52.959
737.00,53.069
738.00,53.008
739.00,53.071
740.00,53.049
741.00,53.117
742.00,53.092
743.00,53.085
744.00,53.078
745.00,53.109
746.00,53.046
747.00,53.117
748.00,53.092
749.00,53.087
750.00,53.098
751.00,53.064
752.00,53.023
753.00,52.986
754.00,53.097
755.00,53.022
756.00,53.012
757.00,53.052
758.00,53.091
759.00,53.095
760.00,53.118
761.00,53.129
762.00,53.026
763.00,53.088
764.00,53.049
765.00,53.029
766.00,53.114
767.00,53.138
768.00,53.091
769.00,53.135
770.00,53.182
771.00,53.110
772.00,53.126
773.00,53.171
774.00,53.132
775.00,53.270
776.00,53.199
777.00,53.156
778.00,53.100
779.00,53.109
780.00,53.133
781.00,53.106
782.00,53.152
783.00,53.071
784.00,53.073
785.00,53.092
786.00,53.069
787.00,53.039
788.00,53.055
789.00,53.097
790.00,53.010
791.00,53.076
792.00,52.959
793.00,53.029
794.00,52.999
795.00,52.958
796.00,52.864
797.00,52.926
798.00,52.892
799.00,52.825
800.00,52.959
801.00,52.926
802.00,52.846
803.00,52.836
804.00,52.820
805.00,52.787
806.00,52.762
807.00,52.787
808.00,52.718
809.00,52.689
810.00,52.695
811.00,52.687
812.00,52.730
813.00,52.665
814.00,52.772
815.00,52.679
816.00,52.580
817.00,52.668
818.00,52.552
819.00,52.569
820.00,52.502
821.00,52.546
822.00,52.449
823.00,52.474
824.00,52.547
825.00,52.438
826.00,52.417
827.00,52.393
828.00,52.454
829.00,52.452
830.00,52.373
831.00,54.550
832.00,54.521
833.00,54.560
834.00,54.506
835.00,54.480
836.00,54.513
837.00,54.442
838.00,54.422
839.00,54.422
840.00,54.400
841.00,54.424
842.00,54.372
843.00,54.352
844.00,54.357
845.00,54.316
846.00,54.294
847.00,54.277
848.00,54.271
849.00,54.206
850.00,54.197
851.00,54.129
852.00,54.096
853.00,54.103
854.00,54.063
855.00,53.957
856.00,54.009
857.00,53.986
858.00,53.978
859.00,53.925
860.00,53.925
861.00,53.897
862.00,53.878
863.00,53.865
864.00,53.857
865.00,53.841
866.00,53.793
867.00,53.809
868.00,53.804
869.00,53.821
870.00,53.723
871.00,53.787
872.00,53.756
873.00,53.679
874.00,53.928
875.00,53.721
876.00,53.708
877.00,53.682
878.00,53.721
879.00,53.671
880.00,53.644
881.00,53.619
882.00,53.653
883.00,53.593
884.00,53.559
885.00,53.552
886.00,53.551
887.00,53.518
888.00,53.490
889.00,53.485
890.00,53.465
891.00,53.430
892.00,53.436
893.00,53.381
894.00,53.376
895.00,53.361
896.00,53.348
897.00,53.316
898.00,53.318
899.00,53.306
900.00,53.298
901.00,53.256
902.00,53.274
903.00,53.265
904.00,53.260
905.00,53.231
906.00,53.220
907.00,53.202
908.00,53.152
909.00,53.137
910.00,53.117
911.00,53.090
912.00,53.097
913.00,53.073
914.00,53.019
915.00,53.019
916.00,52.977
917.00,52.950
918.00,52.956
919.00,52.927
920.00,52.913
921.00,52.876
922.00,52.880
923.00,52.833
924.00,52.830
925.00,52.809
926.00,52.795
927.00,52.758
928.00,52.731
929.00,52.740
930.00,52.722
931.00,52.707
932.00,52.662
933.00,52.664
934.00,52.661
935.00,52.623
936.00,52.578
937.00,52.558
938.00,52.545
939.00,52.534
940.00,52.515
941.00,52.528
942.00,52.467
943.00,52.492
944.00,52.533
945.00,52.442
946.00,52.443
947.00,52.410
948.00,52.392
949.00,52.347
950.00,52.353
951.00,52.329
952.00,52.306
953.00,52.273
954.00,52.251
955.00,52.211
956.00,52.197
957.00,52.165
958.00,52.161
959.00,52.124
960.00,52.110
961.00,52.083
962.00,52.106
963.00,52.045
964.00,52.056
965.00,52.053
966.00,52.063
967.00,52.048
968.00,52.034
969.00,52.041
970.00,52.010
971.00,52.025
972.00,51.983
973.00,52.026
974.00,52.080
975.00,52.021
976.00,52.041
977.00,52.014
978.00,52.065
979.00,51.998
980.00,52.021
981.00,52.010
982.00,51.989
983.00,51.982
984.00,51.977
985.00,52.003
986.00,51.952
987.00,51.981
988.00,51.940
989.00,51.933
990.00,51.973
991.00,51.899
992.00,51.916
993.00,51.866
994.00,51.875
995.00,51.846
996.00,51.849
997.00,51.842
998.00,51.816
999.00,51.839
1000.00,51.795
1001.00,51.797
1002.00,51.771
1003.00,51.771
1004.00,51.731
1005.00,51.703
1006.00,51.743
1007.00,51.704
1008.00,51.700
1009.00,51.675
1010.00,51.678
1011.00,51.669
1012.00,51.630
1013.00,51.644
1014.00,51.607
1015.00,51.613
1016.00,51.578
1017.00,51.581
1018.00,51.569
1019.00,51.537
1020.00,51.536
1021.00,51.508
1022.00,51.515
1023.00,51.469
1024.00,51.469
1025.00,51.455
1026.00,51.447
1027.00,51.419
1028.00,51.418
1029.00,51.409
1030.00,51.372
1031.00,51.383
1032.00,51.335
1033.00,51.326
1034.00,51.291
1035.00,51.285
1036.00,51.251
1037.00,51.218
1038.00,51.194
1039.00,51.169
1040.00,51.180
1041.00,51.154
1042.00,51.158
1043.00,51.125
1044.00,51.161
1045.00,51.150
1046.00,51.140
1047.00,51.139
1048.00,51.158
1049.00,51.155
1050.00,51.165
1051.00,51.243
1052.00,51.199
1053.00,51.211
1054.00,51.198
1055.00,51.217
1056.00,51.226
1057.00,51.227
1058.00,51.220
1059.00,51.203
1060.00,51.216
1061.00,51.208
1062.00,51.190
1063.00,51.200
1064.00,51.203
1065.00,51.182
1066.00,51.165
1067.00,51.159
1068.00,51.184
1069.00,51.147
1070.00,51.133
1071.00,51.101
1072.00,51.123
1073.00,51.107
1074.00,51.094
1075.00,51.082
1076.00,51.120
1077.00,51.079
1078.00,51.055
1079.00,51.050
1080.00,51.049
1081.00,51.029
1082.00,51.031
1083.00,51.026
1084.00,51.021
1085.00,51.002
1086.00,51.005
1087.00,51.005
1088.00,51.004
1089.00,50.969
1090.00,50.956
1091.00,50.961
1092.00,50.929
1093.00,50.897
1094.00,50.896
1095.00,50.888
1096.00,50.890
1097.00,50.921
1098.00,50.881
1099.00,50.863
1100.00,50.854
1101.00,50.855
1102.00,50.852
1103.00,50.839
1104.00,50.829
1105.00,50.812
1106.00,50.798
1107.00,50.799
1108.00,50.789
1109.00,50.775
1110.00,50.767
1111.00,50.767
1112.00,50.774
1113.00,50.740
1114.00,50.727
1115.00,50.723
1116.00,50.723
1117.00,50.695
1118.00,50.681
1119.00,50.694
1120.00,50.684
1121.00,50.678
1122.00,50.666
1123.00,50.671
1124.00,50.678
1125.00,50.650
1126.00,50.663
1127.00,50.658
1128.00,50.643
1129.00,50.609
1130.00,50.619
1131.00,50.616
1132.00,50.607
1133.00,50.595
1134.00,50.586
1135.00,50.591
1136.00,50.565
1137.00,50.568
1138.00,50.571
1139.00,50.568
1140.00,50.564
1141.00,50.559
1142.00,50.551
1143.00,50.564
1144.00,50.520
1145.00,50.541
1146.00,50.525
1147.00,50.522
1148.00,50.509
1149.00,50.525
1150.00,50.530
1151.00,50.540
1152.00,50.512
1153.00,50.513
1154.00,50.504
1155.00,50.487
1156.00,50.489
1157.00,50.504
1158.00,50.476
1159.00,50.485
1160.00,50.476
1161.00,50.491
1162.00,50.477
1163.00,50.481
1164.00,50.481
1165.00,50.480
1166.00,50.477
1167.00,50.460
1168.00,50.476
1169.00,50.454
1170.00,50.463
1171.00,50.456
1172.00,50.481
1173.00,50.484
1174.00,50.477
1175.00,50.463
1176.00,50.470
1177.00,50.458
1178.00,50.448
1179.00,50.455
1180.00,50.433
1181.00,50.437
1182.00,50.437
1183.00,50.433
1184.00,50.410
1185.00,50.432
1186.00,50.422
1187.00,50.446
1188.00,50.438
1189.00,50.447
1190.00,50.431
1191.00,50.410
1192.00,50.439
1193.00,50.436
1194.00,50.432
1195.00,50.401
1196.00,50.439
1197.00,50.430
1198.00,50.423
1199.00,50.409
1200.00,50.420
1201.00,50.431
1202.00,50.409
1203.00,50.444
1204.00,50.422
1205.00,50.439
1206.00,50.426
1207.00,50.431
1208.00,50.414
1209.00,50.424
1210.00,50.410
1211.00,50.400
1212.00,50.432
1213.00,50.382
1214.00,50.410
1215.00,50.386
1216.00,50.420
1217.00,50.411
1218.00,50.400
1219.00,50.439
1220.00,50.406
1221.00,50.401
1222.00,50.379
1223.00,50.407
1224.00,50.398
1225.00,50.379
1226.00,50.387
1227.00,50.382
1228.00,50.389
1229.00,50.398
1230.00,50.437
1231.00,50.428
1232.00,50.438
1233.00,50.431
1234.00,50.444
1235.00,50.428
1236.00,50.439
1237.00,50.431
1238.00,50.431
1239.00,50.438
1240.00,50.437
1241.00,50.442
1242.00,50.422
1243.00,50.438
1244.00,50.413
1245.00,50.452
1246.00,50.463
1247.00,50.459
1248.00,50.435
1249.00,50.459
1250.00,50.484
1251.00,50.457
1252.00,50.474
1253.00,50.476
1254.00,50.478
1255.00,50.476
1256.00,50.473
1257.00,50.452
1258.00,50.481
1259.00,50.485
1260.00,50.519
1261.00,50.514
1262.00,50.503
1263.00,50.494
1264.00,50.530
1265.00,50.496
1266.00,50.484
1267.00,50.509
1268.00,50.515
1269.00,50.512
1270.00,50.536
1271.00,50.540
1272.00,50.530
1273.00,50.545
1274.00,50.553
1275.00,50.570
1276.00,50.553
1277.00,50.556
1278.00,50.584
1279.00,50.565
1280.00,50.552
1281.00,50.570
1282.00,50.585
1283.00,50.579
1284.00,50.572
1285.00,50.569
1286.00,50.583
1287.00,50.576
1288.00,50.583
1289.00,50.578
1290.00,50.607
1291.00,50.592
1292.00,50.590
1293.00,50.611
1294.00,50.640
1295.00,50.636
1296.00,50.627
1297.00,50.646
1298.00,50.655
1299.00,50.642
1300.00,50.654
1301.00,50.636
1302.00,50.655
1303.00,50.668
1304.00,50.650
1305.00,50.668
1306.00,50.671
1307.00,50.661
1308.00,50.695
1309.00,50.712
1310.00,50.680
1311.00,50.695
1312.00,50.690
1313.00,50.701
1314.00,50.725
1315.00,50.737
1316.00,50.754
1317.00,50.778
1318.00,50.782
1319.00,50.781
1320.00,50.784
1321.00,50.934
1322.00,50.920
1323.00,50.891
1324.00,50.897
1325.00,50.891
1326.00,50.903
1327.00,50.878
1328.00,50.889
1329.00,50.890
1330.00,50.905
1331.00,50.892
1332.00,50.909
1333.00,50.912
1334.00,50.920
1335.00,50.945
1336.00,50.985
1337.00,50.997
1338.00,51.063
1339.00,51.099
1340.00,51.177
1341.00,51.226
1342.00,51.293
1343.00,51.351
1344.00,51.398
1345.00,51.420
1346.00,51.477
1347.00,51.482
1348.00,51.506
1349.00,51.535
1350.00,51.556
1351.00,51.575
1352.00,51.599
1353.00,51.546
1354.00,51.590
1355.00,51.593
1356.00,51.528
1357.00,51.559
1358.00,51.657
1359.00,51.605
1360.00,51.646
1361.00,51.591
1362.00,51.623
1363.00,51.475
1364.00,51.515
1365.00,51.600
1366.00,51.595
1367.00,51.603
1368.00,51.622
1369.00,51.414
1370.00,51.564
1371.00,51.543
1372.00,51.562
1373.00,51.589
1374.00,51.612
1375.00,51.593
1376.00,51.595
1377.00,51.596
1378.00,51.613
1379.00,51.584
1380.00,51.615
1381.00,51.606
1382.00,51.557
1383.00,51.611
1384.00,51.508
1385.00,51.477
1386.00,51.549
1387.00,51.573
1388.00,51.538
1389.00,51.637
1390.00,51.481
1391.00,51.560
1392.00,51.561
1393.00,51.539
1394.00,51.558
1395.00,51.468
1396.00,51.555
1397.00,51.594
1398.00,51.504
1399.00,51.570
1400.00,51.630
1401.00,51.576
1402.00,51.650
1403.00,51.602
1404.00,51.581
1405.00,51.609
1406.00,51.633
1407.00,51.601
1408.00,51.617
1409.00,51.648
1410.00,51.676
1411.00,51.625
1412.00,51.708
1413.00,51.632
1414.00,51.631
1415.00,51.677
1416.00,51.785
1417.00,51.728
1418.00,51.701
1419.00,51.684
1420.00,51.731
1421.00,51.772
1422.00,51.745
1423.00,51.746
1424.00,51.777
1425.00,51.758
1426.00,51.778
1427.00,51.811
1428.00,51.807
1429.00,51.801
1430.00,51.823
1431.00,51.843
1432.00,51.864
1433.00,51.866
1434.00,51.877
1435.00,51.936
1436.00,51.913
1437.00,51.899
1438.00,51.929
1439.00,51.971
1440.00,51.993
1441.00,51.995
1442.00,52.012
1443.00,52.052
1444.00,52.091
1445.00,52.038
1446.00,52.039
1447.00,52.066
1448.00,52.099
1449.00,52.109
1450.00,52.135
1451.00,52.143
1452.00,52.152
1453.00,52.169
1454.00,52.201
1455.00,52.199
1456.00,52.224
1457.00,52.234
1458.00,52.230
1459.00,52.243
1460.00,52.245
1461.00,52.287
1462.00,52.312
1463.00,52.297
1464.00,52.337
1465.00,52.353
1466.00,52.309
1467.00,52.325
1468.00,52.448
1469.00,52.377
1470.00,52.383
1471.00,52.424
1472.00,52.442
1473.00,52.435
1474.00,52.461
1475.00,52.483
1476.00,52.493
1477.00,52.446
1478.00,52.494
1479.00,52.528
1480.00,52.512
1481.00,52.511
1482.00,52.523
1483.00,52.568
1484.00,52.560
1485.00,52.574
1486.00,52.598
1487.00,52.633
1488.00,52.621
1489.00,52.626
1490.00,52.620
1491.00,52.624
1492.00,52.681
1493.00,52.653
1494.00,52.688
1495.00,52.697
1496.00,52.697
1497.00,52.725
1498.00,52.739
1499.00,52.736
1500.00,52.776
1501.00, 
1502.00, 
1503.00, 
1504.00, 
1505.00, 
1506.00, 
1507.00, 
1508.00, 
1509.00, 
1510.00, 
1511.00, 
1512.00, 
1513.00, 
1514.00, 
1515.00, 
1516.00, 
1517.00, 
1518.00, 
1519.00, 
1520.00, 
1521.00, 
1522.00, 
1523.00, 
1524.00, 
1525.00, 
1526.00, 
1527.00, 
1528.00, 
1529.00, 
1530.00, 
1531.00, 
1532.00, 
1533.00, 
1534.00, 
1535.00, 
1536.00, 
1537.00, 
1538.00, 
1539.00, 
1540.00, 
1541.00, 
1542.00, 
1543.00, 
1544.00, 
1545.00, 
1546.00, 
1547.00, 
1548.00, 
1549.00, 
1550.00, 
1551.00, 
1552.00, 
1553.00, 
1554.00, 
1555.00, 
1556.00, 
1557.00, 
1558.00, 
1559.00, 
1560.00, 
1561.00, 
1562.00, 
1563.00, 
1564.00, 
1565.00, 
1566.00, 
1567.00, 
1568.00, 
1569.00, 
1570.00, 
1571.00, 
1572.00, 
1573.00, 
1574.00, 
1575.00, 
1576.00, 
1577.00, 
1578.00, 
1579.00, 
1580.00, 
1581.00, 
1582.00, 
1583.00, 
1584.00, 
1585.00, 
1586.00, 
1587.00, 
1588.00, 
1589.00, 
1590.00, 
1591.00, 
1592.00, 
1593.00, 
1594.00, 
1595.00, 
1596.00, 
1597.00, 
1598.00, 
1599.00, 
1600.00, 
1601.00, 
1602.00, 
1603.00, 
1604.00, 
1605.00, 
1606.00, 
1607.00, 
1608.00, 
1609.00, 
1610.00, 
1611.00, 
1612.00, 
1613.00, 
1614.00, 
1615.00, 
1616.00, 
1617.00, 
1618.00, 
1619.00, 
1620.00, 
1621.00, 
1622.00, 
1623.00, 
1624.00, 
1625.00, 
1626.00, 
1627.00, 
1628.00, 
1629.00, 
1630.00, 
1631.00, 
1632.00, 
1633.00, 
1634.00, 
1635.00, 
1636.00, 
1637.00, 
1638.00, 
1639.00, 
1640.00, 
1641.00, 
1642.00, 
1643.00, 
1644.00, 
1645.00, 
1646.00, 
1647.00, 
1648.00, 
1649.00, 
1650.00, 
1651.00, 
1652.00, 
1653.00, 
1654.00, 
1655.00, 
1656.00, 
1657.00, 
1658.00, 
1659.00, 
1660.00, 
1661.00, 
1662.00, 
1663.00, 
1664.00, 
1665.00, 
1666.00, 
1667.00, 
1668.00, 
1669.00, 
1670.00, 
1671.00, 
1672.00, 
1673.00, 
1674.00, 
1675.00, 
1676.00, 
1677.00, 
1678.00, 
1679.00, 
1680.00, 
1681.00, 
1682.00, 
1683.00, 
1684.00, 
1685.00, 
1686.00, 
1687.00, 
1688.00, 
1689.00, 
1690.00, 
1691.00, 
1692.00, 
1693.00, 
1694.00, 
1695.00, 
1696.00, 
1697.00, 
1698.00, 
1699.00, 
1700.00, 
1701.00, 
1702.00, 
1703.00, 
1704.00, 
1705.00, 
1706.00, 
1707.00, 
1708.00, 
1709.00, 
1710.00, 
1711.00, 
1712.00, 
1713.00, 
1714.00, 
1715.00, 
1716.00, 
1717.00, 
1718.00, 
1719.00, 
1720.00, 
1721.00, 
1722.00, 
1723.00, 
1724.00, 
1725.00, 
1726.00, 
1727.00, 
1728.00, 
1729.00, 
1730.00, 
1731.00, 
1732.00, 
1733.00, 
1734.00, 
1735.00, 
1736.00, 
1737.00, 
1738.00, 
1739.00, 
1740.00, 
1741.00, 
1742.00, 
1743.00, 
1744.00, 
1745.00, 
1746.00, 
1747.00, 
1748.00, 
1749.00, 
1750.00, 
1751.00, 
1752.00, 
1753.00, 
1754.00, 
1755.00, 
1756.00, 
1757.00, 
1758.00, 
1759.00, 
1760.00, 
1761.00, 
1762.00, 
1763.00, 
1764.00, 
1765.00, 
1766.00, 
1767.00, 
1768.00, 
1769.00, 
1770.00, 
1771.00, 
1772.00, 
1773.00, 
1774.00, 
1775.00, 
1776.00, 
1777.00, 
1778.00, 
1779.00, 
1780.00, 
1781.00, 
1782.00, 
1783.00, 
1784.00, 
1785.00, 
1786.00, 
1787.00, 
1788.00, 
1789.00, 
1790.00, 
1791.00, 
1792.00, 
1793.00, 
1794.00, 
1795.00, 
1796.00, 
1797.00, 
1798.00, 
1799.00, 
1800.00, 
1801.00, 
1802.00, 
1803.00, 
1804.00, 
1805.00, 
1806.00, 
1807.00, 
1808.00, 
1809.00, 
1810.00, 
1811.00, 
1812.00, 
1813.00, 
1814.00, 
1815.00, 
1816.00, 
1817.00, 
1818.00, 
1819.00, 
1820.00, 
1821.00, 
1822.00, 
1823.00, 
1824.00, 
1825.00, 
1826.00, 
1827.00, 
1828.00, 
1829.00, 
1830.00, 
1831.00, 
1832.00, 
1833.00, 
1834.00, 
1835.00, 
1836.00, 
1837.00, 
1838.00, 
1839.00, 
1840.00, 
1841.00, 
1842.00, 
1843.00, 
1844.00, 
1845.00, 
1846.00, 
1847.00, 
1848.00, 
1849.00, 
1850.00, 
1851.00, 
1852.00, 
1853.00, 
1854.00, 
1855.00, 
1856.00, 
1857.00, 
1858.00, 
1859.00, 
1860.00, 
1861.00, 
1862.00, 
1863.00, 
1864.00, 
1865.00, 
1866.00, 
1867.00, 
1868.00, 
1869.00, 
1870.00, 
1871.00, 
1872.00, 
1873.00, 
1874.00, 
1875.00, 
1876.00, 
1877.00, 
1878.00, 
1879.00, 
1880.00, 
1881.00, 
1882.00, 
1883.00, 
1884.00, 
1885.00, 
1886.00, 
1887.00, 
1888.00, 
1889.00, 
1890.00, 
1891.00, 
1892.00, 
1893.00, 
1894.00, 
1895.00, 
1896.00, 
1897.00, 
1898.00, 
1899.00, 
1900.00, 
1901.00, 
1902.00, 
1903.00, 
1904.00, 
1905.00, 
1906.00, 
1907.00, 
1908.00, 
1909.00, 
1910.00, 
1911.00, 
1912.00, 
1913.00, 
1914.00, 
1915.00, 
1916.00, 
1917.00, 
1918.00, 
1919.00, 
1920.00, 
1921.00, 
1922.00, 
1923.00, 
1924.00, 
1925.00, 
1926.00, 
1927.00, 
1928.00, 
1929.00, 
1930.00, 
1931.00, 
1932.00, 
1933.00, 
1934.00, 
1935.00, 
1936.00, 
1937.00, 
1938.00, 
1939.00, 
1940.00, 
1941.00, 
1942.00, 
1943.00, 
1944.00, 
1945.00, 
1946.00, 
1947.00, 
1948.00, 
1949.00, 
1950.00, 
1951.00, 
1952.00, 
1953.00, 
1954.00, 
1955.00, 
1956.00, 
1957.00, 
1958.00, 
1959.00, 
1960.00, 
1961.00, 
1962.00, 
1963.00, 
1964.00, 
1965.00, 
1966.00, 
1967.00, 
1968.00, 
1969.00, 
1970.00, 
1971.00, 
1972.00, 
1973.00, 
1974.00, 
1975.00, 
1976.00, 
1977.00, 
1978.00, 
1979.00, 
1980.00, 
1981.00, 
1982.00, 
1983.00, 
1984.00, 
1985.00, 
1986.00, 
1987.00, 
1988.00, 
1989.00, 
1990.00, 
1991.00, 
1992.00, 
1993.00, 
1994.00, 
1995.00, 
1996.00, 
1997.00, 
1998.00, 
1999.00, 
2000.00, 
2001.00, 
2002.00, 
2003.00, 
2004.00, 
2005.00, 
2006.00, 
2007.00, 
2008.00, 
2009.00, 
2010.00, 
2011.00, 
2012.00, 
2013.00, 
2014.00, 
2015.00, 
2016.00, 
2017.00, 
2018.00, 
2019.00, 
2020.00, 
2021.00, 
2022.00, 
2023.00, 
2024.00, 
2025.00, 
2026.00, 
2027.00, 
2028.00, 
2029.00, 
2030.00, 
2031.00, 
2032.00, 
2033.00, 
2034.00, 
2035.00, 
2036.00, 
2037.00, 
2038.00, 
2039.00, 
2040.00, 
2041.00, 
2042.00, 
2043.00, 
2044.00, 
2045.00, 
2046.00, 
2047.00, 
2048.00, 
2049.00, 
2050.00, 
2051.00, 
2052.00, 
2053.00, 
2054.00, 
2055.00, 
2056.00, 
2057.00, 
2058.00, 
2059.00, 
2060.00, 
2061.00, 
2062.00, 
2063.00, 
2064.00, 
2065.00, 
2066.00, 
2067.00, 
2068.00, 
2069.00, 
2070.00, 
2071.00, 
2072.00, 
2073.00, 
2074.00, 
2075.00, 
2076.00, 
2077.00, 
2078.00, 
2079.00, 
2080.00, 
2081.00, 
2082.00, 
2083.00, 
2084.00, 
2085.00, 
2086.00, 
2087.00, 
2088.00, 
2089.00, 
2090.00, 
2091.00, 
2092.00, 
2093.00, 
2094.00, 
2095.00, 
2096.00, 
2097.00, 
2098.00, 
2099.00, 
2100.00, 
2101.00, 
2102.00, 
2103.00, 
2104.00, 
2105.00, 
2106.00, 
2107.00, 
2108.00, 
2109.00, 
2110.00, 
2111.00, 
2112.00, 
2113.00, 
2114.00, 
2115.00, 
2116.00, 
2117.00, 
2118.00, 
2119.00, 
2120.00, 
2121.00, 
2122.00, 
2123.00, 
2124.00, 
2125.00, 
2126.00, 
2127.00, 
2128.00, 
2129.00, 
2130.00, 
2131.00, 
2132.00, 
2133.00, 
2134.00, 
2135.00, 
2136.00, 
2137.00, 
2138.00, 
2139.00, 
2140.00, 
2141.00, 
2142.00, 
2143.00, 
2144.00, 
2145.00, 
2146.00, 
2147.00, 
2148.00, 
2149.00, 
2150.00, 
2151.00, 
2152.00, 
2153.00, 
2154.00, 
2155.00, 
2156.00, 
2157.00, 
2158.00, 
2159.00, 
2160.00, 
2161.00, 
2162.00, 
2163.00, 
2164.00, 
2165.00, 
2166.00, 
2167.00, 
2168.00, 
2169.00, 
2170.00, 
2171.00, 
2172.00, 
2173.00, 
2174.00, 
2175.00, 
2176.00, 
2177.00, 
2178.00, 
2179.00, 
2180.00, 
2181.00, 
2182.00, 
2183.00, 
2184.00, 
2185.00, 
2186.00, 
2187.00, 
2188.00, 
2189.00, 
2190.00, 
2191.00, 
2192.00, 
2193.00, 
2194.00, 
2195.00, 
2196.00, 
2197.00, 
2198.00, 
2199.00, 
2200.00, 
2201.00, 
2202.00, 
2203.00, 
2204.00, 
2205.00, 
2206.00, 
2207.00, 
2208.00, 
2209.00, 
2210.00, 
2211.00, 
2212.00, 
2213.00, 
2214.00, 
2215.00, 
2216.00, 
2217.00, 
2218.00, 
2219.00, 
2220.00, 
2221.00, 
2222.00, 
2223.00, 
2224.00, 
2225.00, 
2226.00, 
2227.00, 
2228.00, 
2229.00, 
2230.00, 
2231.00, 
2232.00, 
2233.00, 
2234.00, 
2235.00, 
2236.00, 
2237.00, 
2238.00, 
2239.00, 
2240.00, 
2241.00, 
2242.00, 
2243.00, 
2244.00, 
2245.00, 
2246.00, 
2247.00, 
2248.00, 
2249.00, 
2250.00, 
2251.00, 
2252.00, 
2253.00, 
2254.00, 
2255.00, 
2256.00, 
2257.00, 
2258.00, 
2259.00, 
2260.00, 
2261.00, 
2262.00, 
2263.00, 
2264.00, 
2265.00, 
2266.00, 
2267.00, 
2268.00, 
2269.00, 
2270.00, 
2271.00, 
2272.00, 
2273.00, 
2274.00, 
2275.00, 
2276.00, 
2277.00, 
2278.00, 
2279.00, 
2280.00, 
2281.00, 
2282.00, 
2283.00, 
2284.00, 
2285.00, 
2286.00, 
2287.00, 
2288.00, 
2289.00, 
2290.00, 
2291.00, 
2292.00, 
2293.00, 
2294.00, 
2295.00, 
2296.00, 
2297.00, 
2298.00, 
2299.00, 
2300.00, 
2301.00, 
2302.00, 
2303.00, 
2304.00, 
2305.00, 
2306.00, 
2307.00, 
2308.00, 
2309.00, 
2310.00, 
2311.00, 
2312.00, 
2313.00, 
2314.00, 
2315.00, 
2316.00, 
2317.00, 
2318.00, 
2319.00, 
2320.00, 
2321.00, 
2322.00, 
2323.00, 
2324.00, 
2325.00, 
2326.00, 
2327.00, 
2328.00, 
2329.00, 
2330.00, 
2331.00, 
2332.00, 
2333.00, 
2334.00, 
2335.00, 
2336.00, 
2337.00, 
2338.00, 
2339.00, 
2340.00, 
2341.00, 
2342.00, 
2343.00, 
2344.00, 
2345.00, 
2346.00, 
2347.00, 
2348.00, 
2349.00, 
2350.00, 
2351.00, 
2352.00, 
2353.00, 
2354.00, 
2355.00, 
2356.00, 
2357.00, 
2358.00, 
2359.00, 
2360.00, 
2361.00, 
2362.00, 
2363.00, 
2364.00, 
2365.00, 
2366.00, 
2367.00, 
2368.00, 
2369.00, 
2370.00, 
2371.00, 
2372.00, 
2373.00, 
2374.00, 
2375.00, 
2376.00, 
2377.00, 
2378.00, 
2379.00, 
2380.00, 
2381.00, 
2382.00, 
2383.00, 
2384.00, 
2385.00, 
2386.00, 
2387.00, 
2388.00, 
2389.00, 
2390.00, 
2391.00, 
2392.00, 
2393.00, 
2394.00, 
2395.00, 
2396.00, 
2397.00, 
2398.00, 
2399.00, 
2400.00, 
2401.00, 
2402.00, 
2403.00, 
2404.00, 
2405.00, 
2406.00, 
2407.00, 
2408.00, 
2409.00, 
2410.00, 
2411.00, 
2412.00, 
2413.00, 
2414.00, 
2415.00, 
2416.00, 
2417.00, 
2418.00, 
2419.00, 
2420.00, 
2421.00, 
2422.00, 
2423.00, 
2424.00, 
2425.00, 
2426.00, 
2427.00, 
2428.00, 
2429.00, 
2430.00, 
2431.00, 
2432.00, 
2433.00, 
2434.00, 
2435.00, 
2436.00, 
2437.00, 
2438.00, 
2439.00, 
2440.00, 
2441.00, 
2442.00, 
2443.00, 
2444.00, 
2445.00, 
2446.00, 
2447.00, 
2448.00, 
2449.00, 
2450.00, 
2451.00, 
2452.00, 
2453.00, 
2454.00, 
2455.00, 
2456.00, 
2457.00, 
2458.00, 
2459.00, 
2460.00, 
2461.00, 
2462.00, 
2463.00, 
2464.00, 
2465.00, 
2466.00, 
2467.00, 
2468.00, 
2469.00, 
2470.00, 
2471.00, 
2472.00, 
2473.00, 
2474.00, 
2475.00, 
2476.00, 
2477.00, 
2478.00, 
2479.00, 
2480.00, 
2481.00, 
2482.00, 
2483.00, 
2484.00, 
2485.00, 
2486.00, 
2487.00, 
2488.00, 
2489.00, 
2490.00, 
2491.00, 
2492.00, 
2493.00, 
2494.00, 
2495.00, 
2496.00, 
2497.00, 
2498.00, 
2499.00, 
2500.00, 
2501.00, 
2502.00, 
2503.00, 
2504.00, 
2505.00, 
2506.00, 
2507.00, 
2508.00, 
2509.00, 
2510.00, 
2511.00, 
2512.00, 
2513.00, 
2514.00, 
2515.00, 
2516.00, 
2517.00, 
2518.00, 
2519.00, 
2520.00, 
2521.00, 
2522.00, 
2523.00, 
2524.00, 
2525.00, 
2526.00, 
2527.00, 
2528.00, 
2529.00, 
2530.00, 
2531.00, 
2532.00, 
2533.00, 
2534.00, 
2535.00, 
2536.00, 
2537.00, 
2538.00, 
2539.00, 
2540.00, 
2541.00, 
2542.00, 
2543.00, 
2544.00, 
2545.00, 
2546.00, 
2547.00, 
2548.00, 
2549.00, 
2550.00, 
2551.00, 
2552.00, 
2553.00, 
2554.00, 
2555.00, 
2556.00, 
2557.00, 
2558.00, 
2559.00, 
2560.00, 
2561.00, 
2562.00, 
2563.00, 
2564.00, 
2565.00, 
2566.00, 
2567.00, 
2568.00, 
2569.00, 
2570.00, 
2571.00, 
2572.00, 
2573.00, 
2574.00, 
2575.00, 
2576.00, 
2577.00, 
2578.00, 
2579.00, 
2580.00, 
2581.00, 
2582.00, 
2583.00, 
2584.00, 
2585.00, 
2586.00, 
2587.00, 
2588.00, 
2589.00, 
2590.00, 
2591.00, 
2592.00, 
2593.00, 
2594.00, 
2595.00, 
2596.00, 
2597.00, 
2598.00, 
2599.00, 
2600.00, 
