"1cP2 - RawData"
"Wavelength nm.","T%"
200.00,0.005
201.00,0.004
202.00,0.000
203.00,0.004
204.00,0.003
205.00,-0.000
206.00,0.001
207.00,-0.003
208.00,0.002
209.00,0.000
210.00,0.001
211.00,-0.001
212.00,0.002
213.00,0.002
214.00,-0.000
215.00,-0.000
216.00,-0.001
217.00,-0.002
218.00,0.001
219.00,0.000
220.00,0.003
221.00,0.004
222.00,0.001
223.00,-0.001
224.00,0.004
225.00,0.000
226.00,-0.001
227.00,0.003
228.00,0.001
229.00,0.001
230.00,0.002
231.00,0.001
232.00,0.002
233.00,0.001
234.00,0.002
235.00,0.001
236.00,0.001
237.00,0.001
238.00,-0.000
239.00,0.001
240.00,0.001
241.00,-0.001
242.00,-0.000
243.00,0.002
244.00,0.002
245.00,-0.001
246.00,0.001
247.00,0.001
248.00,0.002
249.00,0.002
250.00,0.001
251.00,0.000
252.00,0.001
253.00,0.000
254.00,-0.003
255.00,0.001
256.00,0.000
257.00,-0.001
258.00,0.002
259.00,-0.001
260.00,0.000
261.00,-0.000
262.00,-0.000
263.00,0.001
264.00,-0.000
265.00,0.001
266.00,0.000
267.00,-0.001
268.00,-0.001
269.00,-0.001
270.00,0.002
271.00,0.001
272.00,0.001
273.00,0.001
274.00,-0.001
275.00,0.001
276.00,0.000
277.00,-0.000
278.00,-0.000
279.00,-0.000
280.00,-0.000
281.00,-0.000
282.00,0.001
283.00,0.001
284.00,0.002
285.00,0.000
286.00,-0.001
287.00,0.001
288.00,0.003
289.00,0.001
290.00,-0.001
291.00,-0.000
292.00,0.000
293.00,0.001
294.00,0.000
295.00,0.001
296.00,0.001
297.00,0.000
298.00,0.000
299.00,-0.000
300.00,0.000
301.00,-0.000
302.00,0.003
303.00,0.000
304.00,0.001
305.00,0.004
306.00,0.002
307.00,0.004
308.00,0.009
309.00,0.019
310.00,0.028
311.00,0.045
312.00,0.070
313.00,0.111
314.00,0.166
315.00,0.241
316.00,0.345
317.00,0.494
318.00,0.671
319.00,0.883
320.00,1.201
321.00,1.573
322.00,1.988
323.00,2.534
324.00,3.127
325.00,3.779
326.00,4.486
327.00,5.356
328.00,6.234
329.00,7.201
330.00,8.272
331.00,9.385
332.00,10.514
333.00,11.777
334.00,13.011
335.00,14.357
336.00,15.637
337.00,16.990
338.00,18.322
339.00,19.627
340.00,20.953
341.00,22.305
342.00,23.525
343.00,24.706
344.00,25.900
345.00,27.225
346.00,28.247
347.00,29.140
348.00,30.196
349.00,31.148
350.00,32.120
351.00,32.921
352.00,33.728
353.00,34.489
354.00,35.169
355.00,36.007
356.00,36.468
357.00,37.131
358.00,37.778
359.00,38.414
360.00,38.949
361.00,39.401
362.00,39.857
363.00,40.250
364.00,40.591
365.00,40.873
366.00,41.170
367.00,41.378
368.00,41.664
369.00,41.794
370.00,42.045
371.00,42.175
372.00,42.215
373.00,42.287
374.00,42.394
375.00,42.405
376.00,42.253
377.00,42.225
378.00,42.149
379.00,42.025
380.00,42.121
381.00,42.086
382.00,42.214
383.00,42.363
384.00,42.440
385.00,42.790
386.00,42.747
387.00,43.160
388.00,43.424
389.00,43.570
390.00,43.725
391.00,43.918
392.00,44.063
393.00,44.087
394.00,44.272
395.00,44.401
396.00,44.505
397.00,44.587
398.00,44.622
399.00,44.705
400.00,44.783
401.00,44.848
402.00,44.891
403.00,44.862
404.00,44.868
405.00,44.912
406.00,44.925
407.00,44.846
408.00,44.837
409.00,44.768
410.00,44.694
411.00,44.682
412.00,44.596
413.00,44.639
414.00,44.587
415.00,44.572
416.00,44.654
417.00,44.566
418.00,44.629
419.00,44.778
420.00,44.821
421.00,44.768
422.00,44.739
423.00,44.812
424.00,44.863
425.00,44.871
426.00,44.814
427.00,44.921
428.00,44.912
429.00,44.947
430.00,44.965
431.00,44.962
432.00,44.993
433.00,45.010
434.00,45.050
435.00,45.140
436.00,45.102
437.00,45.104
438.00,45.177
439.00,45.212
440.00,45.201
441.00,45.204
442.00,45.278
443.00,45.304
444.00,45.391
445.00,45.406
446.00,45.502
447.00,45.527
448.00,45.576
449.00,45.681
450.00,45.738
451.00,45.767
452.00,45.794
453.00,45.864
454.00,45.879
455.00,45.976
456.00,46.070
457.00,46.179
458.00,46.083
459.00,46.248
460.00,46.298
461.00,46.417
462.00,46.437
463.00,46.510
464.00,46.614
465.00,46.627
466.00,46.713
467.00,46.798
468.00,46.820
469.00,46.817
470.00,46.852
471.00,46.876
472.00,46.908
473.00,46.837
474.00,46.872
475.00,46.931
476.00,46.886
477.00,46.938
478.00,47.007
479.00,47.104
480.00,47.159
481.00,47.176
482.00,47.316
483.00,47.372
484.00,47.509
485.00,47.549
486.00,47.564
487.00,47.715
488.00,47.651
489.00,47.725
490.00,47.910
491.00,47.929
492.00,48.034
493.00,48.156
494.00,48.288
495.00,48.177
496.00,48.225
497.00,48.231
498.00,48.356
499.00,48.379
500.00,48.386
501.00,48.426
502.00,48.499
503.00,48.616
504.00,48.542
505.00,48.584
506.00,48.690
507.00,48.641
508.00,48.695
509.00,48.845
510.00,48.908
511.00,48.870
512.00,49.019
513.00,49.186
514.00,49.108
515.00,49.243
516.00,49.292
517.00,49.209
518.00,49.416
519.00,49.419
520.00,49.370
521.00,49.466
522.00,49.501
523.00,49.364
524.00,49.442
525.00,49.559
526.00,49.587
527.00,49.601
528.00,49.551
529.00,49.748
530.00,49.842
531.00,49.883
532.00,49.918
533.00,50.010
534.00,50.072
535.00,50.089
536.00,50.069
537.00,50.129
538.00,50.130
539.00,50.083
540.00,50.161
541.00,50.178
542.00,50.107
543.00,50.175
544.00,50.206
545.00,50.256
546.00,50.243
547.00,50.348
548.00,50.426
549.00,50.431
550.00,50.462
551.00,50.544
552.00,50.562
553.00,50.579
554.00,50.598
555.00,50.569
556.00,50.622
557.00,50.681
558.00,50.637
559.00,50.648
560.00,50.759
561.00,50.749
562.00,50.858
563.00,50.840
564.00,50.867
565.00,50.873
566.00,50.860
567.00,50.834
568.00,50.841
569.00,50.932
570.00,50.899
571.00,50.902
572.00,50.856
573.00,50.766
574.00,50.843
575.00,50.789
576.00,50.743
577.00,50.762
578.00,50.893
579.00,50.886
580.00,50.924
581.00,51.109
582.00,51.123
583.00,51.056
584.00,51.098
585.00,51.190
586.00,51.208
587.00,51.148
588.00,51.017
589.00,50.876
590.00,51.218
591.00,51.338
592.00,51.215
593.00,51.187
594.00,51.267
595.00,51.364
596.00,51.341
597.00,51.381
598.00,51.449
599.00,51.434
600.00,51.448
601.00,51.471
602.00,51.355
603.00,51.390
604.00,51.360
605.00,51.442
606.00,51.353
607.00,51.356
608.00,51.469
609.00,51.518
610.00,51.223
611.00,51.410
612.00,51.402
613.00,51.430
614.00,51.447
615.00,51.245
616.00,51.339
617.00,51.478
618.00,51.501
619.00,51.473
620.00,51.450
621.00,51.452
622.00,51.481
623.00,51.479
624.00,51.523
625.00,51.564
626.00,51.473
627.00,51.474
628.00,51.492
629.00,51.466
630.00,51.406
631.00,51.358
632.00,51.520
633.00,51.546
634.00,51.615
635.00,51.674
636.00,51.672
637.00,51.529
638.00,51.549
639.00,51.639
640.00,51.621
641.00,51.573
642.00,51.549
643.00,51.582
644.00,51.593
645.00,51.621
646.00,51.802
647.00,51.636
648.00,51.597
649.00,51.558
650.00,51.441
651.00,51.575
652.00,51.656
653.00,51.547
654.00,51.507
655.00,51.649
656.00,51.844
657.00,51.569
658.00,51.730
659.00,52.071
660.00,51.028
661.00,51.500
662.00,51.587
663.00,51.604
664.00,51.809
665.00,51.940
666.00,51.838
667.00,51.985
668.00,51.313
669.00,51.875
670.00,52.018
671.00,51.805
672.00,51.729
673.00,51.705
674.00,51.795
675.00,51.815
676.00,51.943
677.00,51.968
678.00,51.634
679.00,51.757
680.00,51.827
681.00,51.911
682.00,51.791
683.00,51.735
684.00,51.763
685.00,51.732
686.00,51.572
687.00,51.690
688.00,51.688
689.00,51.551
690.00,51.790
691.00,51.979
692.00,51.633
693.00,51.357
694.00,51.663
695.00,51.764
696.00,51.437
697.00,51.248
698.00,51.687
699.00,51.910
700.00,51.583
701.00,51.524
702.00,51.515
703.00,51.473
704.00,51.659
705.00,51.677
706.00,51.466
707.00,51.508
708.00,51.294
709.00,51.739
710.00,51.966
711.00,51.429
712.00,51.368
713.00,51.521
714.00,51.510
715.00,51.455
716.00,51.259
717.00,51.505
718.00,51.636
719.00,51.378
720.00,51.364
721.00,56.321
722.00,56.213
723.00,56.161
724.00,56.076
725.00,56.005
726.00,55.927
727.00,55.979
728.00,55.824
729.00,55.865
730.00,55.804
731.00,55.752
732.00,55.612
733.00,55.617
734.00,55.529
735.00,55.522
736.00,55.491
737.00,55.434
738.00,55.410
739.00,55.387
740.00,55.313
741.00,55.332
742.00,55.295
743.00,55.257
744.00,55.159
745.00,55.119
746.00,55.027
747.00,54.922
748.00,54.820
749.00,54.954
750.00,54.777
751.00,54.684
752.00,54.685
753.00,54.610
754.00,54.518
755.00,54.549
756.00,54.515
757.00,54.434
758.00,54.449
759.00,54.292
760.00,54.375
761.00,54.287
762.00,54.238
763.00,54.248
764.00,54.121
765.00,54.159
766.00,54.081
767.00,54.065
768.00,54.048
769.00,53.945
770.00,54.059
771.00,53.975
772.00,53.911
773.00,53.894
774.00,53.853
775.00,53.753
776.00,53.719
777.00,53.754
778.00,53.686
779.00,53.704
780.00,53.562
781.00,53.534
782.00,53.599
783.00,53.499
784.00,53.572
785.00,53.422
786.00,53.339
787.00,53.325
788.00,53.349
789.00,53.280
790.00,53.154
791.00,53.164
792.00,53.122
793.00,53.070
794.00,53.146
795.00,53.078
796.00,52.959
797.00,52.860
798.00,53.002
799.00,52.834
800.00,52.776
801.00,52.718
802.00,52.638
803.00,52.644
804.00,52.587
805.00,52.635
806.00,52.519
807.00,52.522
808.00,52.548
809.00,52.495
810.00,52.384
811.00,52.399
812.00,52.449
813.00,52.261
814.00,52.292
815.00,52.301
816.00,52.260
817.00,52.105
818.00,52.124
819.00,52.146
820.00,52.050
821.00,52.000
822.00,52.065
823.00,52.035
824.00,51.989
825.00,51.874
826.00,51.885
827.00,51.979
828.00,51.905
829.00,51.895
830.00,51.746
831.00,54.187
832.00,54.122
833.00,54.076
834.00,54.116
835.00,54.009
836.00,54.004
837.00,54.015
838.00,53.976
839.00,53.943
840.00,53.873
841.00,53.869
842.00,53.838
843.00,53.835
844.00,53.782
845.00,53.715
846.00,53.754
847.00,53.665
848.00,53.653
849.00,53.577
850.00,53.578
851.00,53.451
852.00,53.490
853.00,53.405
854.00,53.360
855.00,53.316
856.00,53.289
857.00,53.274
858.00,53.245
859.00,53.243
860.00,53.087
861.00,53.223
862.00,53.112
863.00,53.122
864.00,53.053
865.00,53.083
866.00,53.047
867.00,53.032
868.00,53.012
869.00,52.975
870.00,52.970
871.00,52.948
872.00,52.962
873.00,52.917
874.00,52.925
875.00,52.883
876.00,52.868
877.00,52.840
878.00,52.856
879.00,52.792
880.00,52.782
881.00,52.748
882.00,52.741
883.00,52.707
884.00,52.635
885.00,52.647
886.00,52.607
887.00,52.574
888.00,52.542
889.00,52.501
890.00,52.532
891.00,52.480
892.00,52.478
893.00,52.408
894.00,52.472
895.00,52.390
896.00,52.378
897.00,52.341
898.00,52.312
899.00,52.327
900.00,52.282
901.00,52.294
902.00,52.304
903.00,52.230
904.00,52.236
905.00,52.229
906.00,52.182
907.00,52.175
908.00,52.127
909.00,52.088
910.00,52.043
911.00,52.058
912.00,52.033
913.00,51.984
914.00,52.008
915.00,51.936
916.00,51.904
917.00,51.905
918.00,51.867
919.00,51.840
920.00,51.821
921.00,51.833
922.00,51.806
923.00,51.780
924.00,51.735
925.00,51.741
926.00,51.711
927.00,51.690
928.00,51.661
929.00,51.644
930.00,51.617
931.00,51.608
932.00,51.587
933.00,51.556
934.00,51.532
935.00,51.515
936.00,51.491
937.00,51.470
938.00,51.456
939.00,51.454
940.00,51.388
941.00,51.408
942.00,51.362
943.00,51.339
944.00,51.300
945.00,51.332
946.00,51.332
947.00,51.274
948.00,51.234
949.00,51.286
950.00,51.233
951.00,51.168
952.00,51.182
953.00,51.139
954.00,51.108
955.00,51.057
956.00,51.043
957.00,50.996
958.00,51.017
959.00,50.941
960.00,50.955
961.00,50.933
962.00,50.916
963.00,50.904
964.00,50.887
965.00,50.858
966.00,50.855
967.00,50.841
968.00,50.822
969.00,50.852
970.00,50.819
971.00,50.840
972.00,50.796
973.00,50.837
974.00,50.864
975.00,50.818
976.00,50.827
977.00,50.808
978.00,50.853
979.00,50.798
980.00,50.820
981.00,50.823
982.00,50.792
983.00,50.801
984.00,50.765
985.00,50.807
986.00,50.746
987.00,50.769
988.00,50.743
989.00,50.722
990.00,50.712
991.00,50.700
992.00,50.716
993.00,50.675
994.00,50.665
995.00,50.701
996.00,50.648
997.00,50.629
998.00,50.588
999.00,50.628
1000.00,50.578
1001.00,50.571
1002.00,50.568
1003.00,50.561
1004.00,50.542
1005.00,50.504
1006.00,50.525
1007.00,50.516
1008.00,50.471
1009.00,50.434
1010.00,50.476
1011.00,50.448
1012.00,50.411
1013.00,50.419
1014.00,50.380
1015.00,50.400
1016.00,50.364
1017.00,50.353
1018.00,50.353
1019.00,50.306
1020.00,50.301
1021.00,50.287
1022.00,50.274
1023.00,50.217
1024.00,50.232
1025.00,50.199
1026.00,50.193
1027.00,50.176
1028.00,50.167
1029.00,50.171
1030.00,50.121
1031.00,50.131
1032.00,50.106
1033.00,50.094
1034.00,50.057
1035.00,50.039
1036.00,50.007
1037.00,49.994
1038.00,49.981
1039.00,49.957
1040.00,49.961
1041.00,49.921
1042.00,49.912
1043.00,49.900
1044.00,49.930
1045.00,49.917
1046.00,49.907
1047.00,49.921
1048.00,49.922
1049.00,49.938
1050.00,49.924
1051.00,49.962
1052.00,49.946
1053.00,49.963
1054.00,49.986
1055.00,49.984
1056.00,49.991
1057.00,50.012
1058.00,49.969
1059.00,49.984
1060.00,50.007
1061.00,49.984
1062.00,49.981
1063.00,49.984
1064.00,49.979
1065.00,49.980
1066.00,49.956
1067.00,49.948
1068.00,49.974
1069.00,49.945
1070.00,49.918
1071.00,49.923
1072.00,49.946
1073.00,49.935
1074.00,49.890
1075.00,49.870
1076.00,49.888
1077.00,49.867
1078.00,49.847
1079.00,49.863
1080.00,49.842
1081.00,49.825
1082.00,49.818
1083.00,49.799
1084.00,49.803
1085.00,49.796
1086.00,49.779
1087.00,49.798
1088.00,49.808
1089.00,49.774
1090.00,49.781
1091.00,49.772
1092.00,49.761
1093.00,49.760
1094.00,49.729
1095.00,49.734
1096.00,49.706
1097.00,49.722
1098.00,49.715
1099.00,49.705
1100.00,49.702
1101.00,49.705
1102.00,49.663
1103.00,49.690
1104.00,49.659
1105.00,49.637
1106.00,49.643
1107.00,49.632
1108.00,49.607
1109.00,49.614
1110.00,49.595
1111.00,49.582
1112.00,49.581
1113.00,49.570
1114.00,49.569
1115.00,49.572
1116.00,49.553
1117.00,49.562
1118.00,49.553
1119.00,49.527
1120.00,49.531
1121.00,49.530
1122.00,49.498
1123.00,49.515
1124.00,49.495
1125.00,49.493
1126.00,49.508
1127.00,49.482
1128.00,49.483
1129.00,49.437
1130.00,49.447
1131.00,49.450
1132.00,49.433
1133.00,49.437
1134.00,49.435
1135.00,49.409
1136.00,49.440
1137.00,49.456
1138.00,49.432
1139.00,49.460
1140.00,49.444
1141.00,49.427
1142.00,49.420
1143.00,49.423
1144.00,49.393
1145.00,49.409
1146.00,49.387
1147.00,49.387
1148.00,49.385
1149.00,49.386
1150.00,49.406
1151.00,49.407
1152.00,49.391
1153.00,49.394
1154.00,49.383
1155.00,49.396
1156.00,49.380
1157.00,49.379
1158.00,49.381
1159.00,49.392
1160.00,49.355
1161.00,49.380
1162.00,49.361
1163.00,49.349
1164.00,49.361
1165.00,49.350
1166.00,49.360
1167.00,49.353
1168.00,49.372
1169.00,49.373
1170.00,49.369
1171.00,49.348
1172.00,49.355
1173.00,49.349
1174.00,49.360
1175.00,49.356
1176.00,49.354
1177.00,49.338
1178.00,49.351
1179.00,49.355
1180.00,49.342
1181.00,49.371
1182.00,49.349
1183.00,49.351
1184.00,49.343
1185.00,49.353
1186.00,49.338
1187.00,49.330
1188.00,49.332
1189.00,49.343
1190.00,49.335
1191.00,49.337
1192.00,49.372
1193.00,49.336
1194.00,49.353
1195.00,49.325
1196.00,49.354
1197.00,49.358
1198.00,49.338
1199.00,49.340
1200.00,49.355
1201.00,49.359
1202.00,49.350
1203.00,49.360
1204.00,49.320
1205.00,49.363
1206.00,49.356
1207.00,49.347
1208.00,49.348
1209.00,49.357
1210.00,49.361
1211.00,49.359
1212.00,49.364
1213.00,49.342
1214.00,49.367
1215.00,49.324
1216.00,49.355
1217.00,49.362
1218.00,49.323
1219.00,49.358
1220.00,49.338
1221.00,49.358
1222.00,49.350
1223.00,49.369
1224.00,49.355
1225.00,49.351
1226.00,49.357
1227.00,49.371
1228.00,49.379
1229.00,49.366
1230.00,49.409
1231.00,49.383
1232.00,49.403
1233.00,49.427
1234.00,49.420
1235.00,49.427
1236.00,49.429
1237.00,49.417
1238.00,49.432
1239.00,49.432
1240.00,49.403
1241.00,49.428
1242.00,49.411
1243.00,49.424
1244.00,49.423
1245.00,49.453
1246.00,49.486
1247.00,49.461
1248.00,49.449
1249.00,49.472
1250.00,49.486
1251.00,49.464
1252.00,49.489
1253.00,49.497
1254.00,49.509
1255.00,49.515
1256.00,49.522
1257.00,49.470
1258.00,49.520
1259.00,49.505
1260.00,49.538
1261.00,49.530
1262.00,49.512
1263.00,49.529
1264.00,49.538
1265.00,49.538
1266.00,49.534
1267.00,49.541
1268.00,49.549
1269.00,49.571
1270.00,49.602
1271.00,49.618
1272.00,49.602
1273.00,49.607
1274.00,49.601
1275.00,49.604
1276.00,49.598
1277.00,49.621
1278.00,49.617
1279.00,49.616
1280.00,49.606
1281.00,49.617
1282.00,49.643
1283.00,49.644
1284.00,49.644
1285.00,49.646
1286.00,49.661
1287.00,49.655
1288.00,49.672
1289.00,49.655
1290.00,49.688
1291.00,49.678
1292.00,49.672
1293.00,49.685
1294.00,49.704
1295.00,49.711
1296.00,49.720
1297.00,49.730
1298.00,49.766
1299.00,49.743
1300.00,49.744
1301.00,49.730
1302.00,49.768
1303.00,49.771
1304.00,49.779
1305.00,49.789
1306.00,49.788
1307.00,49.813
1308.00,49.818
1309.00,49.820
1310.00,49.826
1311.00,49.806
1312.00,49.821
1313.00,49.831
1314.00,49.864
1315.00,49.884
1316.00,49.870
1317.00,49.893
1318.00,49.901
1319.00,49.891
1320.00,49.889
1321.00,50.078
1322.00,50.060
1323.00,50.052
1324.00,50.036
1325.00,50.026
1326.00,50.044
1327.00,50.047
1328.00,50.034
1329.00,50.040
1330.00,50.045
1331.00,50.043
1332.00,50.034
1333.00,50.028
1334.00,50.084
1335.00,50.109
1336.00,50.126
1337.00,50.176
1338.00,50.226
1339.00,50.284
1340.00,50.350
1341.00,50.395
1342.00,50.479
1343.00,50.520
1344.00,50.575
1345.00,50.642
1346.00,50.670
1347.00,50.675
1348.00,50.722
1349.00,50.723
1350.00,50.747
1351.00,50.772
1352.00,50.778
1353.00,50.791
1354.00,50.803
1355.00,50.756
1356.00,50.813
1357.00,50.821
1358.00,50.861
1359.00,50.852
1360.00,50.842
1361.00,50.858
1362.00,50.729
1363.00,50.940
1364.00,50.965
1365.00,50.860
1366.00,50.913
1367.00,50.840
1368.00,50.784
1369.00,50.920
1370.00,50.841
1371.00,50.812
1372.00,50.812
1373.00,50.867
1374.00,50.869
1375.00,50.851
1376.00,50.845
1377.00,50.817
1378.00,50.905
1379.00,50.846
1380.00,50.848
1381.00,50.923
1382.00,50.827
1383.00,50.863
1384.00,50.791
1385.00,50.785
1386.00,50.857
1387.00,50.829
1388.00,50.785
1389.00,50.811
1390.00,50.833
1391.00,50.827
1392.00,50.812
1393.00,50.921
1394.00,50.897
1395.00,50.700
1396.00,50.749
1397.00,50.764
1398.00,50.918
1399.00,50.856
1400.00,50.734
1401.00,50.776
1402.00,50.919
1403.00,50.868
1404.00,50.822
1405.00,50.893
1406.00,50.889
1407.00,50.887
1408.00,50.899
1409.00,50.851
1410.00,50.926
1411.00,50.914
1412.00,50.989
1413.00,50.881
1414.00,50.932
1415.00,50.955
1416.00,50.975
1417.00,51.026
1418.00,50.951
1419.00,50.992
1420.00,51.047
1421.00,51.075
1422.00,51.065
1423.00,51.124
1424.00,51.085
1425.00,51.110
1426.00,51.101
1427.00,51.138
1428.00,51.122
1429.00,51.121
1430.00,51.170
1431.00,51.185
1432.00,51.185
1433.00,51.215
1434.00,51.210
1435.00,51.291
1436.00,51.279
1437.00,51.273
1438.00,51.287
1439.00,51.333
1440.00,51.335
1441.00,51.343
1442.00,51.369
1443.00,51.385
1444.00,51.471
1445.00,51.389
1446.00,51.428
1447.00,51.471
1448.00,51.531
1449.00,51.519
1450.00,51.532
1451.00,51.523
1452.00,51.555
1453.00,51.560
1454.00,51.566
1455.00,51.591
1456.00,51.622
1457.00,51.623
1458.00,51.650
1459.00,51.650
1460.00,51.687
1461.00,51.701
1462.00,51.719
1463.00,51.720
1464.00,51.768
1465.00,51.754
1466.00,51.765
1467.00,51.813
1468.00,51.900
1469.00,51.821
1470.00,51.845
1471.00,51.875
1472.00,51.898
1473.00,51.893
1474.00,51.931
1475.00,51.943
1476.00,51.939
1477.00,51.947
1478.00,51.958
1479.00,51.967
1480.00,51.955
1481.00,52.006
1482.00,52.035
1483.00,52.069
1484.00,52.073
1485.00,52.066
1486.00,52.092
1487.00,52.108
1488.00,52.136
1489.00,52.138
1490.00,52.129
1491.00,52.138
1492.00,52.160
1493.00,52.159
1494.00,52.205
1495.00,52.176
1496.00,52.213
1497.00,52.196
1498.00,52.192
1499.00,52.234
1500.00,52.262
1501.00, 
1502.00, 
1503.00, 
1504.00, 
1505.00, 
1506.00, 
1507.00, 
1508.00, 
1509.00, 
1510.00, 
1511.00, 
1512.00, 
1513.00, 
1514.00, 
1515.00, 
1516.00, 
1517.00, 
1518.00, 
1519.00, 
1520.00, 
1521.00, 
1522.00, 
1523.00, 
1524.00, 
1525.00, 
1526.00, 
1527.00, 
1528.00, 
1529.00, 
1530.00, 
1531.00, 
1532.00, 
1533.00, 
1534.00, 
1535.00, 
1536.00, 
1537.00, 
1538.00, 
1539.00, 
1540.00, 
1541.00, 
1542.00, 
1543.00, 
1544.00, 
1545.00, 
1546.00, 
1547.00, 
1548.00, 
1549.00, 
1550.00, 
1551.00, 
1552.00, 
1553.00, 
1554.00, 
1555.00, 
1556.00, 
1557.00, 
1558.00, 
1559.00, 
1560.00, 
1561.00, 
1562.00, 
1563.00, 
1564.00, 
1565.00, 
1566.00, 
1567.00, 
1568.00, 
1569.00, 
1570.00, 
1571.00, 
1572.00, 
1573.00, 
1574.00, 
1575.00, 
1576.00, 
1577.00, 
1578.00, 
1579.00, 
1580.00, 
1581.00, 
1582.00, 
1583.00, 
1584.00, 
1585.00, 
1586.00, 
1587.00, 
1588.00, 
1589.00, 
1590.00, 
1591.00, 
1592.00, 
1593.00, 
1594.00, 
1595.00, 
1596.00, 
1597.00, 
1598.00, 
1599.00, 
1600.00, 
1601.00, 
1602.00, 
1603.00, 
1604.00, 
1605.00, 
1606.00, 
1607.00, 
1608.00, 
1609.00, 
1610.00, 
1611.00, 
1612.00, 
1613.00, 
1614.00, 
1615.00, 
1616.00, 
1617.00, 
1618.00, 
1619.00, 
1620.00, 
1621.00, 
1622.00, 
1623.00, 
1624.00, 
1625.00, 
1626.00, 
1627.00, 
1628.00, 
1629.00, 
1630.00, 
1631.00, 
1632.00, 
1633.00, 
1634.00, 
1635.00, 
1636.00, 
1637.00, 
1638.00, 
1639.00, 
1640.00, 
1641.00, 
1642.00, 
1643.00, 
1644.00, 
1645.00, 
1646.00, 
1647.00, 
1648.00, 
1649.00, 
1650.00, 
1651.00, 
1652.00, 
1653.00, 
1654.00, 
1655.00, 
1656.00, 
1657.00, 
1658.00, 
1659.00, 
1660.00, 
1661.00, 
1662.00, 
1663.00, 
1664.00, 
1665.00, 
1666.00, 
1667.00, 
1668.00, 
1669.00, 
1670.00, 
1671.00, 
1672.00, 
1673.00, 
1674.00, 
1675.00, 
1676.00, 
1677.00, 
1678.00, 
1679.00, 
1680.00, 
1681.00, 
1682.00, 
1683.00, 
1684.00, 
1685.00, 
1686.00, 
1687.00, 
1688.00, 
1689.00, 
1690.00, 
1691.00, 
1692.00, 
1693.00, 
1694.00, 
1695.00, 
1696.00, 
1697.00, 
1698.00, 
1699.00, 
1700.00, 
1701.00, 
1702.00, 
1703.00, 
1704.00, 
1705.00, 
1706.00, 
1707.00, 
1708.00, 
1709.00, 
1710.00, 
1711.00, 
1712.00, 
1713.00, 
1714.00, 
1715.00, 
1716.00, 
1717.00, 
1718.00, 
1719.00, 
1720.00, 
1721.00, 
1722.00, 
1723.00, 
1724.00, 
1725.00, 
1726.00, 
1727.00, 
1728.00, 
1729.00, 
1730.00, 
1731.00, 
1732.00, 
1733.00, 
1734.00, 
1735.00, 
1736.00, 
1737.00, 
1738.00, 
1739.00, 
1740.00, 
1741.00, 
1742.00, 
1743.00, 
1744.00, 
1745.00, 
1746.00, 
1747.00, 
1748.00, 
1749.00, 
1750.00, 
1751.00, 
1752.00, 
1753.00, 
1754.00, 
1755.00, 
1756.00, 
1757.00, 
1758.00, 
1759.00, 
1760.00, 
1761.00, 
1762.00, 
1763.00, 
1764.00, 
1765.00, 
1766.00, 
1767.00, 
1768.00, 
1769.00, 
1770.00, 
1771.00, 
1772.00, 
1773.00, 
1774.00, 
1775.00, 
1776.00, 
1777.00, 
1778.00, 
1779.00, 
1780.00, 
1781.00, 
1782.00, 
1783.00, 
1784.00, 
1785.00, 
1786.00, 
1787.00, 
1788.00, 
1789.00, 
1790.00, 
1791.00, 
1792.00, 
1793.00, 
1794.00, 
1795.00, 
1796.00, 
1797.00, 
1798.00, 
1799.00, 
1800.00, 
1801.00, 
1802.00, 
1803.00, 
1804.00, 
1805.00, 
1806.00, 
1807.00, 
1808.00, 
1809.00, 
1810.00, 
1811.00, 
1812.00, 
1813.00, 
1814.00, 
1815.00, 
1816.00, 
1817.00, 
1818.00, 
1819.00, 
1820.00, 
1821.00, 
1822.00, 
1823.00, 
1824.00, 
1825.00, 
1826.00, 
1827.00, 
1828.00, 
1829.00, 
1830.00, 
1831.00, 
1832.00, 
1833.00, 
1834.00, 
1835.00, 
1836.00, 
1837.00, 
1838.00, 
1839.00, 
1840.00, 
1841.00, 
1842.00, 
1843.00, 
1844.00, 
1845.00, 
1846.00, 
1847.00, 
1848.00, 
1849.00, 
1850.00, 
1851.00, 
1852.00, 
1853.00, 
1854.00, 
1855.00, 
1856.00, 
1857.00, 
1858.00, 
1859.00, 
1860.00, 
1861.00, 
1862.00, 
1863.00, 
1864.00, 
1865.00, 
1866.00, 
1867.00, 
1868.00, 
1869.00, 
1870.00, 
1871.00, 
1872.00, 
1873.00, 
1874.00, 
1875.00, 
1876.00, 
1877.00, 
1878.00, 
1879.00, 
1880.00, 
1881.00, 
1882.00, 
1883.00, 
1884.00, 
1885.00, 
1886.00, 
1887.00, 
1888.00, 
1889.00, 
1890.00, 
1891.00, 
1892.00, 
1893.00, 
1894.00, 
1895.00, 
1896.00, 
1897.00, 
1898.00, 
1899.00, 
1900.00, 
1901.00, 
1902.00, 
1903.00, 
1904.00, 
1905.00, 
1906.00, 
1907.00, 
1908.00, 
1909.00, 
1910.00, 
1911.00, 
1912.00, 
1913.00, 
1914.00, 
1915.00, 
1916.00, 
1917.00, 
1918.00, 
1919.00, 
1920.00, 
1921.00, 
1922.00, 
1923.00, 
1924.00, 
1925.00, 
1926.00, 
1927.00, 
1928.00, 
1929.00, 
1930.00, 
1931.00, 
1932.00, 
1933.00, 
1934.00, 
1935.00, 
1936.00, 
1937.00, 
1938.00, 
1939.00, 
1940.00, 
1941.00, 
1942.00, 
1943.00, 
1944.00, 
1945.00, 
1946.00, 
1947.00, 
1948.00, 
1949.00, 
1950.00, 
1951.00, 
1952.00, 
1953.00, 
1954.00, 
1955.00, 
1956.00, 
1957.00, 
1958.00, 
1959.00, 
1960.00, 
1961.00, 
1962.00, 
1963.00, 
1964.00, 
1965.00, 
1966.00, 
1967.00, 
1968.00, 
1969.00, 
1970.00, 
1971.00, 
1972.00, 
1973.00, 
1974.00, 
1975.00, 
1976.00, 
1977.00, 
1978.00, 
1979.00, 
1980.00, 
1981.00, 
1982.00, 
1983.00, 
1984.00, 
1985.00, 
1986.00, 
1987.00, 
1988.00, 
1989.00, 
1990.00, 
1991.00, 
1992.00, 
1993.00, 
1994.00, 
1995.00, 
1996.00, 
1997.00, 
1998.00, 
1999.00, 
2000.00, 
2001.00, 
2002.00, 
2003.00, 
2004.00, 
2005.00, 
2006.00, 
2007.00, 
2008.00, 
2009.00, 
2010.00, 
2011.00, 
2012.00, 
2013.00, 
2014.00, 
2015.00, 
2016.00, 
2017.00, 
2018.00, 
2019.00, 
2020.00, 
2021.00, 
2022.00, 
2023.00, 
2024.00, 
2025.00, 
2026.00, 
2027.00, 
2028.00, 
2029.00, 
2030.00, 
2031.00, 
2032.00, 
2033.00, 
2034.00, 
2035.00, 
2036.00, 
2037.00, 
2038.00, 
2039.00, 
2040.00, 
2041.00, 
2042.00, 
2043.00, 
2044.00, 
2045.00, 
2046.00, 
2047.00, 
2048.00, 
2049.00, 
2050.00, 
2051.00, 
2052.00, 
2053.00, 
2054.00, 
2055.00, 
2056.00, 
2057.00, 
2058.00, 
2059.00, 
2060.00, 
2061.00, 
2062.00, 
2063.00, 
2064.00, 
2065.00, 
2066.00, 
2067.00, 
2068.00, 
2069.00, 
2070.00, 
2071.00, 
2072.00, 
2073.00, 
2074.00, 
2075.00, 
2076.00, 
2077.00, 
2078.00, 
2079.00, 
2080.00, 
2081.00, 
2082.00, 
2083.00, 
2084.00, 
2085.00, 
2086.00, 
2087.00, 
2088.00, 
2089.00, 
2090.00, 
2091.00, 
2092.00, 
2093.00, 
2094.00, 
2095.00, 
2096.00, 
2097.00, 
2098.00, 
2099.00, 
2100.00, 
2101.00, 
2102.00, 
2103.00, 
2104.00, 
2105.00, 
2106.00, 
2107.00, 
2108.00, 
2109.00, 
2110.00, 
2111.00, 
2112.00, 
2113.00, 
2114.00, 
2115.00, 
2116.00, 
2117.00, 
2118.00, 
2119.00, 
2120.00, 
2121.00, 
2122.00, 
2123.00, 
2124.00, 
2125.00, 
2126.00, 
2127.00, 
2128.00, 
2129.00, 
2130.00, 
2131.00, 
2132.00, 
2133.00, 
2134.00, 
2135.00, 
2136.00, 
2137.00, 
2138.00, 
2139.00, 
2140.00, 
2141.00, 
2142.00, 
2143.00, 
2144.00, 
2145.00, 
2146.00, 
2147.00, 
2148.00, 
2149.00, 
2150.00, 
2151.00, 
2152.00, 
2153.00, 
2154.00, 
2155.00, 
2156.00, 
2157.00, 
2158.00, 
2159.00, 
2160.00, 
2161.00, 
2162.00, 
2163.00, 
2164.00, 
2165.00, 
2166.00, 
2167.00, 
2168.00, 
2169.00, 
2170.00, 
2171.00, 
2172.00, 
2173.00, 
2174.00, 
2175.00, 
2176.00, 
2177.00, 
2178.00, 
2179.00, 
2180.00, 
2181.00, 
2182.00, 
2183.00, 
2184.00, 
2185.00, 
2186.00, 
2187.00, 
2188.00, 
2189.00, 
2190.00, 
2191.00, 
2192.00, 
2193.00, 
2194.00, 
2195.00, 
2196.00, 
2197.00, 
2198.00, 
2199.00, 
2200.00, 
2201.00, 
2202.00, 
2203.00, 
2204.00, 
2205.00, 
2206.00, 
2207.00, 
2208.00, 
2209.00, 
2210.00, 
2211.00, 
2212.00, 
2213.00, 
2214.00, 
2215.00, 
2216.00, 
2217.00, 
2218.00, 
2219.00, 
2220.00, 
2221.00, 
2222.00, 
2223.00, 
2224.00, 
2225.00, 
2226.00, 
2227.00, 
2228.00, 
2229.00, 
2230.00, 
2231.00, 
2232.00, 
2233.00, 
2234.00, 
2235.00, 
2236.00, 
2237.00, 
2238.00, 
2239.00, 
2240.00, 
2241.00, 
2242.00, 
2243.00, 
2244.00, 
2245.00, 
2246.00, 
2247.00, 
2248.00, 
2249.00, 
2250.00, 
2251.00, 
2252.00, 
2253.00, 
2254.00, 
2255.00, 
2256.00, 
2257.00, 
2258.00, 
2259.00, 
2260.00, 
2261.00, 
2262.00, 
2263.00, 
2264.00, 
2265.00, 
2266.00, 
2267.00, 
2268.00, 
2269.00, 
2270.00, 
2271.00, 
2272.00, 
2273.00, 
2274.00, 
2275.00, 
2276.00, 
2277.00, 
2278.00, 
2279.00, 
2280.00, 
2281.00, 
2282.00, 
2283.00, 
2284.00, 
2285.00, 
2286.00, 
2287.00, 
2288.00, 
2289.00, 
2290.00, 
2291.00, 
2292.00, 
2293.00, 
2294.00, 
2295.00, 
2296.00, 
2297.00, 
2298.00, 
2299.00, 
2300.00, 
2301.00, 
2302.00, 
2303.00, 
2304.00, 
2305.00, 
2306.00, 
2307.00, 
2308.00, 
2309.00, 
2310.00, 
2311.00, 
2312.00, 
2313.00, 
2314.00, 
2315.00, 
2316.00, 
2317.00, 
2318.00, 
2319.00, 
2320.00, 
2321.00, 
2322.00, 
2323.00, 
2324.00, 
2325.00, 
2326.00, 
2327.00, 
2328.00, 
2329.00, 
2330.00, 
2331.00, 
2332.00, 
2333.00, 
2334.00, 
2335.00, 
2336.00, 
2337.00, 
2338.00, 
2339.00, 
2340.00, 
2341.00, 
2342.00, 
2343.00, 
2344.00, 
2345.00, 
2346.00, 
2347.00, 
2348.00, 
2349.00, 
2350.00, 
2351.00, 
2352.00, 
2353.00, 
2354.00, 
2355.00, 
2356.00, 
2357.00, 
2358.00, 
2359.00, 
2360.00, 
2361.00, 
2362.00, 
2363.00, 
2364.00, 
2365.00, 
2366.00, 
2367.00, 
2368.00, 
2369.00, 
2370.00, 
2371.00, 
2372.00, 
2373.00, 
2374.00, 
2375.00, 
2376.00, 
2377.00, 
2378.00, 
2379.00, 
2380.00, 
2381.00, 
2382.00, 
2383.00, 
2384.00, 
2385.00, 
2386.00, 
2387.00, 
2388.00, 
2389.00, 
2390.00, 
2391.00, 
2392.00, 
2393.00, 
2394.00, 
2395.00, 
2396.00, 
2397.00, 
2398.00, 
2399.00, 
2400.00, 
2401.00, 
2402.00, 
2403.00, 
2404.00, 
2405.00, 
2406.00, 
2407.00, 
2408.00, 
2409.00, 
2410.00, 
2411.00, 
2412.00, 
2413.00, 
2414.00, 
2415.00, 
2416.00, 
2417.00, 
2418.00, 
2419.00, 
2420.00, 
2421.00, 
2422.00, 
2423.00, 
2424.00, 
2425.00, 
2426.00, 
2427.00, 
2428.00, 
2429.00, 
2430.00, 
2431.00, 
2432.00, 
2433.00, 
2434.00, 
2435.00, 
2436.00, 
2437.00, 
2438.00, 
2439.00, 
2440.00, 
2441.00, 
2442.00, 
2443.00, 
2444.00, 
2445.00, 
2446.00, 
2447.00, 
2448.00, 
2449.00, 
2450.00, 
2451.00, 
2452.00, 
2453.00, 
2454.00, 
2455.00, 
2456.00, 
2457.00, 
2458.00, 
2459.00, 
2460.00, 
2461.00, 
2462.00, 
2463.00, 
2464.00, 
2465.00, 
2466.00, 
2467.00, 
2468.00, 
2469.00, 
2470.00, 
2471.00, 
2472.00, 
2473.00, 
2474.00, 
2475.00, 
2476.00, 
2477.00, 
2478.00, 
2479.00, 
2480.00, 
2481.00, 
2482.00, 
2483.00, 
2484.00, 
2485.00, 
2486.00, 
2487.00, 
2488.00, 
2489.00, 
2490.00, 
2491.00, 
2492.00, 
2493.00, 
2494.00, 
2495.00, 
2496.00, 
2497.00, 
2498.00, 
2499.00, 
2500.00, 
2501.00, 
2502.00, 
2503.00, 
2504.00, 
2505.00, 
2506.00, 
2507.00, 
2508.00, 
2509.00, 
2510.00, 
2511.00, 
2512.00, 
2513.00, 
2514.00, 
2515.00, 
2516.00, 
2517.00, 
2518.00, 
2519.00, 
2520.00, 
2521.00, 
2522.00, 
2523.00, 
2524.00, 
2525.00, 
2526.00, 
2527.00, 
2528.00, 
2529.00, 
2530.00, 
2531.00, 
2532.00, 
2533.00, 
2534.00, 
2535.00, 
2536.00, 
2537.00, 
2538.00, 
2539.00, 
2540.00, 
2541.00, 
2542.00, 
2543.00, 
2544.00, 
2545.00, 
2546.00, 
2547.00, 
2548.00, 
2549.00, 
2550.00, 
2551.00, 
2552.00, 
2553.00, 
2554.00, 
2555.00, 
2556.00, 
2557.00, 
2558.00, 
2559.00, 
2560.00, 
2561.00, 
2562.00, 
2563.00, 
2564.00, 
2565.00, 
2566.00, 
2567.00, 
2568.00, 
2569.00, 
2570.00, 
2571.00, 
2572.00, 
2573.00, 
2574.00, 
2575.00, 
2576.00, 
2577.00, 
2578.00, 
2579.00, 
2580.00, 
2581.00, 
2582.00, 
2583.00, 
2584.00, 
2585.00, 
2586.00, 
2587.00, 
2588.00, 
2589.00, 
2590.00, 
2591.00, 
2592.00, 
2593.00, 
2594.00, 
2595.00, 
2596.00, 
2597.00, 
2598.00, 
2599.00, 
2600.00, 
