"1cP4 - RawData"
"Wavelength nm.","T%"
200.00,0.002
201.00,-0.002
202.00,0.004
203.00,0.002
204.00,-0.000
205.00,-0.003
206.00,0.003
207.00,0.000
208.00,-0.001
209.00,0.002
210.00,0.000
211.00,0.000
212.00,0.003
213.00,0.000
214.00,0.000
215.00,0.002
216.00,0.002
217.00,-0.001
218.00,0.002
219.00,0.000
220.00,-0.002
221.00,0.002
222.00,0.000
223.00,0.002
224.00,0.002
225.00,0.001
226.00,0.000
227.00,-0.001
228.00,0.003
229.00,-0.000
230.00,-0.000
231.00,0.002
232.00,-0.001
233.00,0.001
234.00,0.001
235.00,0.002
236.00,0.002
237.00,-0.001
238.00,-0.000
239.00,0.001
240.00,0.001
241.00,0.001
242.00,0.002
243.00,0.001
244.00,0.000
245.00,-0.000
246.00,0.001
247.00,-0.000
248.00,-0.000
249.00,-0.001
250.00,-0.001
251.00,-0.000
252.00,-0.001
253.00,-0.001
254.00,0.001
255.00,-0.001
256.00,0.002
257.00,0.001
258.00,-0.000
259.00,-0.001
260.00,0.002
261.00,0.000
262.00,0.001
263.00,-0.001
264.00,0.002
265.00,0.001
266.00,0.001
267.00,-0.000
268.00,-0.001
269.00,0.001
270.00,-0.000
271.00,0.001
272.00,0.000
273.00,-0.001
274.00,-0.001
275.00,0.001
276.00,0.001
277.00,0.001
278.00,0.003
279.00,-0.001
280.00,-0.000
281.00,0.002
282.00,-0.002
283.00,0.001
284.00,-0.002
285.00,-0.000
286.00,-0.001
287.00,0.001
288.00,0.001
289.00,-0.001
290.00,0.002
291.00,-0.002
292.00,-0.002
293.00,0.003
294.00,0.001
295.00,0.001
296.00,-0.001
297.00,0.001
298.00,0.001
299.00,0.000
300.00,-0.000
301.00,-0.001
302.00,0.001
303.00,0.001
304.00,0.002
305.00,0.002
306.00,0.000
307.00,0.001
308.00,0.005
309.00,0.012
310.00,0.017
311.00,0.026
312.00,0.049
313.00,0.067
314.00,0.101
315.00,0.140
316.00,0.213
317.00,0.300
318.00,0.416
319.00,0.560
320.00,0.741
321.00,0.959
322.00,1.217
323.00,1.553
324.00,1.898
325.00,2.291
326.00,2.724
327.00,3.236
328.00,3.783
329.00,4.345
330.00,4.994
331.00,5.622
332.00,6.308
333.00,7.062
334.00,7.791
335.00,8.596
336.00,9.257
337.00,10.156
338.00,10.935
339.00,11.666
340.00,12.445
341.00,13.215
342.00,13.793
343.00,14.625
344.00,15.306
345.00,16.053
346.00,16.597
347.00,17.170
348.00,17.722
349.00,18.280
350.00,18.835
351.00,19.260
352.00,19.669
353.00,20.074
354.00,20.483
355.00,20.874
356.00,21.181
357.00,21.498
358.00,21.799
359.00,22.125
360.00,22.416
361.00,22.595
362.00,22.857
363.00,23.065
364.00,23.198
365.00,23.301
366.00,23.429
367.00,23.564
368.00,23.642
369.00,23.699
370.00,23.744
371.00,23.809
372.00,23.788
373.00,23.730
374.00,23.768
375.00,23.758
376.00,23.614
377.00,23.554
378.00,23.417
379.00,23.384
380.00,23.364
381.00,23.348
382.00,23.384
383.00,23.410
384.00,23.458
385.00,23.500
386.00,23.561
387.00,23.617
388.00,23.780
389.00,23.815
390.00,23.903
391.00,23.895
392.00,23.973
393.00,23.982
394.00,24.066
395.00,24.084
396.00,24.133
397.00,24.152
398.00,24.168
399.00,24.192
400.00,24.185
401.00,24.201
402.00,24.183
403.00,24.174
404.00,24.140
405.00,24.103
406.00,24.129
407.00,24.096
408.00,24.115
409.00,24.035
410.00,23.980
411.00,23.982
412.00,23.924
413.00,23.978
414.00,23.957
415.00,23.954
416.00,24.025
417.00,23.958
418.00,23.999
419.00,24.091
420.00,24.130
421.00,24.142
422.00,24.145
423.00,24.221
424.00,24.276
425.00,24.299
426.00,24.277
427.00,24.366
428.00,24.409
429.00,24.412
430.00,24.488
431.00,24.494
432.00,24.577
433.00,24.618
434.00,24.704
435.00,24.750
436.00,24.782
437.00,24.881
438.00,24.978
439.00,24.998
440.00,25.096
441.00,25.161
442.00,25.226
443.00,25.348
444.00,25.422
445.00,25.525
446.00,25.589
447.00,25.694
448.00,25.822
449.00,25.881
450.00,26.010
451.00,26.115
452.00,26.148
453.00,26.344
454.00,26.424
455.00,26.554
456.00,26.705
457.00,26.803
458.00,26.870
459.00,27.022
460.00,27.165
461.00,27.312
462.00,27.419
463.00,27.588
464.00,27.699
465.00,27.812
466.00,27.955
467.00,28.087
468.00,28.175
469.00,28.282
470.00,28.363
471.00,28.481
472.00,28.602
473.00,28.701
474.00,28.779
475.00,28.941
476.00,29.025
477.00,29.115
478.00,29.270
479.00,29.448
480.00,29.498
481.00,29.691
482.00,29.757
483.00,30.012
484.00,30.138
485.00,30.285
486.00,30.390
487.00,30.574
488.00,30.695
489.00,30.883
490.00,31.050
491.00,31.180
492.00,31.284
493.00,31.477
494.00,31.654
495.00,31.675
496.00,31.814
497.00,31.835
498.00,32.003
499.00,32.167
500.00,32.267
501.00,32.353
502.00,32.575
503.00,32.658
504.00,32.601
505.00,32.847
506.00,33.015
507.00,33.056
508.00,33.124
509.00,33.326
510.00,33.457
511.00,33.519
512.00,33.643
513.00,33.852
514.00,33.951
515.00,34.052
516.00,34.167
517.00,34.234
518.00,34.371
519.00,34.444
520.00,34.511
521.00,34.634
522.00,34.579
523.00,34.701
524.00,34.853
525.00,34.995
526.00,35.049
527.00,35.074
528.00,35.159
529.00,35.347
530.00,35.488
531.00,35.625
532.00,35.616
533.00,35.784
534.00,35.833
535.00,35.899
536.00,35.983
537.00,36.043
538.00,36.155
539.00,36.167
540.00,36.270
541.00,36.324
542.00,36.367
543.00,36.390
544.00,36.451
545.00,36.538
546.00,36.531
547.00,36.632
548.00,36.813
549.00,36.825
550.00,36.828
551.00,36.959
552.00,37.111
553.00,37.057
554.00,37.197
555.00,37.211
556.00,37.293
557.00,37.357
558.00,37.421
559.00,37.453
560.00,37.534
561.00,37.613
562.00,37.656
563.00,37.680
564.00,37.739
565.00,37.677
566.00,37.697
567.00,37.817
568.00,37.775
569.00,37.922
570.00,37.974
571.00,38.037
572.00,37.992
573.00,37.976
574.00,38.054
575.00,38.022
576.00,38.031
577.00,38.071
578.00,38.228
579.00,38.236
580.00,38.259
581.00,38.445
582.00,38.505
583.00,38.462
584.00,38.621
585.00,38.671
586.00,38.660
587.00,38.776
588.00,38.770
589.00,38.701
590.00,38.806
591.00,38.848
592.00,38.792
593.00,38.837
594.00,38.990
595.00,39.051
596.00,38.993
597.00,39.133
598.00,39.191
599.00,39.160
600.00,39.229
601.00,39.307
602.00,39.280
603.00,39.358
604.00,39.414
605.00,39.470
606.00,39.410
607.00,39.445
608.00,39.613
609.00,39.704
610.00,39.530
611.00,39.666
612.00,39.700
613.00,39.731
614.00,39.833
615.00,39.884
616.00,39.964
617.00,39.965
618.00,39.937
619.00,40.054
620.00,40.045
621.00,40.078
622.00,40.177
623.00,40.253
624.00,40.356
625.00,40.393
626.00,40.418
627.00,40.519
628.00,40.517
629.00,40.555
630.00,40.601
631.00,40.583
632.00,40.717
633.00,40.751
634.00,40.858
635.00,41.017
636.00,41.009
637.00,41.062
638.00,41.054
639.00,41.314
640.00,41.322
641.00,41.305
642.00,41.404
643.00,41.454
644.00,41.526
645.00,41.606
646.00,41.742
647.00,41.777
648.00,41.876
649.00,41.812
650.00,41.891
651.00,42.018
652.00,42.112
653.00,42.105
654.00,42.129
655.00,42.367
656.00,42.621
657.00,42.402
658.00,42.602
659.00,42.810
660.00,42.731
661.00,42.715
662.00,42.801
663.00,42.876
664.00,43.181
665.00,43.338
666.00,43.225
667.00,43.463
668.00,42.969
669.00,43.668
670.00,43.857
671.00,43.670
672.00,43.500
673.00,43.801
674.00,43.943
675.00,44.019
676.00,44.223
677.00,44.352
678.00,44.137
679.00,44.306
680.00,44.387
681.00,44.582
682.00,44.531
683.00,44.541
684.00,44.827
685.00,44.859
686.00,44.614
687.00,44.811
688.00,44.935
689.00,44.909
690.00,45.200
691.00,45.432
692.00,45.006
693.00,45.180
694.00,45.606
695.00,45.511
696.00,45.532
697.00,45.639
698.00,45.630
699.00,45.940
700.00,45.917
701.00,45.945
702.00,46.071
703.00,46.186
704.00,46.233
705.00,46.165
706.00,46.293
707.00,46.266
708.00,46.238
709.00,46.581
710.00,46.930
711.00,46.448
712.00,46.529
713.00,46.688
714.00,46.669
715.00,46.559
716.00,46.813
717.00,47.160
718.00,47.032
719.00,46.988
720.00,47.150
721.00,51.658
722.00,51.611
723.00,51.631
724.00,51.643
725.00,51.674
726.00,51.683
727.00,51.769
728.00,51.715
729.00,51.718
730.00,51.730
731.00,51.778
732.00,51.772
733.00,51.782
734.00,51.797
735.00,51.907
736.00,51.849
737.00,51.906
738.00,51.988
739.00,51.991
740.00,51.922
741.00,51.988
742.00,52.007
743.00,52.063
744.00,52.087
745.00,52.063
746.00,52.080
747.00,51.911
748.00,51.961
749.00,52.070
750.00,52.005
751.00,51.944
752.00,51.985
753.00,52.038
754.00,51.972
755.00,51.890
756.00,52.047
757.00,51.980
758.00,51.997
759.00,51.972
760.00,52.146
761.00,52.044
762.00,51.962
763.00,52.043
764.00,52.016
765.00,52.022
766.00,52.012
767.00,51.998
768.00,52.035
769.00,52.016
770.00,52.168
771.00,52.104
772.00,52.143
773.00,52.108
774.00,52.169
775.00,52.109
776.00,52.086
777.00,52.142
778.00,52.078
779.00,52.021
780.00,52.099
781.00,51.984
782.00,52.057
783.00,51.997
784.00,52.060
785.00,51.969
786.00,51.969
787.00,51.943
788.00,51.979
789.00,51.992
790.00,51.863
791.00,51.964
792.00,51.904
793.00,51.898
794.00,51.961
795.00,51.853
796.00,51.845
797.00,51.791
798.00,51.801
799.00,51.805
800.00,51.787
801.00,51.790
802.00,51.854
803.00,51.745
804.00,51.687
805.00,51.835
806.00,51.701
807.00,51.630
808.00,51.645
809.00,51.686
810.00,51.592
811.00,51.583
812.00,51.656
813.00,51.561
814.00,51.588
815.00,51.522
816.00,51.496
817.00,51.489
818.00,51.465
819.00,51.485
820.00,51.463
821.00,51.420
822.00,51.455
823.00,51.370
824.00,51.439
825.00,51.311
826.00,51.252
827.00,51.415
828.00,51.342
829.00,51.368
830.00,51.255
831.00,53.653
832.00,53.579
833.00,53.572
834.00,53.540
835.00,53.531
836.00,53.530
837.00,53.475
838.00,53.496
839.00,53.430
840.00,53.417
841.00,53.457
842.00,53.417
843.00,53.444
844.00,53.415
845.00,53.328
846.00,53.367
847.00,53.306
848.00,53.275
849.00,53.229
850.00,53.223
851.00,53.163
852.00,53.189
853.00,53.103
854.00,53.071
855.00,53.036
856.00,52.998
857.00,52.978
858.00,52.989
859.00,53.004
860.00,52.859
861.00,52.971
862.00,52.899
863.00,52.911
864.00,52.892
865.00,52.896
866.00,52.862
867.00,52.859
868.00,52.849
869.00,52.810
870.00,52.823
871.00,52.805
872.00,52.797
873.00,52.765
874.00,52.775
875.00,52.747
876.00,52.742
877.00,52.714
878.00,52.765
879.00,52.678
880.00,52.675
881.00,52.682
882.00,52.722
883.00,52.687
884.00,52.535
885.00,52.652
886.00,52.693
887.00,52.546
888.00,52.504
889.00,52.487
890.00,52.486
891.00,52.465
892.00,52.439
893.00,52.425
894.00,52.432
895.00,52.391
896.00,52.359
897.00,52.359
898.00,52.342
899.00,52.374
900.00,52.308
901.00,52.287
902.00,52.288
903.00,52.227
904.00,52.238
905.00,52.244
906.00,52.211
907.00,52.203
908.00,52.157
909.00,52.156
910.00,52.103
911.00,52.122
912.00,52.100
913.00,52.062
914.00,52.069
915.00,52.030
916.00,52.009
917.00,51.984
918.00,51.964
919.00,51.940
920.00,51.891
921.00,51.897
922.00,51.905
923.00,51.906
924.00,51.809
925.00,51.810
926.00,51.970
927.00,51.804
928.00,51.749
929.00,51.764
930.00,51.753
931.00,51.721
932.00,51.716
933.00,51.685
934.00,51.677
935.00,51.642
936.00,51.628
937.00,51.633
938.00,51.596
939.00,51.599
940.00,51.536
941.00,51.569
942.00,51.517
943.00,51.503
944.00,51.458
945.00,51.461
946.00,51.459
947.00,51.419
948.00,51.401
949.00,51.384
950.00,51.380
951.00,51.324
952.00,51.330
953.00,51.282
954.00,51.279
955.00,51.229
956.00,51.206
957.00,51.164
958.00,51.195
959.00,51.139
960.00,51.140
961.00,51.140
962.00,51.109
963.00,51.052
964.00,51.104
965.00,51.068
966.00,51.060
967.00,51.036
968.00,51.031
969.00,51.047
970.00,50.998
971.00,51.059
972.00,50.994
973.00,51.035
974.00,51.055
975.00,50.995
976.00,51.024
977.00,51.023
978.00,51.056
979.00,51.011
980.00,51.035
981.00,51.028
982.00,50.989
983.00,50.994
984.00,51.031
985.00,51.002
986.00,50.951
987.00,50.983
988.00,50.951
989.00,50.926
990.00,50.930
991.00,50.913
992.00,50.929
993.00,50.907
994.00,50.884
995.00,50.855
996.00,50.845
997.00,50.837
998.00,50.815
999.00,50.840
1000.00,50.787
1001.00,50.789
1002.00,50.784
1003.00,50.786
1004.00,50.772
1005.00,50.741
1006.00,50.770
1007.00,50.743
1008.00,50.722
1009.00,50.698
1010.00,50.693
1011.00,50.689
1012.00,50.658
1013.00,50.662
1014.00,50.622
1015.00,50.649
1016.00,50.593
1017.00,50.581
1018.00,50.584
1019.00,50.542
1020.00,50.541
1021.00,50.520
1022.00,50.505
1023.00,50.482
1024.00,50.499
1025.00,50.468
1026.00,50.479
1027.00,50.446
1028.00,50.436
1029.00,50.418
1030.00,50.386
1031.00,50.406
1032.00,50.365
1033.00,50.353
1034.00,50.324
1035.00,50.295
1036.00,50.260
1037.00,50.258
1038.00,50.222
1039.00,50.198
1040.00,50.203
1041.00,50.162
1042.00,50.155
1043.00,50.140
1044.00,50.177
1045.00,50.159
1046.00,50.151
1047.00,50.167
1048.00,50.169
1049.00,50.175
1050.00,50.168
1051.00,50.217
1052.00,50.192
1053.00,50.209
1054.00,50.214
1055.00,50.226
1056.00,50.246
1057.00,50.261
1058.00,50.239
1059.00,50.258
1060.00,50.262
1061.00,50.239
1062.00,50.242
1063.00,50.284
1064.00,50.251
1065.00,50.240
1066.00,50.211
1067.00,50.225
1068.00,50.241
1069.00,50.189
1070.00,50.188
1071.00,50.171
1072.00,50.187
1073.00,50.181
1074.00,50.170
1075.00,50.149
1076.00,50.146
1077.00,50.132
1078.00,50.114
1079.00,50.123
1080.00,50.105
1081.00,50.093
1082.00,50.084
1083.00,50.072
1084.00,50.080
1085.00,50.069
1086.00,50.067
1087.00,50.074
1088.00,50.062
1089.00,50.052
1090.00,50.043
1091.00,50.038
1092.00,50.031
1093.00,50.016
1094.00,49.992
1095.00,49.994
1096.00,49.975
1097.00,49.971
1098.00,49.981
1099.00,49.956
1100.00,49.935
1101.00,49.946
1102.00,49.914
1103.00,49.933
1104.00,49.905
1105.00,49.891
1106.00,49.897
1107.00,49.894
1108.00,49.887
1109.00,49.912
1110.00,49.877
1111.00,49.863
1112.00,49.849
1113.00,49.837
1114.00,49.846
1115.00,49.838
1116.00,49.828
1117.00,49.835
1118.00,49.804
1119.00,49.805
1120.00,49.808
1121.00,49.808
1122.00,49.787
1123.00,49.788
1124.00,49.802
1125.00,49.789
1126.00,49.788
1127.00,49.778
1128.00,49.772
1129.00,49.725
1130.00,49.732
1131.00,49.753
1132.00,49.735
1133.00,49.726
1134.00,49.702
1135.00,49.681
1136.00,49.708
1137.00,49.703
1138.00,49.685
1139.00,49.711
1140.00,49.698
1141.00,49.685
1142.00,49.680
1143.00,49.703
1144.00,49.658
1145.00,49.663
1146.00,49.650
1147.00,49.653
1148.00,49.647
1149.00,49.654
1150.00,49.680
1151.00,49.673
1152.00,49.655
1153.00,49.662
1154.00,49.644
1155.00,49.655
1156.00,49.650
1157.00,49.660
1158.00,49.660
1159.00,49.662
1160.00,49.642
1161.00,49.662
1162.00,49.643
1163.00,49.638
1164.00,49.661
1165.00,49.638
1166.00,49.639
1167.00,49.650
1168.00,49.658
1169.00,49.662
1170.00,49.660
1171.00,49.622
1172.00,49.626
1173.00,49.616
1174.00,49.627
1175.00,49.632
1176.00,49.626
1177.00,49.615
1178.00,49.616
1179.00,49.617
1180.00,49.625
1181.00,49.634
1182.00,49.646
1183.00,49.646
1184.00,49.630
1185.00,49.658
1186.00,49.627
1187.00,49.621
1188.00,49.631
1189.00,49.632
1190.00,49.616
1191.00,49.613
1192.00,49.635
1193.00,49.603
1194.00,49.621
1195.00,49.581
1196.00,49.621
1197.00,49.637
1198.00,49.613
1199.00,49.630
1200.00,49.623
1201.00,49.640
1202.00,49.634
1203.00,49.626
1204.00,49.603
1205.00,49.633
1206.00,49.619
1207.00,49.623
1208.00,49.624
1209.00,49.623
1210.00,49.621
1211.00,49.617
1212.00,49.630
1213.00,49.614
1214.00,49.637
1215.00,49.600
1216.00,49.620
1217.00,49.627
1218.00,49.600
1219.00,49.617
1220.00,49.590
1221.00,49.617
1222.00,49.605
1223.00,49.632
1224.00,49.630
1225.00,49.612
1226.00,49.618
1227.00,49.633
1228.00,49.647
1229.00,49.633
1230.00,49.677
1231.00,49.659
1232.00,49.693
1233.00,49.705
1234.00,49.699
1235.00,49.708
1236.00,49.694
1237.00,49.687
1238.00,49.684
1239.00,49.680
1240.00,49.665
1241.00,49.680
1242.00,49.679
1243.00,49.689
1244.00,49.693
1245.00,49.725
1246.00,49.741
1247.00,49.711
1248.00,49.702
1249.00,49.734
1250.00,49.737
1251.00,49.710
1252.00,49.723
1253.00,49.719
1254.00,49.765
1255.00,49.752
1256.00,49.725
1257.00,49.727
1258.00,49.764
1259.00,49.754
1260.00,49.798
1261.00,49.782
1262.00,49.771
1263.00,49.777
1264.00,49.786
1265.00,49.802
1266.00,49.804
1267.00,49.825
1268.00,49.844
1269.00,49.832
1270.00,49.841
1271.00,49.853
1272.00,49.843
1273.00,49.859
1274.00,49.851
1275.00,49.851
1276.00,49.846
1277.00,49.865
1278.00,49.878
1279.00,49.902
1280.00,49.882
1281.00,49.897
1282.00,49.916
1283.00,49.903
1284.00,49.909
1285.00,49.903
1286.00,49.923
1287.00,49.915
1288.00,49.926
1289.00,49.913
1290.00,49.963
1291.00,49.943
1292.00,49.931
1293.00,49.956
1294.00,49.960
1295.00,49.974
1296.00,49.980
1297.00,49.981
1298.00,50.022
1299.00,49.992
1300.00,50.013
1301.00,50.004
1302.00,50.023
1303.00,50.022
1304.00,50.022
1305.00,50.048
1306.00,50.057
1307.00,50.068
1308.00,50.053
1309.00,50.066
1310.00,50.061
1311.00,50.047
1312.00,50.075
1313.00,50.080
1314.00,50.103
1315.00,50.116
1316.00,50.097
1317.00,50.129
1318.00,50.135
1319.00,50.134
1320.00,50.144
1321.00,50.330
1322.00,50.304
1323.00,50.311
1324.00,50.300
1325.00,50.289
1326.00,50.323
1327.00,50.282
1328.00,50.311
1329.00,50.283
1330.00,50.284
1331.00,50.300
1332.00,50.290
1333.00,50.330
1334.00,50.361
1335.00,50.363
1336.00,50.426
1337.00,50.433
1338.00,50.481
1339.00,50.549
1340.00,50.617
1341.00,50.663
1342.00,50.746
1343.00,50.791
1344.00,50.833
1345.00,50.902
1346.00,50.927
1347.00,50.950
1348.00,50.986
1349.00,50.972
1350.00,51.037
1351.00,51.014
1352.00,51.018
1353.00,51.028
1354.00,51.065
1355.00,51.011
1356.00,51.060
1357.00,51.067
1358.00,51.129
1359.00,51.067
1360.00,51.072
1361.00,51.130
1362.00,50.977
1363.00,51.131
1364.00,51.200
1365.00,51.115
1366.00,51.217
1367.00,51.140
1368.00,51.051
1369.00,51.215
1370.00,51.057
1371.00,50.977
1372.00,51.057
1373.00,51.116
1374.00,51.104
1375.00,51.086
1376.00,51.084
1377.00,51.039
1378.00,51.085
1379.00,51.102
1380.00,51.095
1381.00,51.257
1382.00,51.137
1383.00,51.143
1384.00,51.065
1385.00,51.004
1386.00,51.103
1387.00,51.079
1388.00,51.048
1389.00,51.013
1390.00,51.153
1391.00,50.986
1392.00,51.062
1393.00,51.065
1394.00,51.155
1395.00,50.993
1396.00,51.082
1397.00,50.976
1398.00,51.155
1399.00,51.137
1400.00,51.016
1401.00,51.009
1402.00,51.158
1403.00,51.122
1404.00,51.093
1405.00,51.165
1406.00,51.160
1407.00,51.124
1408.00,51.165
1409.00,51.120
1410.00,51.215
1411.00,51.046
1412.00,51.400
1413.00,51.163
1414.00,51.186
1415.00,51.202
1416.00,51.248
1417.00,51.292
1418.00,51.208
1419.00,51.261
1420.00,51.272
1421.00,51.293
1422.00,51.305
1423.00,51.307
1424.00,51.316
1425.00,51.361
1426.00,51.365
1427.00,51.406
1428.00,51.387
1429.00,51.395
1430.00,51.445
1431.00,51.435
1432.00,51.455
1433.00,51.490
1434.00,51.462
1435.00,51.550
1436.00,51.569
1437.00,51.520
1438.00,51.541
1439.00,51.597
1440.00,51.571
1441.00,51.598
1442.00,51.633
1443.00,51.632
1444.00,51.731
1445.00,51.653
1446.00,51.678
1447.00,51.732
1448.00,51.755
1449.00,51.765
1450.00,51.766
1451.00,51.761
1452.00,51.802
1453.00,51.815
1454.00,51.833
1455.00,51.866
1456.00,51.892
1457.00,51.888
1458.00,51.932
1459.00,51.921
1460.00,51.967
1461.00,51.965
1462.00,51.983
1463.00,51.997
1464.00,52.011
1465.00,52.010
1466.00,52.029
1467.00,52.060
1468.00,52.123
1469.00,52.089
1470.00,52.110
1471.00,52.131
1472.00,52.147
1473.00,52.140
1474.00,52.187
1475.00,52.195
1476.00,52.203
1477.00,52.216
1478.00,52.236
1479.00,52.249
1480.00,52.255
1481.00,52.258
1482.00,52.307
1483.00,52.327
1484.00,52.319
1485.00,52.323
1486.00,52.346
1487.00,52.362
1488.00,52.401
1489.00,52.383
1490.00,52.397
1491.00,52.429
1492.00,52.426
1493.00,52.418
1494.00,52.469
1495.00,52.430
1496.00,52.491
1497.00,52.473
1498.00,52.475
1499.00,52.499
1500.00,52.503
1501.00, 
1502.00, 
1503.00, 
1504.00, 
1505.00, 
1506.00, 
1507.00, 
1508.00, 
1509.00, 
1510.00, 
1511.00, 
1512.00, 
1513.00, 
1514.00, 
1515.00, 
1516.00, 
1517.00, 
1518.00, 
1519.00, 
1520.00, 
1521.00, 
1522.00, 
1523.00, 
1524.00, 
1525.00, 
1526.00, 
1527.00, 
1528.00, 
1529.00, 
1530.00, 
1531.00, 
1532.00, 
1533.00, 
1534.00, 
1535.00, 
1536.00, 
1537.00, 
1538.00, 
1539.00, 
1540.00, 
1541.00, 
1542.00, 
1543.00, 
1544.00, 
1545.00, 
1546.00, 
1547.00, 
1548.00, 
1549.00, 
1550.00, 
1551.00, 
1552.00, 
1553.00, 
1554.00, 
1555.00, 
1556.00, 
1557.00, 
1558.00, 
1559.00, 
1560.00, 
1561.00, 
1562.00, 
1563.00, 
1564.00, 
1565.00, 
1566.00, 
1567.00, 
1568.00, 
1569.00, 
1570.00, 
1571.00, 
1572.00, 
1573.00, 
1574.00, 
1575.00, 
1576.00, 
1577.00, 
1578.00, 
1579.00, 
1580.00, 
1581.00, 
1582.00, 
1583.00, 
1584.00, 
1585.00, 
1586.00, 
1587.00, 
1588.00, 
1589.00, 
1590.00, 
1591.00, 
1592.00, 
1593.00, 
1594.00, 
1595.00, 
1596.00, 
1597.00, 
1598.00, 
1599.00, 
1600.00, 
1601.00, 
1602.00, 
1603.00, 
1604.00, 
1605.00, 
1606.00, 
1607.00, 
1608.00, 
1609.00, 
1610.00, 
1611.00, 
1612.00, 
1613.00, 
1614.00, 
1615.00, 
1616.00, 
1617.00, 
1618.00, 
1619.00, 
1620.00, 
1621.00, 
1622.00, 
1623.00, 
1624.00, 
1625.00, 
1626.00, 
1627.00, 
1628.00, 
1629.00, 
1630.00, 
1631.00, 
1632.00, 
1633.00, 
1634.00, 
1635.00, 
1636.00, 
1637.00, 
1638.00, 
1639.00, 
1640.00, 
1641.00, 
1642.00, 
1643.00, 
1644.00, 
1645.00, 
1646.00, 
1647.00, 
1648.00, 
1649.00, 
1650.00, 
1651.00, 
1652.00, 
1653.00, 
1654.00, 
1655.00, 
1656.00, 
1657.00, 
1658.00, 
1659.00, 
1660.00, 
1661.00, 
1662.00, 
1663.00, 
1664.00, 
1665.00, 
1666.00, 
1667.00, 
1668.00, 
1669.00, 
1670.00, 
1671.00, 
1672.00, 
1673.00, 
1674.00, 
1675.00, 
1676.00, 
1677.00, 
1678.00, 
1679.00, 
1680.00, 
1681.00, 
1682.00, 
1683.00, 
1684.00, 
1685.00, 
1686.00, 
1687.00, 
1688.00, 
1689.00, 
1690.00, 
1691.00, 
1692.00, 
1693.00, 
1694.00, 
1695.00, 
1696.00, 
1697.00, 
1698.00, 
1699.00, 
1700.00, 
1701.00, 
1702.00, 
1703.00, 
1704.00, 
1705.00, 
1706.00, 
1707.00, 
1708.00, 
1709.00, 
1710.00, 
1711.00, 
1712.00, 
1713.00, 
1714.00, 
1715.00, 
1716.00, 
1717.00, 
1718.00, 
1719.00, 
1720.00, 
1721.00, 
1722.00, 
1723.00, 
1724.00, 
1725.00, 
1726.00, 
1727.00, 
1728.00, 
1729.00, 
1730.00, 
1731.00, 
1732.00, 
1733.00, 
1734.00, 
1735.00, 
1736.00, 
1737.00, 
1738.00, 
1739.00, 
1740.00, 
1741.00, 
1742.00, 
1743.00, 
1744.00, 
1745.00, 
1746.00, 
1747.00, 
1748.00, 
1749.00, 
1750.00, 
1751.00, 
1752.00, 
1753.00, 
1754.00, 
1755.00, 
1756.00, 
1757.00, 
1758.00, 
1759.00, 
1760.00, 
1761.00, 
1762.00, 
1763.00, 
1764.00, 
1765.00, 
1766.00, 
1767.00, 
1768.00, 
1769.00, 
1770.00, 
1771.00, 
1772.00, 
1773.00, 
1774.00, 
1775.00, 
1776.00, 
1777.00, 
1778.00, 
1779.00, 
1780.00, 
1781.00, 
1782.00, 
1783.00, 
1784.00, 
1785.00, 
1786.00, 
1787.00, 
1788.00, 
1789.00, 
1790.00, 
1791.00, 
1792.00, 
1793.00, 
1794.00, 
1795.00, 
1796.00, 
1797.00, 
1798.00, 
1799.00, 
1800.00, 
1801.00, 
1802.00, 
1803.00, 
1804.00, 
1805.00, 
1806.00, 
1807.00, 
1808.00, 
1809.00, 
1810.00, 
1811.00, 
1812.00, 
1813.00, 
1814.00, 
1815.00, 
1816.00, 
1817.00, 
1818.00, 
1819.00, 
1820.00, 
1821.00, 
1822.00, 
1823.00, 
1824.00, 
1825.00, 
1826.00, 
1827.00, 
1828.00, 
1829.00, 
1830.00, 
1831.00, 
1832.00, 
1833.00, 
1834.00, 
1835.00, 
1836.00, 
1837.00, 
1838.00, 
1839.00, 
1840.00, 
1841.00, 
1842.00, 
1843.00, 
1844.00, 
1845.00, 
1846.00, 
1847.00, 
1848.00, 
1849.00, 
1850.00, 
1851.00, 
1852.00, 
1853.00, 
1854.00, 
1855.00, 
1856.00, 
1857.00, 
1858.00, 
1859.00, 
1860.00, 
1861.00, 
1862.00, 
1863.00, 
1864.00, 
1865.00, 
1866.00, 
1867.00, 
1868.00, 
1869.00, 
1870.00, 
1871.00, 
1872.00, 
1873.00, 
1874.00, 
1875.00, 
1876.00, 
1877.00, 
1878.00, 
1879.00, 
1880.00, 
1881.00, 
1882.00, 
1883.00, 
1884.00, 
1885.00, 
1886.00, 
1887.00, 
1888.00, 
1889.00, 
1890.00, 
1891.00, 
1892.00, 
1893.00, 
1894.00, 
1895.00, 
1896.00, 
1897.00, 
1898.00, 
1899.00, 
1900.00, 
1901.00, 
1902.00, 
1903.00, 
1904.00, 
1905.00, 
1906.00, 
1907.00, 
1908.00, 
1909.00, 
1910.00, 
1911.00, 
1912.00, 
1913.00, 
1914.00, 
1915.00, 
1916.00, 
1917.00, 
1918.00, 
1919.00, 
1920.00, 
1921.00, 
1922.00, 
1923.00, 
1924.00, 
1925.00, 
1926.00, 
1927.00, 
1928.00, 
1929.00, 
1930.00, 
1931.00, 
1932.00, 
1933.00, 
1934.00, 
1935.00, 
1936.00, 
1937.00, 
1938.00, 
1939.00, 
1940.00, 
1941.00, 
1942.00, 
1943.00, 
1944.00, 
1945.00, 
1946.00, 
1947.00, 
1948.00, 
1949.00, 
1950.00, 
1951.00, 
1952.00, 
1953.00, 
1954.00, 
1955.00, 
1956.00, 
1957.00, 
1958.00, 
1959.00, 
1960.00, 
1961.00, 
1962.00, 
1963.00, 
1964.00, 
1965.00, 
1966.00, 
1967.00, 
1968.00, 
1969.00, 
1970.00, 
1971.00, 
1972.00, 
1973.00, 
1974.00, 
1975.00, 
1976.00, 
1977.00, 
1978.00, 
1979.00, 
1980.00, 
1981.00, 
1982.00, 
1983.00, 
1984.00, 
1985.00, 
1986.00, 
1987.00, 
1988.00, 
1989.00, 
1990.00, 
1991.00, 
1992.00, 
1993.00, 
1994.00, 
1995.00, 
1996.00, 
1997.00, 
1998.00, 
1999.00, 
2000.00, 
2001.00, 
2002.00, 
2003.00, 
2004.00, 
2005.00, 
2006.00, 
2007.00, 
2008.00, 
2009.00, 
2010.00, 
2011.00, 
2012.00, 
2013.00, 
2014.00, 
2015.00, 
2016.00, 
2017.00, 
2018.00, 
2019.00, 
2020.00, 
2021.00, 
2022.00, 
2023.00, 
2024.00, 
2025.00, 
2026.00, 
2027.00, 
2028.00, 
2029.00, 
2030.00, 
2031.00, 
2032.00, 
2033.00, 
2034.00, 
2035.00, 
2036.00, 
2037.00, 
2038.00, 
2039.00, 
2040.00, 
2041.00, 
2042.00, 
2043.00, 
2044.00, 
2045.00, 
2046.00, 
2047.00, 
2048.00, 
2049.00, 
2050.00, 
2051.00, 
2052.00, 
2053.00, 
2054.00, 
2055.00, 
2056.00, 
2057.00, 
2058.00, 
2059.00, 
2060.00, 
2061.00, 
2062.00, 
2063.00, 
2064.00, 
2065.00, 
2066.00, 
2067.00, 
2068.00, 
2069.00, 
2070.00, 
2071.00, 
2072.00, 
2073.00, 
2074.00, 
2075.00, 
2076.00, 
2077.00, 
2078.00, 
2079.00, 
2080.00, 
2081.00, 
2082.00, 
2083.00, 
2084.00, 
2085.00, 
2086.00, 
2087.00, 
2088.00, 
2089.00, 
2090.00, 
2091.00, 
2092.00, 
2093.00, 
2094.00, 
2095.00, 
2096.00, 
2097.00, 
2098.00, 
2099.00, 
2100.00, 
2101.00, 
2102.00, 
2103.00, 
2104.00, 
2105.00, 
2106.00, 
2107.00, 
2108.00, 
2109.00, 
2110.00, 
2111.00, 
2112.00, 
2113.00, 
2114.00, 
2115.00, 
2116.00, 
2117.00, 
2118.00, 
2119.00, 
2120.00, 
2121.00, 
2122.00, 
2123.00, 
2124.00, 
2125.00, 
2126.00, 
2127.00, 
2128.00, 
2129.00, 
2130.00, 
2131.00, 
2132.00, 
2133.00, 
2134.00, 
2135.00, 
2136.00, 
2137.00, 
2138.00, 
2139.00, 
2140.00, 
2141.00, 
2142.00, 
2143.00, 
2144.00, 
2145.00, 
2146.00, 
2147.00, 
2148.00, 
2149.00, 
2150.00, 
2151.00, 
2152.00, 
2153.00, 
2154.00, 
2155.00, 
2156.00, 
2157.00, 
2158.00, 
2159.00, 
2160.00, 
2161.00, 
2162.00, 
2163.00, 
2164.00, 
2165.00, 
2166.00, 
2167.00, 
2168.00, 
2169.00, 
2170.00, 
2171.00, 
2172.00, 
2173.00, 
2174.00, 
2175.00, 
2176.00, 
2177.00, 
2178.00, 
2179.00, 
2180.00, 
2181.00, 
2182.00, 
2183.00, 
2184.00, 
2185.00, 
2186.00, 
2187.00, 
2188.00, 
2189.00, 
2190.00, 
2191.00, 
2192.00, 
2193.00, 
2194.00, 
2195.00, 
2196.00, 
2197.00, 
2198.00, 
2199.00, 
2200.00, 
2201.00, 
2202.00, 
2203.00, 
2204.00, 
2205.00, 
2206.00, 
2207.00, 
2208.00, 
2209.00, 
2210.00, 
2211.00, 
2212.00, 
2213.00, 
2214.00, 
2215.00, 
2216.00, 
2217.00, 
2218.00, 
2219.00, 
2220.00, 
2221.00, 
2222.00, 
2223.00, 
2224.00, 
2225.00, 
2226.00, 
2227.00, 
2228.00, 
2229.00, 
2230.00, 
2231.00, 
2232.00, 
2233.00, 
2234.00, 
2235.00, 
2236.00, 
2237.00, 
2238.00, 
2239.00, 
2240.00, 
2241.00, 
2242.00, 
2243.00, 
2244.00, 
2245.00, 
2246.00, 
2247.00, 
2248.00, 
2249.00, 
2250.00, 
2251.00, 
2252.00, 
2253.00, 
2254.00, 
2255.00, 
2256.00, 
2257.00, 
2258.00, 
2259.00, 
2260.00, 
2261.00, 
2262.00, 
2263.00, 
2264.00, 
2265.00, 
2266.00, 
2267.00, 
2268.00, 
2269.00, 
2270.00, 
2271.00, 
2272.00, 
2273.00, 
2274.00, 
2275.00, 
2276.00, 
2277.00, 
2278.00, 
2279.00, 
2280.00, 
2281.00, 
2282.00, 
2283.00, 
2284.00, 
2285.00, 
2286.00, 
2287.00, 
2288.00, 
2289.00, 
2290.00, 
2291.00, 
2292.00, 
2293.00, 
2294.00, 
2295.00, 
2296.00, 
2297.00, 
2298.00, 
2299.00, 
2300.00, 
2301.00, 
2302.00, 
2303.00, 
2304.00, 
2305.00, 
2306.00, 
2307.00, 
2308.00, 
2309.00, 
2310.00, 
2311.00, 
2312.00, 
2313.00, 
2314.00, 
2315.00, 
2316.00, 
2317.00, 
2318.00, 
2319.00, 
2320.00, 
2321.00, 
2322.00, 
2323.00, 
2324.00, 
2325.00, 
2326.00, 
2327.00, 
2328.00, 
2329.00, 
2330.00, 
2331.00, 
2332.00, 
2333.00, 
2334.00, 
2335.00, 
2336.00, 
2337.00, 
2338.00, 
2339.00, 
2340.00, 
2341.00, 
2342.00, 
2343.00, 
2344.00, 
2345.00, 
2346.00, 
2347.00, 
2348.00, 
2349.00, 
2350.00, 
2351.00, 
2352.00, 
2353.00, 
2354.00, 
2355.00, 
2356.00, 
2357.00, 
2358.00, 
2359.00, 
2360.00, 
2361.00, 
2362.00, 
2363.00, 
2364.00, 
2365.00, 
2366.00, 
2367.00, 
2368.00, 
2369.00, 
2370.00, 
2371.00, 
2372.00, 
2373.00, 
2374.00, 
2375.00, 
2376.00, 
2377.00, 
2378.00, 
2379.00, 
2380.00, 
2381.00, 
2382.00, 
2383.00, 
2384.00, 
2385.00, 
2386.00, 
2387.00, 
2388.00, 
2389.00, 
2390.00, 
2391.00, 
2392.00, 
2393.00, 
2394.00, 
2395.00, 
2396.00, 
2397.00, 
2398.00, 
2399.00, 
2400.00, 
2401.00, 
2402.00, 
2403.00, 
2404.00, 
2405.00, 
2406.00, 
2407.00, 
2408.00, 
2409.00, 
2410.00, 
2411.00, 
2412.00, 
2413.00, 
2414.00, 
2415.00, 
2416.00, 
2417.00, 
2418.00, 
2419.00, 
2420.00, 
2421.00, 
2422.00, 
2423.00, 
2424.00, 
2425.00, 
2426.00, 
2427.00, 
2428.00, 
2429.00, 
2430.00, 
2431.00, 
2432.00, 
2433.00, 
2434.00, 
2435.00, 
2436.00, 
2437.00, 
2438.00, 
2439.00, 
2440.00, 
2441.00, 
2442.00, 
2443.00, 
2444.00, 
2445.00, 
2446.00, 
2447.00, 
2448.00, 
2449.00, 
2450.00, 
2451.00, 
2452.00, 
2453.00, 
2454.00, 
2455.00, 
2456.00, 
2457.00, 
2458.00, 
2459.00, 
2460.00, 
2461.00, 
2462.00, 
2463.00, 
2464.00, 
2465.00, 
2466.00, 
2467.00, 
2468.00, 
2469.00, 
2470.00, 
2471.00, 
2472.00, 
2473.00, 
2474.00, 
2475.00, 
2476.00, 
2477.00, 
2478.00, 
2479.00, 
2480.00, 
2481.00, 
2482.00, 
2483.00, 
2484.00, 
2485.00, 
2486.00, 
2487.00, 
2488.00, 
2489.00, 
2490.00, 
2491.00, 
2492.00, 
2493.00, 
2494.00, 
2495.00, 
2496.00, 
2497.00, 
2498.00, 
2499.00, 
2500.00, 
2501.00, 
2502.00, 
2503.00, 
2504.00, 
2505.00, 
2506.00, 
2507.00, 
2508.00, 
2509.00, 
2510.00, 
2511.00, 
2512.00, 
2513.00, 
2514.00, 
2515.00, 
2516.00, 
2517.00, 
2518.00, 
2519.00, 
2520.00, 
2521.00, 
2522.00, 
2523.00, 
2524.00, 
2525.00, 
2526.00, 
2527.00, 
2528.00, 
2529.00, 
2530.00, 
2531.00, 
2532.00, 
2533.00, 
2534.00, 
2535.00, 
2536.00, 
2537.00, 
2538.00, 
2539.00, 
2540.00, 
2541.00, 
2542.00, 
2543.00, 
2544.00, 
2545.00, 
2546.00, 
2547.00, 
2548.00, 
2549.00, 
2550.00, 
2551.00, 
2552.00, 
2553.00, 
2554.00, 
2555.00, 
2556.00, 
2557.00, 
2558.00, 
2559.00, 
2560.00, 
2561.00, 
2562.00, 
2563.00, 
2564.00, 
2565.00, 
2566.00, 
2567.00, 
2568.00, 
2569.00, 
2570.00, 
2571.00, 
2572.00, 
2573.00, 
2574.00, 
2575.00, 
2576.00, 
2577.00, 
2578.00, 
2579.00, 
2580.00, 
2581.00, 
2582.00, 
2583.00, 
2584.00, 
2585.00, 
2586.00, 
2587.00, 
2588.00, 
2589.00, 
2590.00, 
2591.00, 
2592.00, 
2593.00, 
2594.00, 
2595.00, 
2596.00, 
2597.00, 
2598.00, 
2599.00, 
2600.00, 
