"2cP1 - RawData"
"Wavelength nm.","T%"
200.00,0.002
201.00,0.002
202.00,0.000
203.00,0.003
204.00,0.002
205.00,-0.001
206.00,0.002
207.00,0.001
208.00,-0.000
209.00,0.003
210.00,0.000
211.00,0.002
212.00,0.002
213.00,-0.001
214.00,0.000
215.00,0.002
216.00,0.001
217.00,-0.003
218.00,-0.001
219.00,0.003
220.00,-0.001
221.00,-0.001
222.00,-0.001
223.00,0.001
224.00,0.001
225.00,0.002
226.00,-0.002
227.00,0.000
228.00,-0.001
229.00,0.000
230.00,-0.000
231.00,0.002
232.00,0.003
233.00,0.003
234.00,0.002
235.00,-0.002
236.00,-0.000
237.00,0.001
238.00,-0.000
239.00,-0.000
240.00,0.001
241.00,0.000
242.00,0.001
243.00,0.002
244.00,0.002
245.00,0.001
246.00,0.002
247.00,0.002
248.00,0.001
249.00,-0.001
250.00,0.001
251.00,0.001
252.00,0.001
253.00,0.001
254.00,0.001
255.00,0.001
256.00,-0.002
257.00,0.000
258.00,0.000
259.00,0.000
260.00,0.001
261.00,0.001
262.00,-0.000
263.00,-0.000
264.00,-0.000
265.00,0.000
266.00,0.000
267.00,0.001
268.00,0.000
269.00,0.003
270.00,0.000
271.00,-0.000
272.00,0.001
273.00,-0.000
274.00,0.001
275.00,0.002
276.00,0.001
277.00,-0.002
278.00,0.001
279.00,0.001
280.00,0.002
281.00,0.000
282.00,0.002
283.00,0.001
284.00,-0.000
285.00,0.001
286.00,0.000
287.00,0.000
288.00,0.001
289.00,-0.001
290.00,0.001
291.00,0.001
292.00,0.000
293.00,0.002
294.00,0.000
295.00,0.001
296.00,0.001
297.00,0.000
298.00,-0.002
299.00,0.001
300.00,0.003
301.00,0.003
302.00,0.004
303.00,0.009
304.00,0.010
305.00,0.021
306.00,0.030
307.00,0.046
308.00,0.070
309.00,0.108
310.00,0.152
311.00,0.211
312.00,0.287
313.00,0.392
314.00,0.515
315.00,0.672
316.00,0.853
317.00,1.083
318.00,1.328
319.00,1.642
320.00,1.999
321.00,2.390
322.00,2.825
323.00,3.349
324.00,3.846
325.00,4.417
326.00,4.961
327.00,5.615
328.00,6.282
329.00,6.946
330.00,7.678
331.00,8.274
332.00,9.112
333.00,9.862
334.00,10.580
335.00,11.334
336.00,12.099
337.00,12.831
338.00,13.591
339.00,14.290
340.00,14.984
341.00,15.657
342.00,16.321
343.00,16.910
344.00,17.518
345.00,18.142
346.00,18.583
347.00,19.120
348.00,19.640
349.00,20.061
350.00,20.524
351.00,20.942
352.00,21.338
353.00,21.738
354.00,21.991
355.00,22.311
356.00,22.639
357.00,22.967
358.00,23.213
359.00,23.425
360.00,23.700
361.00,23.851
362.00,24.102
363.00,24.280
364.00,24.452
365.00,24.575
366.00,24.721
367.00,24.806
368.00,24.929
369.00,24.986
370.00,25.001
371.00,25.101
372.00,25.159
373.00,25.136
374.00,25.154
375.00,25.154
376.00,25.164
377.00,25.089
378.00,25.087
379.00,25.038
380.00,25.030
381.00,25.043
382.00,25.051
383.00,25.026
384.00,25.089
385.00,25.155
386.00,25.212
387.00,25.256
388.00,25.309
389.00,25.359
390.00,25.364
391.00,25.424
392.00,25.486
393.00,25.479
394.00,25.532
395.00,25.498
396.00,25.563
397.00,25.535
398.00,25.615
399.00,25.618
400.00,25.616
401.00,25.637
402.00,25.652
403.00,25.650
404.00,25.615
405.00,25.673
406.00,25.624
407.00,25.603
408.00,25.560
409.00,25.537
410.00,25.525
411.00,25.485
412.00,25.460
413.00,25.465
414.00,25.478
415.00,25.461
416.00,25.498
417.00,25.515
418.00,25.508
419.00,25.566
420.00,25.575
421.00,25.670
422.00,25.689
423.00,25.711
424.00,25.758
425.00,25.802
426.00,25.816
427.00,25.851
428.00,25.918
429.00,25.916
430.00,25.987
431.00,25.994
432.00,26.029
433.00,26.119
434.00,26.174
435.00,26.246
436.00,26.270
437.00,26.314
438.00,26.436
439.00,26.491
440.00,26.540
441.00,26.635
442.00,26.695
443.00,26.741
444.00,26.841
445.00,26.947
446.00,27.028
447.00,27.104
448.00,27.201
449.00,27.296
450.00,27.387
451.00,27.478
452.00,27.566
453.00,27.697
454.00,27.763
455.00,27.878
456.00,27.888
457.00,28.141
458.00,28.202
459.00,28.298
460.00,28.430
461.00,28.524
462.00,28.657
463.00,28.757
464.00,28.865
465.00,28.968
466.00,29.097
467.00,29.217
468.00,29.307
469.00,29.464
470.00,29.533
471.00,29.608
472.00,29.733
473.00,29.803
474.00,29.885
475.00,30.015
476.00,30.106
477.00,30.220
478.00,30.372
479.00,30.487
480.00,30.622
481.00,30.769
482.00,30.862
483.00,31.023
484.00,31.147
485.00,31.300
486.00,31.399
487.00,31.582
488.00,31.698
489.00,31.824
490.00,31.974
491.00,32.119
492.00,32.214
493.00,32.381
494.00,32.467
495.00,32.519
496.00,32.661
497.00,32.707
498.00,32.712
499.00,33.040
500.00,33.153
501.00,33.239
502.00,33.404
503.00,33.527
504.00,33.601
505.00,33.718
506.00,33.866
507.00,33.927
508.00,33.984
509.00,34.172
510.00,34.284
511.00,34.319
512.00,34.435
513.00,34.510
514.00,34.777
515.00,34.885
516.00,34.978
517.00,35.075
518.00,35.182
519.00,35.241
520.00,35.335
521.00,35.428
522.00,35.522
523.00,35.595
524.00,35.627
525.00,35.746
526.00,35.862
527.00,35.889
528.00,35.955
529.00,36.076
530.00,36.146
531.00,36.341
532.00,36.370
533.00,36.493
534.00,36.598
535.00,36.678
536.00,36.721
537.00,36.797
538.00,36.900
539.00,36.958
540.00,37.066
541.00,37.142
542.00,37.152
543.00,37.234
544.00,37.291
545.00,37.409
546.00,37.420
547.00,37.499
548.00,37.589
549.00,37.639
550.00,37.763
551.00,37.802
552.00,37.888
553.00,37.955
554.00,38.029
555.00,38.079
556.00,38.145
557.00,38.215
558.00,38.254
559.00,38.281
560.00,38.375
561.00,38.410
562.00,38.524
563.00,38.491
564.00,38.556
565.00,38.589
566.00,38.611
567.00,38.689
568.00,38.676
569.00,38.702
570.00,38.785
571.00,38.743
572.00,38.710
573.00,38.901
574.00,38.959
575.00,38.994
576.00,39.042
577.00,39.128
578.00,39.208
579.00,39.198
580.00,39.283
581.00,39.382
582.00,39.448
583.00,39.500
584.00,39.617
585.00,39.671
586.00,39.656
587.00,39.697
588.00,39.810
589.00,39.867
590.00,39.923
591.00,39.920
592.00,39.998
593.00,39.989
594.00,40.044
595.00,40.109
596.00,40.081
597.00,40.203
598.00,40.288
599.00,40.246
600.00,40.361
601.00,40.419
602.00,40.452
603.00,40.453
604.00,40.520
605.00,40.537
606.00,40.614
607.00,40.672
608.00,40.729
609.00,40.710
610.00,40.722
611.00,40.732
612.00,40.784
613.00,40.786
614.00,40.828
615.00,40.965
616.00,41.077
617.00,41.055
618.00,41.165
619.00,41.213
620.00,41.235
621.00,41.289
622.00,41.305
623.00,41.404
624.00,41.495
625.00,41.492
626.00,41.554
627.00,41.594
628.00,41.612
629.00,41.735
630.00,41.758
631.00,41.775
632.00,41.853
633.00,41.886
634.00,41.945
635.00,42.116
636.00,42.135
637.00,42.210
638.00,42.258
639.00,42.324
640.00,42.385
641.00,42.360
642.00,42.456
643.00,42.474
644.00,42.566
645.00,42.657
646.00,42.744
647.00,42.771
648.00,42.833
649.00,42.924
650.00,42.894
651.00,43.012
652.00,43.166
653.00,43.172
654.00,43.241
655.00,43.316
656.00,43.415
657.00,43.516
658.00,43.505
659.00,43.496
660.00,43.595
661.00,43.646
662.00,43.835
663.00,43.917
664.00,44.014
665.00,44.000
666.00,44.196
667.00,44.371
668.00,43.975
669.00,44.491
670.00,44.475
671.00,44.486
672.00,44.485
673.00,44.621
674.00,44.696
675.00,44.800
676.00,44.903
677.00,44.943
678.00,44.934
679.00,45.031
680.00,45.085
681.00,45.207
682.00,45.261
683.00,45.250
684.00,45.447
685.00,45.450
686.00,45.425
687.00,45.553
688.00,45.632
689.00,45.604
690.00,45.783
691.00,45.835
692.00,45.941
693.00,45.973
694.00,46.057
695.00,46.157
696.00,46.159
697.00,46.249
698.00,46.274
699.00,46.437
700.00,46.509
701.00,46.484
702.00,46.693
703.00,46.688
704.00,46.723
705.00,46.755
706.00,46.861
707.00,46.874
708.00,46.825
709.00,47.033
710.00,47.178
711.00,47.090
712.00,47.104
713.00,47.208
714.00,47.184
715.00,47.387
716.00,47.372
717.00,47.402
718.00,47.545
719.00,47.493
720.00,47.549
721.00,51.734
722.00,51.751
723.00,51.766
724.00,51.734
725.00,51.727
726.00,51.704
727.00,51.782
728.00,51.747
729.00,51.729
730.00,51.856
731.00,51.758
732.00,51.739
733.00,51.734
734.00,51.763
735.00,51.814
736.00,51.861
737.00,51.889
738.00,51.898
739.00,51.916
740.00,51.964
741.00,51.925
742.00,51.967
743.00,52.015
744.00,51.983
745.00,51.925
746.00,51.984
747.00,51.885
748.00,51.880
749.00,51.955
750.00,51.901
751.00,51.841
752.00,51.831
753.00,51.895
754.00,51.837
755.00,51.790
756.00,51.924
757.00,51.887
758.00,51.901
759.00,51.807
760.00,51.907
761.00,51.899
762.00,51.830
763.00,51.922
764.00,51.961
765.00,51.881
766.00,51.851
767.00,51.876
768.00,51.876
769.00,51.835
770.00,51.906
771.00,51.930
772.00,51.961
773.00,52.030
774.00,51.912
775.00,51.908
776.00,51.905
777.00,51.968
778.00,51.924
779.00,51.855
780.00,51.926
781.00,51.885
782.00,51.904
783.00,51.863
784.00,51.919
785.00,51.868
786.00,51.808
787.00,51.782
788.00,51.787
789.00,51.821
790.00,51.700
791.00,51.742
792.00,51.749
793.00,51.771
794.00,51.810
795.00,51.697
796.00,51.673
797.00,51.675
798.00,51.649
799.00,51.624
800.00,51.584
801.00,51.594
802.00,51.606
803.00,51.573
804.00,51.496
805.00,51.524
806.00,51.531
807.00,51.494
808.00,51.505
809.00,51.461
810.00,51.426
811.00,51.375
812.00,51.452
813.00,51.392
814.00,51.415
815.00,51.354
816.00,51.368
817.00,51.260
818.00,51.328
819.00,51.240
820.00,51.294
821.00,51.214
822.00,51.252
823.00,51.216
824.00,51.230
825.00,51.117
826.00,51.222
827.00,51.280
828.00,51.120
829.00,51.206
830.00,51.117
831.00,53.629
832.00,53.627
833.00,53.608
834.00,53.612
835.00,53.561
836.00,53.554
837.00,53.539
838.00,53.558
839.00,53.517
840.00,53.455
841.00,53.486
842.00,53.447
843.00,53.433
844.00,53.438
845.00,53.333
846.00,53.400
847.00,53.338
848.00,53.333
849.00,53.255
850.00,53.278
851.00,53.196
852.00,53.198
853.00,53.169
854.00,53.092
855.00,53.100
856.00,53.049
857.00,53.021
858.00,53.006
859.00,53.012
860.00,52.848
861.00,52.973
862.00,52.894
863.00,52.919
864.00,52.873
865.00,52.892
866.00,52.879
867.00,52.869
868.00,52.869
869.00,52.815
870.00,52.789
871.00,52.811
872.00,52.802
873.00,52.756
874.00,52.743
875.00,52.920
876.00,52.729
877.00,52.732
878.00,52.720
879.00,52.687
880.00,52.688
881.00,52.667
882.00,52.659
883.00,52.680
884.00,52.578
885.00,52.576
886.00,52.564
887.00,52.538
888.00,52.525
889.00,52.483
890.00,52.477
891.00,52.432
892.00,52.433
893.00,52.403
894.00,52.412
895.00,52.365
896.00,52.344
897.00,52.357
898.00,52.321
899.00,52.356
900.00,52.314
901.00,52.294
902.00,52.301
903.00,52.239
904.00,52.261
905.00,52.227
906.00,52.194
907.00,52.173
908.00,52.151
909.00,52.100
910.00,52.083
911.00,52.114
912.00,52.109
913.00,52.056
914.00,52.014
915.00,52.101
916.00,51.987
917.00,51.950
918.00,51.936
919.00,51.907
920.00,51.883
921.00,51.869
922.00,51.866
923.00,51.864
924.00,51.809
925.00,51.806
926.00,51.796
927.00,51.798
928.00,51.746
929.00,51.745
930.00,51.901
931.00,51.731
932.00,51.694
933.00,51.657
934.00,51.680
935.00,51.629
936.00,51.604
937.00,51.610
938.00,51.578
939.00,51.568
940.00,51.538
941.00,51.557
942.00,51.551
943.00,51.474
944.00,51.544
945.00,51.453
946.00,51.444
947.00,51.400
948.00,51.386
949.00,51.357
950.00,51.347
951.00,51.312
952.00,51.288
953.00,51.274
954.00,51.266
955.00,51.214
956.00,51.199
957.00,51.151
958.00,51.180
959.00,51.120
960.00,51.128
961.00,51.101
962.00,51.113
963.00,51.065
964.00,51.053
965.00,51.036
966.00,51.034
967.00,51.031
968.00,50.999
969.00,51.007
970.00,50.995
971.00,51.006
972.00,50.988
973.00,51.004
974.00,51.026
975.00,50.990
976.00,51.017
977.00,50.983
978.00,51.031
979.00,50.978
980.00,51.010
981.00,51.015
982.00,50.984
983.00,50.993
984.00,50.964
985.00,50.992
986.00,50.941
987.00,50.962
988.00,50.956
989.00,50.915
990.00,50.917
991.00,50.947
992.00,50.912
993.00,50.886
994.00,50.868
995.00,50.858
996.00,50.837
997.00,50.835
998.00,50.799
999.00,50.836
1000.00,50.771
1001.00,50.778
1002.00,50.773
1003.00,50.774
1004.00,50.756
1005.00,50.735
1006.00,50.733
1007.00,50.707
1008.00,50.692
1009.00,50.689
1010.00,50.669
1011.00,50.658
1012.00,50.618
1013.00,50.636
1014.00,50.592
1015.00,50.610
1016.00,50.564
1017.00,50.561
1018.00,50.544
1019.00,50.514
1020.00,50.507
1021.00,50.491
1022.00,50.488
1023.00,50.442
1024.00,50.452
1025.00,50.426
1026.00,50.423
1027.00,50.401
1028.00,50.398
1029.00,50.393
1030.00,50.364
1031.00,50.363
1032.00,50.320
1033.00,50.317
1034.00,50.287
1035.00,50.256
1036.00,50.241
1037.00,50.226
1038.00,50.199
1039.00,50.162
1040.00,50.166
1041.00,50.138
1042.00,50.126
1043.00,50.098
1044.00,50.133
1045.00,50.115
1046.00,50.111
1047.00,50.117
1048.00,50.122
1049.00,50.134
1050.00,50.142
1051.00,50.176
1052.00,50.178
1053.00,50.178
1054.00,50.184
1055.00,50.205
1056.00,50.213
1057.00,50.216
1058.00,50.206
1059.00,50.202
1060.00,50.202
1061.00,50.210
1062.00,50.184
1063.00,50.195
1064.00,50.173
1065.00,50.168
1066.00,50.148
1067.00,50.140
1068.00,50.155
1069.00,50.115
1070.00,50.100
1071.00,50.087
1072.00,50.103
1073.00,50.070
1074.00,50.083
1075.00,50.060
1076.00,50.045
1077.00,50.045
1078.00,50.029
1079.00,50.015
1080.00,50.013
1081.00,50.002
1082.00,50.008
1083.00,49.983
1084.00,49.982
1085.00,49.974
1086.00,49.963
1087.00,49.952
1088.00,49.936
1089.00,49.930
1090.00,49.932
1091.00,49.919
1092.00,49.909
1093.00,49.895
1094.00,49.883
1095.00,49.870
1096.00,49.863
1097.00,49.859
1098.00,49.884
1099.00,49.842
1100.00,49.813
1101.00,49.802
1102.00,49.793
1103.00,49.792
1104.00,49.785
1105.00,49.759
1106.00,49.758
1107.00,49.750
1108.00,49.739
1109.00,49.740
1110.00,49.731
1111.00,49.719
1112.00,49.713
1113.00,49.694
1114.00,49.706
1115.00,49.699
1116.00,49.687
1117.00,49.666
1118.00,49.666
1119.00,49.654
1120.00,49.661
1121.00,49.649
1122.00,49.621
1123.00,49.620
1124.00,49.632
1125.00,49.605
1126.00,49.626
1127.00,49.614
1128.00,49.619
1129.00,49.547
1130.00,49.565
1131.00,49.564
1132.00,49.556
1133.00,49.560
1134.00,49.543
1135.00,49.523
1136.00,49.534
1137.00,49.537
1138.00,49.523
1139.00,49.525
1140.00,49.515
1141.00,49.497
1142.00,49.502
1143.00,49.509
1144.00,49.487
1145.00,49.487
1146.00,49.480
1147.00,49.473
1148.00,49.473
1149.00,49.469
1150.00,49.470
1151.00,49.476
1152.00,49.453
1153.00,49.442
1154.00,49.441
1155.00,49.452
1156.00,49.441
1157.00,49.446
1158.00,49.449
1159.00,49.438
1160.00,49.424
1161.00,49.432
1162.00,49.420
1163.00,49.424
1164.00,49.410
1165.00,49.410
1166.00,49.410
1167.00,49.403
1168.00,49.423
1169.00,49.411
1170.00,49.420
1171.00,49.396
1172.00,49.400
1173.00,49.398
1174.00,49.396
1175.00,49.399
1176.00,49.407
1177.00,49.393
1178.00,49.383
1179.00,49.394
1180.00,49.384
1181.00,49.397
1182.00,49.393
1183.00,49.384
1184.00,49.371
1185.00,49.383
1186.00,49.360
1187.00,49.367
1188.00,49.366
1189.00,49.378
1190.00,49.359
1191.00,49.349
1192.00,49.366
1193.00,49.359
1194.00,49.370
1195.00,49.338
1196.00,49.354
1197.00,49.354
1198.00,49.344
1199.00,49.344
1200.00,49.335
1201.00,49.341
1202.00,49.337
1203.00,49.345
1204.00,49.334
1205.00,49.329
1206.00,49.330
1207.00,49.333
1208.00,49.321
1209.00,49.311
1210.00,49.322
1211.00,49.315
1212.00,49.313
1213.00,49.301
1214.00,49.323
1215.00,49.308
1216.00,49.314
1217.00,49.338
1218.00,49.320
1219.00,49.318
1220.00,49.302
1221.00,49.316
1222.00,49.298
1223.00,49.324
1224.00,49.327
1225.00,49.312
1226.00,49.309
1227.00,49.309
1228.00,49.327
1229.00,49.311
1230.00,49.360
1231.00,49.354
1232.00,49.364
1233.00,49.357
1234.00,49.368
1235.00,49.370
1236.00,49.358
1237.00,49.341
1238.00,49.356
1239.00,49.366
1240.00,49.351
1241.00,49.359
1242.00,49.358
1243.00,49.373
1244.00,49.341
1245.00,49.371
1246.00,49.387
1247.00,49.373
1248.00,49.365
1249.00,49.375
1250.00,49.382
1251.00,49.366
1252.00,49.385
1253.00,49.369
1254.00,49.392
1255.00,49.392
1256.00,49.374
1257.00,49.363
1258.00,49.402
1259.00,49.388
1260.00,49.414
1261.00,49.416
1262.00,49.405
1263.00,49.402
1264.00,49.406
1265.00,49.410
1266.00,49.411
1267.00,49.417
1268.00,49.443
1269.00,49.431
1270.00,49.437
1271.00,49.445
1272.00,49.450
1273.00,49.454
1274.00,49.442
1275.00,49.446
1276.00,49.443
1277.00,49.451
1278.00,49.460
1279.00,49.463
1280.00,49.467
1281.00,49.463
1282.00,49.489
1283.00,49.468
1284.00,49.482
1285.00,49.464
1286.00,49.476
1287.00,49.470
1288.00,49.484
1289.00,49.477
1290.00,49.505
1291.00,49.495
1292.00,49.504
1293.00,49.496
1294.00,49.517
1295.00,49.529
1296.00,49.525
1297.00,49.531
1298.00,49.557
1299.00,49.547
1300.00,49.558
1301.00,49.556
1302.00,49.566
1303.00,49.592
1304.00,49.577
1305.00,49.589
1306.00,49.595
1307.00,49.588
1308.00,49.577
1309.00,49.587
1310.00,49.598
1311.00,49.578
1312.00,49.582
1313.00,49.586
1314.00,49.611
1315.00,49.617
1316.00,49.615
1317.00,49.624
1318.00,49.614
1319.00,49.627
1320.00,49.653
1321.00,49.800
1322.00,49.814
1323.00,49.801
1324.00,49.791
1325.00,49.779
1326.00,49.814
1327.00,49.793
1328.00,49.801
1329.00,49.795
1330.00,49.792
1331.00,49.802
1332.00,49.799
1333.00,49.794
1334.00,49.839
1335.00,49.833
1336.00,49.866
1337.00,49.900
1338.00,49.950
1339.00,50.028
1340.00,50.083
1341.00,50.120
1342.00,50.211
1343.00,50.251
1344.00,50.281
1345.00,50.370
1346.00,50.389
1347.00,50.407
1348.00,50.443
1349.00,50.444
1350.00,50.495
1351.00,50.487
1352.00,50.459
1353.00,50.525
1354.00,50.516
1355.00,50.694
1356.00,50.504
1357.00,50.508
1358.00,50.529
1359.00,50.539
1360.00,50.582
1361.00,50.488
1362.00,50.452
1363.00,50.572
1364.00,50.550
1365.00,50.536
1366.00,50.585
1367.00,50.471
1368.00,50.488
1369.00,50.582
1370.00,50.498
1371.00,50.439
1372.00,50.501
1373.00,50.490
1374.00,50.495
1375.00,50.478
1376.00,50.484
1377.00,50.482
1378.00,50.521
1379.00,50.465
1380.00,50.503
1381.00,50.472
1382.00,50.385
1383.00,50.481
1384.00,50.400
1385.00,50.425
1386.00,50.498
1387.00,50.404
1388.00,50.399
1389.00,50.444
1390.00,50.441
1391.00,50.448
1392.00,50.464
1393.00,50.559
1394.00,50.479
1395.00,50.344
1396.00,50.388
1397.00,50.445
1398.00,50.484
1399.00,50.383
1400.00,50.251
1401.00,50.380
1402.00,50.501
1403.00,50.443
1404.00,50.437
1405.00,50.530
1406.00,50.467
1407.00,50.512
1408.00,50.520
1409.00,50.447
1410.00,50.502
1411.00,50.554
1412.00,50.561
1413.00,50.537
1414.00,50.510
1415.00,50.577
1416.00,50.636
1417.00,50.595
1418.00,50.545
1419.00,50.567
1420.00,50.600
1421.00,50.614
1422.00,50.625
1423.00,50.624
1424.00,50.654
1425.00,50.635
1426.00,50.681
1427.00,50.698
1428.00,50.696
1429.00,50.690
1430.00,50.739
1431.00,50.718
1432.00,50.731
1433.00,50.766
1434.00,50.749
1435.00,50.805
1436.00,50.802
1437.00,50.793
1438.00,50.815
1439.00,50.857
1440.00,50.855
1441.00,50.863
1442.00,50.871
1443.00,50.914
1444.00,50.923
1445.00,50.888
1446.00,50.906
1447.00,50.955
1448.00,50.969
1449.00,50.995
1450.00,50.986
1451.00,50.982
1452.00,51.008
1453.00,51.020
1454.00,51.036
1455.00,51.055
1456.00,51.071
1457.00,51.081
1458.00,51.096
1459.00,51.109
1460.00,51.145
1461.00,51.156
1462.00,51.153
1463.00,51.186
1464.00,51.189
1465.00,51.193
1466.00,51.210
1467.00,51.220
1468.00,51.267
1469.00,51.261
1470.00,51.265
1471.00,51.293
1472.00,51.302
1473.00,51.284
1474.00,51.339
1475.00,51.338
1476.00,51.365
1477.00,51.368
1478.00,51.349
1479.00,51.382
1480.00,51.394
1481.00,51.388
1482.00,51.437
1483.00,51.431
1484.00,51.432
1485.00,51.458
1486.00,51.454
1487.00,51.473
1488.00,51.482
1489.00,51.482
1490.00,51.499
1491.00,51.502
1492.00,51.523
1493.00,51.533
1494.00,51.552
1495.00,51.542
1496.00,51.566
1497.00,51.568
1498.00,51.550
1499.00,51.585
1500.00,51.599
1501.00, 
1502.00, 
1503.00, 
1504.00, 
1505.00, 
1506.00, 
1507.00, 
1508.00, 
1509.00, 
1510.00, 
1511.00, 
1512.00, 
1513.00, 
1514.00, 
1515.00, 
1516.00, 
1517.00, 
1518.00, 
1519.00, 
1520.00, 
1521.00, 
1522.00, 
1523.00, 
1524.00, 
1525.00, 
1526.00, 
1527.00, 
1528.00, 
1529.00, 
1530.00, 
1531.00, 
1532.00, 
1533.00, 
1534.00, 
1535.00, 
1536.00, 
1537.00, 
1538.00, 
1539.00, 
1540.00, 
1541.00, 
1542.00, 
1543.00, 
1544.00, 
1545.00, 
1546.00, 
1547.00, 
1548.00, 
1549.00, 
1550.00, 
1551.00, 
1552.00, 
1553.00, 
1554.00, 
1555.00, 
1556.00, 
1557.00, 
1558.00, 
1559.00, 
1560.00, 
1561.00, 
1562.00, 
1563.00, 
1564.00, 
1565.00, 
1566.00, 
1567.00, 
1568.00, 
1569.00, 
1570.00, 
1571.00, 
1572.00, 
1573.00, 
1574.00, 
1575.00, 
1576.00, 
1577.00, 
1578.00, 
1579.00, 
1580.00, 
1581.00, 
1582.00, 
1583.00, 
1584.00, 
1585.00, 
1586.00, 
1587.00, 
1588.00, 
1589.00, 
1590.00, 
1591.00, 
1592.00, 
1593.00, 
1594.00, 
1595.00, 
1596.00, 
1597.00, 
1598.00, 
1599.00, 
1600.00, 
1601.00, 
1602.00, 
1603.00, 
1604.00, 
1605.00, 
1606.00, 
1607.00, 
1608.00, 
1609.00, 
1610.00, 
1611.00, 
1612.00, 
1613.00, 
1614.00, 
1615.00, 
1616.00, 
1617.00, 
1618.00, 
1619.00, 
1620.00, 
1621.00, 
1622.00, 
1623.00, 
1624.00, 
1625.00, 
1626.00, 
1627.00, 
1628.00, 
1629.00, 
1630.00, 
1631.00, 
1632.00, 
1633.00, 
1634.00, 
1635.00, 
1636.00, 
1637.00, 
1638.00, 
1639.00, 
1640.00, 
1641.00, 
1642.00, 
1643.00, 
1644.00, 
1645.00, 
1646.00, 
1647.00, 
1648.00, 
1649.00, 
1650.00, 
1651.00, 
1652.00, 
1653.00, 
1654.00, 
1655.00, 
1656.00, 
1657.00, 
1658.00, 
1659.00, 
1660.00, 
1661.00, 
1662.00, 
1663.00, 
1664.00, 
1665.00, 
1666.00, 
1667.00, 
1668.00, 
1669.00, 
1670.00, 
1671.00, 
1672.00, 
1673.00, 
1674.00, 
1675.00, 
1676.00, 
1677.00, 
1678.00, 
1679.00, 
1680.00, 
1681.00, 
1682.00, 
1683.00, 
1684.00, 
1685.00, 
1686.00, 
1687.00, 
1688.00, 
1689.00, 
1690.00, 
1691.00, 
1692.00, 
1693.00, 
1694.00, 
1695.00, 
1696.00, 
1697.00, 
1698.00, 
1699.00, 
1700.00, 
1701.00, 
1702.00, 
1703.00, 
1704.00, 
1705.00, 
1706.00, 
1707.00, 
1708.00, 
1709.00, 
1710.00, 
1711.00, 
1712.00, 
1713.00, 
1714.00, 
1715.00, 
1716.00, 
1717.00, 
1718.00, 
1719.00, 
1720.00, 
1721.00, 
1722.00, 
1723.00, 
1724.00, 
1725.00, 
1726.00, 
1727.00, 
1728.00, 
1729.00, 
1730.00, 
1731.00, 
1732.00, 
1733.00, 
1734.00, 
1735.00, 
1736.00, 
1737.00, 
1738.00, 
1739.00, 
1740.00, 
1741.00, 
1742.00, 
1743.00, 
1744.00, 
1745.00, 
1746.00, 
1747.00, 
1748.00, 
1749.00, 
1750.00, 
1751.00, 
1752.00, 
1753.00, 
1754.00, 
1755.00, 
1756.00, 
1757.00, 
1758.00, 
1759.00, 
1760.00, 
1761.00, 
1762.00, 
1763.00, 
1764.00, 
1765.00, 
1766.00, 
1767.00, 
1768.00, 
1769.00, 
1770.00, 
1771.00, 
1772.00, 
1773.00, 
1774.00, 
1775.00, 
1776.00, 
1777.00, 
1778.00, 
1779.00, 
1780.00, 
1781.00, 
1782.00, 
1783.00, 
1784.00, 
1785.00, 
1786.00, 
1787.00, 
1788.00, 
1789.00, 
1790.00, 
1791.00, 
1792.00, 
1793.00, 
1794.00, 
1795.00, 
1796.00, 
1797.00, 
1798.00, 
1799.00, 
1800.00, 
1801.00, 
1802.00, 
1803.00, 
1804.00, 
1805.00, 
1806.00, 
1807.00, 
1808.00, 
1809.00, 
1810.00, 
1811.00, 
1812.00, 
1813.00, 
1814.00, 
1815.00, 
1816.00, 
1817.00, 
1818.00, 
1819.00, 
1820.00, 
1821.00, 
1822.00, 
1823.00, 
1824.00, 
1825.00, 
1826.00, 
1827.00, 
1828.00, 
1829.00, 
1830.00, 
1831.00, 
1832.00, 
1833.00, 
1834.00, 
1835.00, 
1836.00, 
1837.00, 
1838.00, 
1839.00, 
1840.00, 
1841.00, 
1842.00, 
1843.00, 
1844.00, 
1845.00, 
1846.00, 
1847.00, 
1848.00, 
1849.00, 
1850.00, 
1851.00, 
1852.00, 
1853.00, 
1854.00, 
1855.00, 
1856.00, 
1857.00, 
1858.00, 
1859.00, 
1860.00, 
1861.00, 
1862.00, 
1863.00, 
1864.00, 
1865.00, 
1866.00, 
1867.00, 
1868.00, 
1869.00, 
1870.00, 
1871.00, 
1872.00, 
1873.00, 
1874.00, 
1875.00, 
1876.00, 
1877.00, 
1878.00, 
1879.00, 
1880.00, 
1881.00, 
1882.00, 
1883.00, 
1884.00, 
1885.00, 
1886.00, 
1887.00, 
1888.00, 
1889.00, 
1890.00, 
1891.00, 
1892.00, 
1893.00, 
1894.00, 
1895.00, 
1896.00, 
1897.00, 
1898.00, 
1899.00, 
1900.00, 
1901.00, 
1902.00, 
1903.00, 
1904.00, 
1905.00, 
1906.00, 
1907.00, 
1908.00, 
1909.00, 
1910.00, 
1911.00, 
1912.00, 
1913.00, 
1914.00, 
1915.00, 
1916.00, 
1917.00, 
1918.00, 
1919.00, 
1920.00, 
1921.00, 
1922.00, 
1923.00, 
1924.00, 
1925.00, 
1926.00, 
1927.00, 
1928.00, 
1929.00, 
1930.00, 
1931.00, 
1932.00, 
1933.00, 
1934.00, 
1935.00, 
1936.00, 
1937.00, 
1938.00, 
1939.00, 
1940.00, 
1941.00, 
1942.00, 
1943.00, 
1944.00, 
1945.00, 
1946.00, 
1947.00, 
1948.00, 
1949.00, 
1950.00, 
1951.00, 
1952.00, 
1953.00, 
1954.00, 
1955.00, 
1956.00, 
1957.00, 
1958.00, 
1959.00, 
1960.00, 
1961.00, 
1962.00, 
1963.00, 
1964.00, 
1965.00, 
1966.00, 
1967.00, 
1968.00, 
1969.00, 
1970.00, 
1971.00, 
1972.00, 
1973.00, 
1974.00, 
1975.00, 
1976.00, 
1977.00, 
1978.00, 
1979.00, 
1980.00, 
1981.00, 
1982.00, 
1983.00, 
1984.00, 
1985.00, 
1986.00, 
1987.00, 
1988.00, 
1989.00, 
1990.00, 
1991.00, 
1992.00, 
1993.00, 
1994.00, 
1995.00, 
1996.00, 
1997.00, 
1998.00, 
1999.00, 
2000.00, 
2001.00, 
2002.00, 
2003.00, 
2004.00, 
2005.00, 
2006.00, 
2007.00, 
2008.00, 
2009.00, 
2010.00, 
2011.00, 
2012.00, 
2013.00, 
2014.00, 
2015.00, 
2016.00, 
2017.00, 
2018.00, 
2019.00, 
2020.00, 
2021.00, 
2022.00, 
2023.00, 
2024.00, 
2025.00, 
2026.00, 
2027.00, 
2028.00, 
2029.00, 
2030.00, 
2031.00, 
2032.00, 
2033.00, 
2034.00, 
2035.00, 
2036.00, 
2037.00, 
2038.00, 
2039.00, 
2040.00, 
2041.00, 
2042.00, 
2043.00, 
2044.00, 
2045.00, 
2046.00, 
2047.00, 
2048.00, 
2049.00, 
2050.00, 
2051.00, 
2052.00, 
2053.00, 
2054.00, 
2055.00, 
2056.00, 
2057.00, 
2058.00, 
2059.00, 
2060.00, 
2061.00, 
2062.00, 
2063.00, 
2064.00, 
2065.00, 
2066.00, 
2067.00, 
2068.00, 
2069.00, 
2070.00, 
2071.00, 
2072.00, 
2073.00, 
2074.00, 
2075.00, 
2076.00, 
2077.00, 
2078.00, 
2079.00, 
2080.00, 
2081.00, 
2082.00, 
2083.00, 
2084.00, 
2085.00, 
2086.00, 
2087.00, 
2088.00, 
2089.00, 
2090.00, 
2091.00, 
2092.00, 
2093.00, 
2094.00, 
2095.00, 
2096.00, 
2097.00, 
2098.00, 
2099.00, 
2100.00, 
2101.00, 
2102.00, 
2103.00, 
2104.00, 
2105.00, 
2106.00, 
2107.00, 
2108.00, 
2109.00, 
2110.00, 
2111.00, 
2112.00, 
2113.00, 
2114.00, 
2115.00, 
2116.00, 
2117.00, 
2118.00, 
2119.00, 
2120.00, 
2121.00, 
2122.00, 
2123.00, 
2124.00, 
2125.00, 
2126.00, 
2127.00, 
2128.00, 
2129.00, 
2130.00, 
2131.00, 
2132.00, 
2133.00, 
2134.00, 
2135.00, 
2136.00, 
2137.00, 
2138.00, 
2139.00, 
2140.00, 
2141.00, 
2142.00, 
2143.00, 
2144.00, 
2145.00, 
2146.00, 
2147.00, 
2148.00, 
2149.00, 
2150.00, 
2151.00, 
2152.00, 
2153.00, 
2154.00, 
2155.00, 
2156.00, 
2157.00, 
2158.00, 
2159.00, 
2160.00, 
2161.00, 
2162.00, 
2163.00, 
2164.00, 
2165.00, 
2166.00, 
2167.00, 
2168.00, 
2169.00, 
2170.00, 
2171.00, 
2172.00, 
2173.00, 
2174.00, 
2175.00, 
2176.00, 
2177.00, 
2178.00, 
2179.00, 
2180.00, 
2181.00, 
2182.00, 
2183.00, 
2184.00, 
2185.00, 
2186.00, 
2187.00, 
2188.00, 
2189.00, 
2190.00, 
2191.00, 
2192.00, 
2193.00, 
2194.00, 
2195.00, 
2196.00, 
2197.00, 
2198.00, 
2199.00, 
2200.00, 
2201.00, 
2202.00, 
2203.00, 
2204.00, 
2205.00, 
2206.00, 
2207.00, 
2208.00, 
2209.00, 
2210.00, 
2211.00, 
2212.00, 
2213.00, 
2214.00, 
2215.00, 
2216.00, 
2217.00, 
2218.00, 
2219.00, 
2220.00, 
2221.00, 
2222.00, 
2223.00, 
2224.00, 
2225.00, 
2226.00, 
2227.00, 
2228.00, 
2229.00, 
2230.00, 
2231.00, 
2232.00, 
2233.00, 
2234.00, 
2235.00, 
2236.00, 
2237.00, 
2238.00, 
2239.00, 
2240.00, 
2241.00, 
2242.00, 
2243.00, 
2244.00, 
2245.00, 
2246.00, 
2247.00, 
2248.00, 
2249.00, 
2250.00, 
2251.00, 
2252.00, 
2253.00, 
2254.00, 
2255.00, 
2256.00, 
2257.00, 
2258.00, 
2259.00, 
2260.00, 
2261.00, 
2262.00, 
2263.00, 
2264.00, 
2265.00, 
2266.00, 
2267.00, 
2268.00, 
2269.00, 
2270.00, 
2271.00, 
2272.00, 
2273.00, 
2274.00, 
2275.00, 
2276.00, 
2277.00, 
2278.00, 
2279.00, 
2280.00, 
2281.00, 
2282.00, 
2283.00, 
2284.00, 
2285.00, 
2286.00, 
2287.00, 
2288.00, 
2289.00, 
2290.00, 
2291.00, 
2292.00, 
2293.00, 
2294.00, 
2295.00, 
2296.00, 
2297.00, 
2298.00, 
2299.00, 
2300.00, 
2301.00, 
2302.00, 
2303.00, 
2304.00, 
2305.00, 
2306.00, 
2307.00, 
2308.00, 
2309.00, 
2310.00, 
2311.00, 
2312.00, 
2313.00, 
2314.00, 
2315.00, 
2316.00, 
2317.00, 
2318.00, 
2319.00, 
2320.00, 
2321.00, 
2322.00, 
2323.00, 
2324.00, 
2325.00, 
2326.00, 
2327.00, 
2328.00, 
2329.00, 
2330.00, 
2331.00, 
2332.00, 
2333.00, 
2334.00, 
2335.00, 
2336.00, 
2337.00, 
2338.00, 
2339.00, 
2340.00, 
2341.00, 
2342.00, 
2343.00, 
2344.00, 
2345.00, 
2346.00, 
2347.00, 
2348.00, 
2349.00, 
2350.00, 
2351.00, 
2352.00, 
2353.00, 
2354.00, 
2355.00, 
2356.00, 
2357.00, 
2358.00, 
2359.00, 
2360.00, 
2361.00, 
2362.00, 
2363.00, 
2364.00, 
2365.00, 
2366.00, 
2367.00, 
2368.00, 
2369.00, 
2370.00, 
2371.00, 
2372.00, 
2373.00, 
2374.00, 
2375.00, 
2376.00, 
2377.00, 
2378.00, 
2379.00, 
2380.00, 
2381.00, 
2382.00, 
2383.00, 
2384.00, 
2385.00, 
2386.00, 
2387.00, 
2388.00, 
2389.00, 
2390.00, 
2391.00, 
2392.00, 
2393.00, 
2394.00, 
2395.00, 
2396.00, 
2397.00, 
2398.00, 
2399.00, 
2400.00, 
2401.00, 
2402.00, 
2403.00, 
2404.00, 
2405.00, 
2406.00, 
2407.00, 
2408.00, 
2409.00, 
2410.00, 
2411.00, 
2412.00, 
2413.00, 
2414.00, 
2415.00, 
2416.00, 
2417.00, 
2418.00, 
2419.00, 
2420.00, 
2421.00, 
2422.00, 
2423.00, 
2424.00, 
2425.00, 
2426.00, 
2427.00, 
2428.00, 
2429.00, 
2430.00, 
2431.00, 
2432.00, 
2433.00, 
2434.00, 
2435.00, 
2436.00, 
2437.00, 
2438.00, 
2439.00, 
2440.00, 
2441.00, 
2442.00, 
2443.00, 
2444.00, 
2445.00, 
2446.00, 
2447.00, 
2448.00, 
2449.00, 
2450.00, 
2451.00, 
2452.00, 
2453.00, 
2454.00, 
2455.00, 
2456.00, 
2457.00, 
2458.00, 
2459.00, 
2460.00, 
2461.00, 
2462.00, 
2463.00, 
2464.00, 
2465.00, 
2466.00, 
2467.00, 
2468.00, 
2469.00, 
2470.00, 
2471.00, 
2472.00, 
2473.00, 
2474.00, 
2475.00, 
2476.00, 
2477.00, 
2478.00, 
2479.00, 
2480.00, 
2481.00, 
2482.00, 
2483.00, 
2484.00, 
2485.00, 
2486.00, 
2487.00, 
2488.00, 
2489.00, 
2490.00, 
2491.00, 
2492.00, 
2493.00, 
2494.00, 
2495.00, 
2496.00, 
2497.00, 
2498.00, 
2499.00, 
2500.00, 
2501.00, 
2502.00, 
2503.00, 
2504.00, 
2505.00, 
2506.00, 
2507.00, 
2508.00, 
2509.00, 
2510.00, 
2511.00, 
2512.00, 
2513.00, 
2514.00, 
2515.00, 
2516.00, 
2517.00, 
2518.00, 
2519.00, 
2520.00, 
2521.00, 
2522.00, 
2523.00, 
2524.00, 
2525.00, 
2526.00, 
2527.00, 
2528.00, 
2529.00, 
2530.00, 
2531.00, 
2532.00, 
2533.00, 
2534.00, 
2535.00, 
2536.00, 
2537.00, 
2538.00, 
2539.00, 
2540.00, 
2541.00, 
2542.00, 
2543.00, 
2544.00, 
2545.00, 
2546.00, 
2547.00, 
2548.00, 
2549.00, 
2550.00, 
2551.00, 
2552.00, 
2553.00, 
2554.00, 
2555.00, 
2556.00, 
2557.00, 
2558.00, 
2559.00, 
2560.00, 
2561.00, 
2562.00, 
2563.00, 
2564.00, 
2565.00, 
2566.00, 
2567.00, 
2568.00, 
2569.00, 
2570.00, 
2571.00, 
2572.00, 
2573.00, 
2574.00, 
2575.00, 
2576.00, 
2577.00, 
2578.00, 
2579.00, 
2580.00, 
2581.00, 
2582.00, 
2583.00, 
2584.00, 
2585.00, 
2586.00, 
2587.00, 
2588.00, 
2589.00, 
2590.00, 
2591.00, 
2592.00, 
2593.00, 
2594.00, 
2595.00, 
2596.00, 
2597.00, 
2598.00, 
2599.00, 
2600.00, 
