"2cP3 - RawData"
"Wavelength nm.","T%"
200.00,0.006
201.00,0.001
202.00,0.006
203.00,-0.001
204.00,-0.001
205.00,-0.001
206.00,0.003
207.00,0.002
208.00,0.004
209.00,0.001
210.00,0.001
211.00,0.004
212.00,0.002
213.00,0.001
214.00,0.000
215.00,0.002
216.00,0.005
217.00,0.001
218.00,0.001
219.00,0.002
220.00,0.001
221.00,-0.002
222.00,0.000
223.00,0.001
224.00,0.003
225.00,0.001
226.00,-0.001
227.00,0.001
228.00,0.002
229.00,-0.002
230.00,0.002
231.00,0.002
232.00,0.003
233.00,0.000
234.00,0.000
235.00,0.000
236.00,0.001
237.00,0.000
238.00,-0.001
239.00,0.000
240.00,0.001
241.00,0.001
242.00,0.000
243.00,0.001
244.00,-0.001
245.00,0.001
246.00,0.002
247.00,0.003
248.00,-0.000
249.00,0.000
250.00,0.001
251.00,0.001
252.00,-0.002
253.00,-0.000
254.00,-0.002
255.00,0.001
256.00,-0.000
257.00,0.001
258.00,0.000
259.00,-0.002
260.00,0.002
261.00,-0.000
262.00,0.001
263.00,-0.001
264.00,0.001
265.00,0.001
266.00,-0.001
267.00,-0.001
268.00,-0.001
269.00,0.001
270.00,-0.001
271.00,0.000
272.00,0.002
273.00,0.001
274.00,0.002
275.00,-0.000
276.00,0.001
277.00,0.000
278.00,0.001
279.00,-0.000
280.00,0.000
281.00,0.001
282.00,-0.000
283.00,-0.001
284.00,0.000
285.00,0.002
286.00,-0.000
287.00,-0.000
288.00,-0.000
289.00,-0.001
290.00,0.003
291.00,-0.000
292.00,-0.001
293.00,0.003
294.00,0.001
295.00,0.000
296.00,-0.001
297.00,0.001
298.00,0.002
299.00,0.000
300.00,0.003
301.00,0.005
302.00,0.006
303.00,0.010
304.00,0.013
305.00,0.021
306.00,0.035
307.00,0.054
308.00,0.081
309.00,0.128
310.00,0.179
311.00,0.240
312.00,0.329
313.00,0.444
314.00,0.589
315.00,0.772
316.00,0.985
317.00,1.246
318.00,1.534
319.00,1.886
320.00,2.292
321.00,2.743
322.00,3.269
323.00,3.840
324.00,4.441
325.00,5.078
326.00,5.720
327.00,6.467
328.00,7.222
329.00,8.020
330.00,8.837
331.00,9.655
332.00,10.471
333.00,11.399
334.00,12.094
335.00,13.109
336.00,13.994
337.00,14.875
338.00,15.737
339.00,16.534
340.00,17.365
341.00,18.174
342.00,18.923
343.00,19.647
344.00,20.367
345.00,21.110
346.00,21.623
347.00,22.231
348.00,22.862
349.00,23.422
350.00,23.955
351.00,24.394
352.00,24.887
353.00,25.329
354.00,25.736
355.00,26.106
356.00,26.519
357.00,26.916
358.00,27.177
359.00,27.515
360.00,27.817
361.00,28.003
362.00,28.272
363.00,28.518
364.00,28.711
365.00,28.935
366.00,29.106
367.00,29.230
368.00,29.374
369.00,29.466
370.00,29.589
371.00,29.687
372.00,29.756
373.00,29.729
374.00,29.784
375.00,29.786
376.00,29.794
377.00,29.788
378.00,29.733
379.00,29.712
380.00,29.666
381.00,29.709
382.00,29.761
383.00,29.746
384.00,29.825
385.00,29.925
386.00,29.976
387.00,30.052
388.00,30.139
389.00,30.202
390.00,30.253
391.00,30.371
392.00,30.383
393.00,30.395
394.00,30.513
395.00,30.498
396.00,30.573
397.00,30.566
398.00,30.643
399.00,30.658
400.00,30.673
401.00,30.723
402.00,30.692
403.00,30.703
404.00,30.667
405.00,30.749
406.00,30.696
407.00,30.712
408.00,30.694
409.00,30.621
410.00,30.587
411.00,30.537
412.00,30.517
413.00,30.546
414.00,30.526
415.00,30.480
416.00,30.501
417.00,30.612
418.00,30.671
419.00,30.713
420.00,30.694
421.00,30.755
422.00,30.822
423.00,30.811
424.00,30.882
425.00,30.894
426.00,30.840
427.00,30.910
428.00,30.919
429.00,31.034
430.00,31.097
431.00,31.111
432.00,31.168
433.00,31.204
434.00,31.285
435.00,31.325
436.00,31.360
437.00,31.419
438.00,31.489
439.00,31.551
440.00,31.612
441.00,31.659
442.00,31.729
443.00,31.786
444.00,31.880
445.00,31.969
446.00,32.029
447.00,32.095
448.00,32.196
449.00,32.315
450.00,32.381
451.00,32.504
452.00,32.557
453.00,32.628
454.00,32.722
455.00,32.862
456.00,32.928
457.00,33.072
458.00,33.098
459.00,33.159
460.00,33.313
461.00,33.411
462.00,33.537
463.00,33.640
464.00,33.726
465.00,33.815
466.00,33.942
467.00,34.051
468.00,34.153
469.00,34.275
470.00,34.330
471.00,34.420
472.00,34.532
473.00,34.571
474.00,34.658
475.00,34.720
476.00,34.808
477.00,34.902
478.00,35.050
479.00,35.133
480.00,35.241
481.00,35.363
482.00,35.449
483.00,35.578
484.00,35.735
485.00,35.857
486.00,35.963
487.00,36.143
488.00,36.230
489.00,36.396
490.00,36.537
491.00,36.664
492.00,36.780
493.00,36.908
494.00,36.997
495.00,36.969
496.00,37.119
497.00,37.194
498.00,37.318
499.00,37.447
500.00,37.523
501.00,37.472
502.00,37.766
503.00,37.890
504.00,37.965
505.00,38.057
506.00,38.172
507.00,38.254
508.00,38.257
509.00,38.456
510.00,38.584
511.00,38.631
512.00,38.696
513.00,38.883
514.00,39.001
515.00,39.088
516.00,39.208
517.00,39.276
518.00,39.388
519.00,39.444
520.00,39.506
521.00,39.616
522.00,39.642
523.00,39.717
524.00,39.771
525.00,39.867
526.00,39.966
527.00,40.055
528.00,40.106
529.00,40.226
530.00,40.326
531.00,40.479
532.00,40.521
533.00,40.594
534.00,40.692
535.00,40.772
536.00,40.852
537.00,40.918
538.00,40.978
539.00,41.026
540.00,41.129
541.00,41.213
542.00,41.182
543.00,41.261
544.00,41.299
545.00,41.387
546.00,41.401
547.00,41.469
548.00,41.568
549.00,41.615
550.00,41.761
551.00,41.785
552.00,41.882
553.00,41.994
554.00,42.003
555.00,42.054
556.00,42.105
557.00,42.178
558.00,42.217
559.00,42.204
560.00,42.253
561.00,42.443
562.00,42.510
563.00,42.487
564.00,42.603
565.00,42.579
566.00,42.596
567.00,42.667
568.00,42.713
569.00,42.710
570.00,42.726
571.00,42.806
572.00,42.727
573.00,42.872
574.00,42.944
575.00,42.832
576.00,42.969
577.00,42.977
578.00,43.112
579.00,43.120
580.00,43.214
581.00,43.318
582.00,43.383
583.00,43.427
584.00,43.560
585.00,43.590
586.00,43.614
587.00,43.697
588.00,43.728
589.00,43.738
590.00,43.783
591.00,43.782
592.00,43.854
593.00,43.854
594.00,43.894
595.00,43.970
596.00,43.976
597.00,44.016
598.00,44.151
599.00,44.136
600.00,44.120
601.00,44.270
602.00,44.248
603.00,44.327
604.00,44.262
605.00,44.281
606.00,44.430
607.00,44.513
608.00,44.550
609.00,44.595
610.00,44.558
611.00,44.558
612.00,44.651
613.00,44.639
614.00,44.691
615.00,44.728
616.00,44.792
617.00,44.827
618.00,44.900
619.00,44.963
620.00,44.951
621.00,44.998
622.00,44.997
623.00,45.106
624.00,45.152
625.00,45.189
626.00,45.224
627.00,45.310
628.00,45.312
629.00,45.335
630.00,45.352
631.00,45.416
632.00,45.491
633.00,45.503
634.00,45.578
635.00,45.697
636.00,45.741
637.00,45.803
638.00,45.841
639.00,45.845
640.00,45.854
641.00,45.936
642.00,45.951
643.00,45.981
644.00,46.093
645.00,46.166
646.00,46.241
647.00,46.212
648.00,46.324
649.00,46.350
650.00,46.307
651.00,46.355
652.00,46.523
653.00,46.493
654.00,46.520
655.00,46.564
656.00,46.686
657.00,46.779
658.00,46.911
659.00,47.044
660.00,47.004
661.00,46.945
662.00,47.075
663.00,47.070
664.00,47.261
665.00,47.299
666.00,47.290
667.00,47.531
668.00,46.936
669.00,47.577
670.00,47.571
671.00,47.612
672.00,47.526
673.00,47.613
674.00,47.746
675.00,47.763
676.00,47.865
677.00,47.969
678.00,47.816
679.00,47.843
680.00,47.898
681.00,48.027
682.00,48.088
683.00,48.108
684.00,48.188
685.00,48.264
686.00,48.124
687.00,48.329
688.00,48.380
689.00,48.398
690.00,48.535
691.00,48.545
692.00,48.537
693.00,48.446
694.00,48.504
695.00,48.610
696.00,48.624
697.00,48.724
698.00,48.813
699.00,48.926
700.00,48.938
701.00,48.968
702.00,49.019
703.00,48.997
704.00,49.133
705.00,49.095
706.00,49.244
707.00,49.263
708.00,49.191
709.00,49.308
710.00,49.460
711.00,49.311
712.00,49.336
713.00,49.489
714.00,49.391
715.00,49.432
716.00,49.512
717.00,49.495
718.00,49.667
719.00,49.538
720.00,49.659
721.00,53.879
722.00,53.936
723.00,53.831
724.00,53.786
725.00,53.752
726.00,53.767
727.00,53.787
728.00,53.756
729.00,53.689
730.00,53.739
731.00,53.687
732.00,53.724
733.00,53.711
734.00,53.661
735.00,53.794
736.00,53.721
737.00,53.762
738.00,53.794
739.00,53.772
740.00,53.735
741.00,53.785
742.00,53.703
743.00,53.785
744.00,53.683
745.00,53.687
746.00,53.672
747.00,53.640
748.00,53.545
749.00,53.607
750.00,53.580
751.00,53.472
752.00,53.453
753.00,53.523
754.00,53.507
755.00,53.442
756.00,53.559
757.00,53.455
758.00,53.462
759.00,53.377
760.00,53.480
761.00,53.418
762.00,53.400
763.00,53.414
764.00,53.344
765.00,53.406
766.00,53.374
767.00,53.312
768.00,53.366
769.00,53.299
770.00,53.366
771.00,53.370
772.00,53.351
773.00,53.404
774.00,53.335
775.00,53.319
776.00,53.308
777.00,53.324
778.00,53.279
779.00,53.192
780.00,53.252
781.00,53.210
782.00,53.277
783.00,53.256
784.00,53.251
785.00,53.149
786.00,53.138
787.00,53.174
788.00,53.125
789.00,53.125
790.00,53.075
791.00,53.092
792.00,52.988
793.00,53.028
794.00,53.021
795.00,52.997
796.00,52.908
797.00,52.884
798.00,52.915
799.00,52.911
800.00,52.882
801.00,52.842
802.00,52.841
803.00,52.841
804.00,52.733
805.00,52.789
806.00,52.744
807.00,52.680
808.00,52.684
809.00,52.712
810.00,52.635
811.00,52.597
812.00,52.581
813.00,52.561
814.00,52.638
815.00,52.657
816.00,52.541
817.00,52.436
818.00,52.490
819.00,52.404
820.00,52.425
821.00,52.413
822.00,52.430
823.00,52.409
824.00,52.401
825.00,52.285
826.00,52.286
827.00,52.412
828.00,52.206
829.00,52.286
830.00,52.186
831.00,54.908
832.00,54.908
833.00,54.831
834.00,54.827
835.00,54.776
836.00,54.744
837.00,54.796
838.00,54.734
839.00,54.708
840.00,54.658
841.00,54.714
842.00,54.655
843.00,54.636
844.00,54.617
845.00,54.526
846.00,54.617
847.00,54.535
848.00,54.504
849.00,54.446
850.00,54.462
851.00,54.371
852.00,54.359
853.00,54.341
854.00,54.291
855.00,54.277
856.00,54.235
857.00,54.216
858.00,54.179
859.00,54.192
860.00,54.038
861.00,54.147
862.00,54.057
863.00,54.080
864.00,54.026
865.00,54.048
866.00,54.007
867.00,54.013
868.00,53.996
869.00,53.966
870.00,53.942
871.00,53.958
872.00,53.926
873.00,53.908
874.00,53.891
875.00,53.914
876.00,53.874
877.00,53.884
878.00,53.855
879.00,53.996
880.00,53.836
881.00,53.769
882.00,53.806
883.00,53.761
884.00,53.698
885.00,53.707
886.00,53.681
887.00,53.669
888.00,53.632
889.00,53.591
890.00,53.588
891.00,53.550
892.00,53.537
893.00,53.523
894.00,53.521
895.00,53.459
896.00,53.458
897.00,53.450
898.00,53.409
899.00,53.423
900.00,53.386
901.00,53.391
902.00,53.406
903.00,53.339
904.00,53.353
905.00,53.336
906.00,53.282
907.00,53.276
908.00,53.241
909.00,53.206
910.00,53.175
911.00,53.217
912.00,53.200
913.00,53.147
914.00,53.145
915.00,53.101
916.00,53.086
917.00,53.068
918.00,52.970
919.00,53.121
920.00,52.988
921.00,52.978
922.00,52.970
923.00,52.947
924.00,52.906
925.00,52.894
926.00,52.864
927.00,52.843
928.00,52.844
929.00,52.829
930.00,52.804
931.00,52.782
932.00,52.769
933.00,52.729
934.00,52.743
935.00,52.688
936.00,52.695
937.00,52.650
938.00,52.632
939.00,52.636
940.00,52.588
941.00,52.613
942.00,52.569
943.00,52.532
944.00,52.506
945.00,52.507
946.00,52.507
947.00,52.472
948.00,52.451
949.00,52.417
950.00,52.418
951.00,52.383
952.00,52.354
953.00,52.344
954.00,52.318
955.00,52.279
956.00,52.255
957.00,52.204
958.00,52.235
959.00,52.176
960.00,52.170
961.00,52.142
962.00,52.140
963.00,52.100
964.00,52.102
965.00,52.072
966.00,52.077
967.00,52.059
968.00,52.034
969.00,52.059
970.00,52.029
971.00,52.028
972.00,52.002
973.00,52.029
974.00,52.052
975.00,52.021
976.00,52.022
977.00,52.026
978.00,52.048
979.00,51.975
980.00,52.022
981.00,52.027
982.00,52.003
983.00,52.013
984.00,51.982
985.00,52.013
986.00,51.972
987.00,51.975
988.00,51.962
989.00,51.924
990.00,51.925
991.00,51.903
992.00,51.910
993.00,51.878
994.00,51.870
995.00,51.894
996.00,51.820
997.00,51.832
998.00,51.799
999.00,51.832
1000.00,51.782
1001.00,51.779
1002.00,51.782
1003.00,51.759
1004.00,51.739
1005.00,51.731
1006.00,51.746
1007.00,51.709
1008.00,51.699
1009.00,51.722
1010.00,51.669
1011.00,51.649
1012.00,51.624
1013.00,51.639
1014.00,51.586
1015.00,51.597
1016.00,51.560
1017.00,51.557
1018.00,51.533
1019.00,51.511
1020.00,51.494
1021.00,51.487
1022.00,51.482
1023.00,51.432
1024.00,51.440
1025.00,51.416
1026.00,51.424
1027.00,51.393
1028.00,51.378
1029.00,51.382
1030.00,51.352
1031.00,51.358
1032.00,51.318
1033.00,51.316
1034.00,51.272
1035.00,51.246
1036.00,51.216
1037.00,51.196
1038.00,51.182
1039.00,51.133
1040.00,51.162
1041.00,51.135
1042.00,51.120
1043.00,51.093
1044.00,51.113
1045.00,51.087
1046.00,51.079
1047.00,51.088
1048.00,51.099
1049.00,51.123
1050.00,51.127
1051.00,51.160
1052.00,51.164
1053.00,51.161
1054.00,51.171
1055.00,51.170
1056.00,51.225
1057.00,51.189
1058.00,51.165
1059.00,51.174
1060.00,51.178
1061.00,51.168
1062.00,51.148
1063.00,51.165
1064.00,51.142
1065.00,51.130
1066.00,51.107
1067.00,51.104
1068.00,51.127
1069.00,51.081
1070.00,51.090
1071.00,51.077
1072.00,51.077
1073.00,51.052
1074.00,51.070
1075.00,51.036
1076.00,51.028
1077.00,51.015
1078.00,51.009
1079.00,51.007
1080.00,50.997
1081.00,50.975
1082.00,50.983
1083.00,50.962
1084.00,50.969
1085.00,50.965
1086.00,50.944
1087.00,50.934
1088.00,50.910
1089.00,50.902
1090.00,50.910
1091.00,50.896
1092.00,50.898
1093.00,50.875
1094.00,50.851
1095.00,50.844
1096.00,50.835
1097.00,50.820
1098.00,50.826
1099.00,50.803
1100.00,50.778
1101.00,50.798
1102.00,50.787
1103.00,50.768
1104.00,50.769
1105.00,50.742
1106.00,50.756
1107.00,50.759
1108.00,50.738
1109.00,50.726
1110.00,50.721
1111.00,50.699
1112.00,50.697
1113.00,50.678
1114.00,50.700
1115.00,50.702
1116.00,50.693
1117.00,50.688
1118.00,50.672
1119.00,50.647
1120.00,50.654
1121.00,50.642
1122.00,50.625
1123.00,50.615
1124.00,50.609
1125.00,50.586
1126.00,50.604
1127.00,50.588
1128.00,50.583
1129.00,50.550
1130.00,50.532
1131.00,50.552
1132.00,50.542
1133.00,50.541
1134.00,50.524
1135.00,50.496
1136.00,50.527
1137.00,50.531
1138.00,50.511
1139.00,50.528
1140.00,50.525
1141.00,50.504
1142.00,50.516
1143.00,50.530
1144.00,50.480
1145.00,50.488
1146.00,50.481
1147.00,50.478
1148.00,50.492
1149.00,50.467
1150.00,50.489
1151.00,50.489
1152.00,50.460
1153.00,50.469
1154.00,50.455
1155.00,50.468
1156.00,50.449
1157.00,50.444
1158.00,50.443
1159.00,50.436
1160.00,50.422
1161.00,50.426
1162.00,50.420
1163.00,50.423
1164.00,50.428
1165.00,50.416
1166.00,50.410
1167.00,50.418
1168.00,50.423
1169.00,50.426
1170.00,50.439
1171.00,50.404
1172.00,50.410
1173.00,50.394
1174.00,50.399
1175.00,50.403
1176.00,50.397
1177.00,50.371
1178.00,50.378
1179.00,50.385
1180.00,50.378
1181.00,50.403
1182.00,50.388
1183.00,50.375
1184.00,50.367
1185.00,50.375
1186.00,50.366
1187.00,50.365
1188.00,50.350
1189.00,50.364
1190.00,50.357
1191.00,50.350
1192.00,50.366
1193.00,50.355
1194.00,50.367
1195.00,50.327
1196.00,50.344
1197.00,50.360
1198.00,50.334
1199.00,50.332
1200.00,50.337
1201.00,50.343
1202.00,50.329
1203.00,50.342
1204.00,50.318
1205.00,50.329
1206.00,50.334
1207.00,50.331
1208.00,50.331
1209.00,50.332
1210.00,50.316
1211.00,50.313
1212.00,50.324
1213.00,50.298
1214.00,50.323
1215.00,50.283
1216.00,50.298
1217.00,50.317
1218.00,50.288
1219.00,50.311
1220.00,50.278
1221.00,50.293
1222.00,50.284
1223.00,50.319
1224.00,50.318
1225.00,50.290
1226.00,50.299
1227.00,50.303
1228.00,50.330
1229.00,50.323
1230.00,50.371
1231.00,50.352
1232.00,50.359
1233.00,50.361
1234.00,50.351
1235.00,50.349
1236.00,50.358
1237.00,50.343
1238.00,50.353
1239.00,50.372
1240.00,50.369
1241.00,50.367
1242.00,50.363
1243.00,50.369
1244.00,50.365
1245.00,50.373
1246.00,50.382
1247.00,50.381
1248.00,50.361
1249.00,50.375
1250.00,50.397
1251.00,50.373
1252.00,50.395
1253.00,50.380
1254.00,50.404
1255.00,50.402
1256.00,50.379
1257.00,50.365
1258.00,50.426
1259.00,50.403
1260.00,50.440
1261.00,50.443
1262.00,50.410
1263.00,50.412
1264.00,50.426
1265.00,50.428
1266.00,50.432
1267.00,50.430
1268.00,50.453
1269.00,50.448
1270.00,50.442
1271.00,50.450
1272.00,50.470
1273.00,50.465
1274.00,50.465
1275.00,50.472
1276.00,50.459
1277.00,50.480
1278.00,50.471
1279.00,50.481
1280.00,50.491
1281.00,50.488
1282.00,50.510
1283.00,50.490
1284.00,50.523
1285.00,50.504
1286.00,50.497
1287.00,50.488
1288.00,50.511
1289.00,50.507
1290.00,50.528
1291.00,50.530
1292.00,50.524
1293.00,50.538
1294.00,50.550
1295.00,50.552
1296.00,50.562
1297.00,50.563
1298.00,50.586
1299.00,50.577
1300.00,50.594
1301.00,50.582
1302.00,50.595
1303.00,50.608
1304.00,50.587
1305.00,50.611
1306.00,50.609
1307.00,50.624
1308.00,50.623
1309.00,50.624
1310.00,50.641
1311.00,50.613
1312.00,50.625
1313.00,50.632
1314.00,50.644
1315.00,50.660
1316.00,50.668
1317.00,50.682
1318.00,50.677
1319.00,50.692
1320.00,50.706
1321.00,50.864
1322.00,50.861
1323.00,50.841
1324.00,50.843
1325.00,50.828
1326.00,50.854
1327.00,50.857
1328.00,50.857
1329.00,50.845
1330.00,50.843
1331.00,50.850
1332.00,50.860
1333.00,50.850
1334.00,50.884
1335.00,50.888
1336.00,50.922
1337.00,50.954
1338.00,51.009
1339.00,51.067
1340.00,51.114
1341.00,51.175
1342.00,51.256
1343.00,51.313
1344.00,51.342
1345.00,51.410
1346.00,51.449
1347.00,51.448
1348.00,51.472
1349.00,51.500
1350.00,51.535
1351.00,51.541
1352.00,51.541
1353.00,51.565
1354.00,51.578
1355.00,51.531
1356.00,51.570
1357.00,51.576
1358.00,51.652
1359.00,51.435
1360.00,51.654
1361.00,51.391
1362.00,51.562
1363.00,51.641
1364.00,51.602
1365.00,51.603
1366.00,51.670
1367.00,51.569
1368.00,51.538
1369.00,51.685
1370.00,51.539
1371.00,51.545
1372.00,51.565
1373.00,51.594
1374.00,51.636
1375.00,51.533
1376.00,51.582
1377.00,51.555
1378.00,51.627
1379.00,51.581
1380.00,51.609
1381.00,51.619
1382.00,51.461
1383.00,51.579
1384.00,51.505
1385.00,51.508
1386.00,51.572
1387.00,51.530
1388.00,51.487
1389.00,51.526
1390.00,51.558
1391.00,51.493
1392.00,51.564
1393.00,51.753
1394.00,51.586
1395.00,51.424
1396.00,51.499
1397.00,51.560
1398.00,51.669
1399.00,51.559
1400.00,51.457
1401.00,51.522
1402.00,51.654
1403.00,51.558
1404.00,51.549
1405.00,51.640
1406.00,51.595
1407.00,51.640
1408.00,51.576
1409.00,51.564
1410.00,51.643
1411.00,51.649
1412.00,51.707
1413.00,51.619
1414.00,51.638
1415.00,51.681
1416.00,51.729
1417.00,51.727
1418.00,51.693
1419.00,51.691
1420.00,51.741
1421.00,51.718
1422.00,51.756
1423.00,51.743
1424.00,51.759
1425.00,51.790
1426.00,51.814
1427.00,51.832
1428.00,51.835
1429.00,51.847
1430.00,51.879
1431.00,51.871
1432.00,51.889
1433.00,51.914
1434.00,51.912
1435.00,52.006
1436.00,51.960
1437.00,51.963
1438.00,51.976
1439.00,52.019
1440.00,52.014
1441.00,52.023
1442.00,52.040
1443.00,52.069
1444.00,52.117
1445.00,52.059
1446.00,52.062
1447.00,52.125
1448.00,52.158
1449.00,52.180
1450.00,52.150
1451.00,52.179
1452.00,52.183
1453.00,52.217
1454.00,52.217
1455.00,52.234
1456.00,52.261
1457.00,52.255
1458.00,52.283
1459.00,52.297
1460.00,52.301
1461.00,52.323
1462.00,52.341
1463.00,52.362
1464.00,52.373
1465.00,52.376
1466.00,52.379
1467.00,52.413
1468.00,52.461
1469.00,52.448
1470.00,52.449
1471.00,52.466
1472.00,52.491
1473.00,52.481
1474.00,52.531
1475.00,52.534
1476.00,52.535
1477.00,52.538
1478.00,52.555
1479.00,52.575
1480.00,52.575
1481.00,52.579
1482.00,52.626
1483.00,52.637
1484.00,52.637
1485.00,52.654
1486.00,52.681
1487.00,52.706
1488.00,52.710
1489.00,52.719
1490.00,52.729
1491.00,52.753
1492.00,52.768
1493.00,52.783
1494.00,52.806
1495.00,52.796
1496.00,52.813
1497.00,52.822
1498.00,52.814
1499.00,52.838
1500.00,52.856
1501.00, 
1502.00, 
1503.00, 
1504.00, 
1505.00, 
1506.00, 
1507.00, 
1508.00, 
1509.00, 
1510.00, 
1511.00, 
1512.00, 
1513.00, 
1514.00, 
1515.00, 
1516.00, 
1517.00, 
1518.00, 
1519.00, 
1520.00, 
1521.00, 
1522.00, 
1523.00, 
1524.00, 
1525.00, 
1526.00, 
1527.00, 
1528.00, 
1529.00, 
1530.00, 
1531.00, 
1532.00, 
1533.00, 
1534.00, 
1535.00, 
1536.00, 
1537.00, 
1538.00, 
1539.00, 
1540.00, 
1541.00, 
1542.00, 
1543.00, 
1544.00, 
1545.00, 
1546.00, 
1547.00, 
1548.00, 
1549.00, 
1550.00, 
1551.00, 
1552.00, 
1553.00, 
1554.00, 
1555.00, 
1556.00, 
1557.00, 
1558.00, 
1559.00, 
1560.00, 
1561.00, 
1562.00, 
1563.00, 
1564.00, 
1565.00, 
1566.00, 
1567.00, 
1568.00, 
1569.00, 
1570.00, 
1571.00, 
1572.00, 
1573.00, 
1574.00, 
1575.00, 
1576.00, 
1577.00, 
1578.00, 
1579.00, 
1580.00, 
1581.00, 
1582.00, 
1583.00, 
1584.00, 
1585.00, 
1586.00, 
1587.00, 
1588.00, 
1589.00, 
1590.00, 
1591.00, 
1592.00, 
1593.00, 
1594.00, 
1595.00, 
1596.00, 
1597.00, 
1598.00, 
1599.00, 
1600.00, 
1601.00, 
1602.00, 
1603.00, 
1604.00, 
1605.00, 
1606.00, 
1607.00, 
1608.00, 
1609.00, 
1610.00, 
1611.00, 
1612.00, 
1613.00, 
1614.00, 
1615.00, 
1616.00, 
1617.00, 
1618.00, 
1619.00, 
1620.00, 
1621.00, 
1622.00, 
1623.00, 
1624.00, 
1625.00, 
1626.00, 
1627.00, 
1628.00, 
1629.00, 
1630.00, 
1631.00, 
1632.00, 
1633.00, 
1634.00, 
1635.00, 
1636.00, 
1637.00, 
1638.00, 
1639.00, 
1640.00, 
1641.00, 
1642.00, 
1643.00, 
1644.00, 
1645.00, 
1646.00, 
1647.00, 
1648.00, 
1649.00, 
1650.00, 
1651.00, 
1652.00, 
1653.00, 
1654.00, 
1655.00, 
1656.00, 
1657.00, 
1658.00, 
1659.00, 
1660.00, 
1661.00, 
1662.00, 
1663.00, 
1664.00, 
1665.00, 
1666.00, 
1667.00, 
1668.00, 
1669.00, 
1670.00, 
1671.00, 
1672.00, 
1673.00, 
1674.00, 
1675.00, 
1676.00, 
1677.00, 
1678.00, 
1679.00, 
1680.00, 
1681.00, 
1682.00, 
1683.00, 
1684.00, 
1685.00, 
1686.00, 
1687.00, 
1688.00, 
1689.00, 
1690.00, 
1691.00, 
1692.00, 
1693.00, 
1694.00, 
1695.00, 
1696.00, 
1697.00, 
1698.00, 
1699.00, 
1700.00, 
1701.00, 
1702.00, 
1703.00, 
1704.00, 
1705.00, 
1706.00, 
1707.00, 
1708.00, 
1709.00, 
1710.00, 
1711.00, 
1712.00, 
1713.00, 
1714.00, 
1715.00, 
1716.00, 
1717.00, 
1718.00, 
1719.00, 
1720.00, 
1721.00, 
1722.00, 
1723.00, 
1724.00, 
1725.00, 
1726.00, 
1727.00, 
1728.00, 
1729.00, 
1730.00, 
1731.00, 
1732.00, 
1733.00, 
1734.00, 
1735.00, 
1736.00, 
1737.00, 
1738.00, 
1739.00, 
1740.00, 
1741.00, 
1742.00, 
1743.00, 
1744.00, 
1745.00, 
1746.00, 
1747.00, 
1748.00, 
1749.00, 
1750.00, 
1751.00, 
1752.00, 
1753.00, 
1754.00, 
1755.00, 
1756.00, 
1757.00, 
1758.00, 
1759.00, 
1760.00, 
1761.00, 
1762.00, 
1763.00, 
1764.00, 
1765.00, 
1766.00, 
1767.00, 
1768.00, 
1769.00, 
1770.00, 
1771.00, 
1772.00, 
1773.00, 
1774.00, 
1775.00, 
1776.00, 
1777.00, 
1778.00, 
1779.00, 
1780.00, 
1781.00, 
1782.00, 
1783.00, 
1784.00, 
1785.00, 
1786.00, 
1787.00, 
1788.00, 
1789.00, 
1790.00, 
1791.00, 
1792.00, 
1793.00, 
1794.00, 
1795.00, 
1796.00, 
1797.00, 
1798.00, 
1799.00, 
1800.00, 
1801.00, 
1802.00, 
1803.00, 
1804.00, 
1805.00, 
1806.00, 
1807.00, 
1808.00, 
1809.00, 
1810.00, 
1811.00, 
1812.00, 
1813.00, 
1814.00, 
1815.00, 
1816.00, 
1817.00, 
1818.00, 
1819.00, 
1820.00, 
1821.00, 
1822.00, 
1823.00, 
1824.00, 
1825.00, 
1826.00, 
1827.00, 
1828.00, 
1829.00, 
1830.00, 
1831.00, 
1832.00, 
1833.00, 
1834.00, 
1835.00, 
1836.00, 
1837.00, 
1838.00, 
1839.00, 
1840.00, 
1841.00, 
1842.00, 
1843.00, 
1844.00, 
1845.00, 
1846.00, 
1847.00, 
1848.00, 
1849.00, 
1850.00, 
1851.00, 
1852.00, 
1853.00, 
1854.00, 
1855.00, 
1856.00, 
1857.00, 
1858.00, 
1859.00, 
1860.00, 
1861.00, 
1862.00, 
1863.00, 
1864.00, 
1865.00, 
1866.00, 
1867.00, 
1868.00, 
1869.00, 
1870.00, 
1871.00, 
1872.00, 
1873.00, 
1874.00, 
1875.00, 
1876.00, 
1877.00, 
1878.00, 
1879.00, 
1880.00, 
1881.00, 
1882.00, 
1883.00, 
1884.00, 
1885.00, 
1886.00, 
1887.00, 
1888.00, 
1889.00, 
1890.00, 
1891.00, 
1892.00, 
1893.00, 
1894.00, 
1895.00, 
1896.00, 
1897.00, 
1898.00, 
1899.00, 
1900.00, 
1901.00, 
1902.00, 
1903.00, 
1904.00, 
1905.00, 
1906.00, 
1907.00, 
1908.00, 
1909.00, 
1910.00, 
1911.00, 
1912.00, 
1913.00, 
1914.00, 
1915.00, 
1916.00, 
1917.00, 
1918.00, 
1919.00, 
1920.00, 
1921.00, 
1922.00, 
1923.00, 
1924.00, 
1925.00, 
1926.00, 
1927.00, 
1928.00, 
1929.00, 
1930.00, 
1931.00, 
1932.00, 
1933.00, 
1934.00, 
1935.00, 
1936.00, 
1937.00, 
1938.00, 
1939.00, 
1940.00, 
1941.00, 
1942.00, 
1943.00, 
1944.00, 
1945.00, 
1946.00, 
1947.00, 
1948.00, 
1949.00, 
1950.00, 
1951.00, 
1952.00, 
1953.00, 
1954.00, 
1955.00, 
1956.00, 
1957.00, 
1958.00, 
1959.00, 
1960.00, 
1961.00, 
1962.00, 
1963.00, 
1964.00, 
1965.00, 
1966.00, 
1967.00, 
1968.00, 
1969.00, 
1970.00, 
1971.00, 
1972.00, 
1973.00, 
1974.00, 
1975.00, 
1976.00, 
1977.00, 
1978.00, 
1979.00, 
1980.00, 
1981.00, 
1982.00, 
1983.00, 
1984.00, 
1985.00, 
1986.00, 
1987.00, 
1988.00, 
1989.00, 
1990.00, 
1991.00, 
1992.00, 
1993.00, 
1994.00, 
1995.00, 
1996.00, 
1997.00, 
1998.00, 
1999.00, 
2000.00, 
2001.00, 
2002.00, 
2003.00, 
2004.00, 
2005.00, 
2006.00, 
2007.00, 
2008.00, 
2009.00, 
2010.00, 
2011.00, 
2012.00, 
2013.00, 
2014.00, 
2015.00, 
2016.00, 
2017.00, 
2018.00, 
2019.00, 
2020.00, 
2021.00, 
2022.00, 
2023.00, 
2024.00, 
2025.00, 
2026.00, 
2027.00, 
2028.00, 
2029.00, 
2030.00, 
2031.00, 
2032.00, 
2033.00, 
2034.00, 
2035.00, 
2036.00, 
2037.00, 
2038.00, 
2039.00, 
2040.00, 
2041.00, 
2042.00, 
2043.00, 
2044.00, 
2045.00, 
2046.00, 
2047.00, 
2048.00, 
2049.00, 
2050.00, 
2051.00, 
2052.00, 
2053.00, 
2054.00, 
2055.00, 
2056.00, 
2057.00, 
2058.00, 
2059.00, 
2060.00, 
2061.00, 
2062.00, 
2063.00, 
2064.00, 
2065.00, 
2066.00, 
2067.00, 
2068.00, 
2069.00, 
2070.00, 
2071.00, 
2072.00, 
2073.00, 
2074.00, 
2075.00, 
2076.00, 
2077.00, 
2078.00, 
2079.00, 
2080.00, 
2081.00, 
2082.00, 
2083.00, 
2084.00, 
2085.00, 
2086.00, 
2087.00, 
2088.00, 
2089.00, 
2090.00, 
2091.00, 
2092.00, 
2093.00, 
2094.00, 
2095.00, 
2096.00, 
2097.00, 
2098.00, 
2099.00, 
2100.00, 
2101.00, 
2102.00, 
2103.00, 
2104.00, 
2105.00, 
2106.00, 
2107.00, 
2108.00, 
2109.00, 
2110.00, 
2111.00, 
2112.00, 
2113.00, 
2114.00, 
2115.00, 
2116.00, 
2117.00, 
2118.00, 
2119.00, 
2120.00, 
2121.00, 
2122.00, 
2123.00, 
2124.00, 
2125.00, 
2126.00, 
2127.00, 
2128.00, 
2129.00, 
2130.00, 
2131.00, 
2132.00, 
2133.00, 
2134.00, 
2135.00, 
2136.00, 
2137.00, 
2138.00, 
2139.00, 
2140.00, 
2141.00, 
2142.00, 
2143.00, 
2144.00, 
2145.00, 
2146.00, 
2147.00, 
2148.00, 
2149.00, 
2150.00, 
2151.00, 
2152.00, 
2153.00, 
2154.00, 
2155.00, 
2156.00, 
2157.00, 
2158.00, 
2159.00, 
2160.00, 
2161.00, 
2162.00, 
2163.00, 
2164.00, 
2165.00, 
2166.00, 
2167.00, 
2168.00, 
2169.00, 
2170.00, 
2171.00, 
2172.00, 
2173.00, 
2174.00, 
2175.00, 
2176.00, 
2177.00, 
2178.00, 
2179.00, 
2180.00, 
2181.00, 
2182.00, 
2183.00, 
2184.00, 
2185.00, 
2186.00, 
2187.00, 
2188.00, 
2189.00, 
2190.00, 
2191.00, 
2192.00, 
2193.00, 
2194.00, 
2195.00, 
2196.00, 
2197.00, 
2198.00, 
2199.00, 
2200.00, 
2201.00, 
2202.00, 
2203.00, 
2204.00, 
2205.00, 
2206.00, 
2207.00, 
2208.00, 
2209.00, 
2210.00, 
2211.00, 
2212.00, 
2213.00, 
2214.00, 
2215.00, 
2216.00, 
2217.00, 
2218.00, 
2219.00, 
2220.00, 
2221.00, 
2222.00, 
2223.00, 
2224.00, 
2225.00, 
2226.00, 
2227.00, 
2228.00, 
2229.00, 
2230.00, 
2231.00, 
2232.00, 
2233.00, 
2234.00, 
2235.00, 
2236.00, 
2237.00, 
2238.00, 
2239.00, 
2240.00, 
2241.00, 
2242.00, 
2243.00, 
2244.00, 
2245.00, 
2246.00, 
2247.00, 
2248.00, 
2249.00, 
2250.00, 
2251.00, 
2252.00, 
2253.00, 
2254.00, 
2255.00, 
2256.00, 
2257.00, 
2258.00, 
2259.00, 
2260.00, 
2261.00, 
2262.00, 
2263.00, 
2264.00, 
2265.00, 
2266.00, 
2267.00, 
2268.00, 
2269.00, 
2270.00, 
2271.00, 
2272.00, 
2273.00, 
2274.00, 
2275.00, 
2276.00, 
2277.00, 
2278.00, 
2279.00, 
2280.00, 
2281.00, 
2282.00, 
2283.00, 
2284.00, 
2285.00, 
2286.00, 
2287.00, 
2288.00, 
2289.00, 
2290.00, 
2291.00, 
2292.00, 
2293.00, 
2294.00, 
2295.00, 
2296.00, 
2297.00, 
2298.00, 
2299.00, 
2300.00, 
2301.00, 
2302.00, 
2303.00, 
2304.00, 
2305.00, 
2306.00, 
2307.00, 
2308.00, 
2309.00, 
2310.00, 
2311.00, 
2312.00, 
2313.00, 
2314.00, 
2315.00, 
2316.00, 
2317.00, 
2318.00, 
2319.00, 
2320.00, 
2321.00, 
2322.00, 
2323.00, 
2324.00, 
2325.00, 
2326.00, 
2327.00, 
2328.00, 
2329.00, 
2330.00, 
2331.00, 
2332.00, 
2333.00, 
2334.00, 
2335.00, 
2336.00, 
2337.00, 
2338.00, 
2339.00, 
2340.00, 
2341.00, 
2342.00, 
2343.00, 
2344.00, 
2345.00, 
2346.00, 
2347.00, 
2348.00, 
2349.00, 
2350.00, 
2351.00, 
2352.00, 
2353.00, 
2354.00, 
2355.00, 
2356.00, 
2357.00, 
2358.00, 
2359.00, 
2360.00, 
2361.00, 
2362.00, 
2363.00, 
2364.00, 
2365.00, 
2366.00, 
2367.00, 
2368.00, 
2369.00, 
2370.00, 
2371.00, 
2372.00, 
2373.00, 
2374.00, 
2375.00, 
2376.00, 
2377.00, 
2378.00, 
2379.00, 
2380.00, 
2381.00, 
2382.00, 
2383.00, 
2384.00, 
2385.00, 
2386.00, 
2387.00, 
2388.00, 
2389.00, 
2390.00, 
2391.00, 
2392.00, 
2393.00, 
2394.00, 
2395.00, 
2396.00, 
2397.00, 
2398.00, 
2399.00, 
2400.00, 
2401.00, 
2402.00, 
2403.00, 
2404.00, 
2405.00, 
2406.00, 
2407.00, 
2408.00, 
2409.00, 
2410.00, 
2411.00, 
2412.00, 
2413.00, 
2414.00, 
2415.00, 
2416.00, 
2417.00, 
2418.00, 
2419.00, 
2420.00, 
2421.00, 
2422.00, 
2423.00, 
2424.00, 
2425.00, 
2426.00, 
2427.00, 
2428.00, 
2429.00, 
2430.00, 
2431.00, 
2432.00, 
2433.00, 
2434.00, 
2435.00, 
2436.00, 
2437.00, 
2438.00, 
2439.00, 
2440.00, 
2441.00, 
2442.00, 
2443.00, 
2444.00, 
2445.00, 
2446.00, 
2447.00, 
2448.00, 
2449.00, 
2450.00, 
2451.00, 
2452.00, 
2453.00, 
2454.00, 
2455.00, 
2456.00, 
2457.00, 
2458.00, 
2459.00, 
2460.00, 
2461.00, 
2462.00, 
2463.00, 
2464.00, 
2465.00, 
2466.00, 
2467.00, 
2468.00, 
2469.00, 
2470.00, 
2471.00, 
2472.00, 
2473.00, 
2474.00, 
2475.00, 
2476.00, 
2477.00, 
2478.00, 
2479.00, 
2480.00, 
2481.00, 
2482.00, 
2483.00, 
2484.00, 
2485.00, 
2486.00, 
2487.00, 
2488.00, 
2489.00, 
2490.00, 
2491.00, 
2492.00, 
2493.00, 
2494.00, 
2495.00, 
2496.00, 
2497.00, 
2498.00, 
2499.00, 
2500.00, 
2501.00, 
2502.00, 
2503.00, 
2504.00, 
2505.00, 
2506.00, 
2507.00, 
2508.00, 
2509.00, 
2510.00, 
2511.00, 
2512.00, 
2513.00, 
2514.00, 
2515.00, 
2516.00, 
2517.00, 
2518.00, 
2519.00, 
2520.00, 
2521.00, 
2522.00, 
2523.00, 
2524.00, 
2525.00, 
2526.00, 
2527.00, 
2528.00, 
2529.00, 
2530.00, 
2531.00, 
2532.00, 
2533.00, 
2534.00, 
2535.00, 
2536.00, 
2537.00, 
2538.00, 
2539.00, 
2540.00, 
2541.00, 
2542.00, 
2543.00, 
2544.00, 
2545.00, 
2546.00, 
2547.00, 
2548.00, 
2549.00, 
2550.00, 
2551.00, 
2552.00, 
2553.00, 
2554.00, 
2555.00, 
2556.00, 
2557.00, 
2558.00, 
2559.00, 
2560.00, 
2561.00, 
2562.00, 
2563.00, 
2564.00, 
2565.00, 
2566.00, 
2567.00, 
2568.00, 
2569.00, 
2570.00, 
2571.00, 
2572.00, 
2573.00, 
2574.00, 
2575.00, 
2576.00, 
2577.00, 
2578.00, 
2579.00, 
2580.00, 
2581.00, 
2582.00, 
2583.00, 
2584.00, 
2585.00, 
2586.00, 
2587.00, 
2588.00, 
2589.00, 
2590.00, 
2591.00, 
2592.00, 
2593.00, 
2594.00, 
2595.00, 
2596.00, 
2597.00, 
2598.00, 
2599.00, 
2600.00, 
