"2cP4 - RawData"
"Wavelength nm.","T%"
200.00,-0.000
201.00,-0.000
202.00,-0.001
203.00,0.002
204.00,0.003
205.00,0.003
206.00,0.001
207.00,0.001
208.00,0.001
209.00,-0.001
210.00,0.001
211.00,-0.001
212.00,0.000
213.00,0.002
214.00,0.001
215.00,-0.000
216.00,0.001
217.00,0.000
218.00,0.002
219.00,0.002
220.00,0.001
221.00,0.001
222.00,0.004
223.00,-0.000
224.00,-0.001
225.00,-0.000
226.00,0.001
227.00,0.002
228.00,0.004
229.00,-0.000
230.00,-0.002
231.00,0.002
232.00,0.001
233.00,-0.001
234.00,0.000
235.00,0.001
236.00,-0.002
237.00,-0.002
238.00,0.002
239.00,-0.000
240.00,0.001
241.00,-0.001
242.00,0.000
243.00,0.000
244.00,0.000
245.00,-0.000
246.00,0.001
247.00,-0.001
248.00,0.002
249.00,-0.000
250.00,-0.000
251.00,0.002
252.00,0.001
253.00,0.000
254.00,-0.001
255.00,-0.001
256.00,-0.000
257.00,0.001
258.00,-0.000
259.00,0.001
260.00,0.001
261.00,-0.001
262.00,0.002
263.00,-0.002
264.00,-0.002
265.00,0.001
266.00,0.001
267.00,-0.000
268.00,-0.001
269.00,0.001
270.00,0.001
271.00,0.000
272.00,-0.000
273.00,-0.000
274.00,-0.000
275.00,0.002
276.00,-0.000
277.00,0.001
278.00,0.001
279.00,-0.002
280.00,0.000
281.00,0.000
282.00,0.001
283.00,0.000
284.00,-0.001
285.00,0.000
286.00,-0.000
287.00,0.000
288.00,-0.001
289.00,-0.000
290.00,0.002
291.00,0.002
292.00,0.001
293.00,-0.001
294.00,-0.001
295.00,0.001
296.00,0.000
297.00,0.001
298.00,0.002
299.00,0.002
300.00,0.002
301.00,0.002
302.00,0.006
303.00,0.006
304.00,0.011
305.00,0.018
306.00,0.026
307.00,0.042
308.00,0.062
309.00,0.101
310.00,0.143
311.00,0.189
312.00,0.264
313.00,0.360
314.00,0.472
315.00,0.609
316.00,0.783
317.00,0.993
318.00,1.210
319.00,1.498
320.00,1.808
321.00,2.160
322.00,2.566
323.00,3.015
324.00,3.490
325.00,3.979
326.00,4.491
327.00,5.070
328.00,5.651
329.00,6.238
330.00,6.895
331.00,7.523
332.00,8.148
333.00,8.830
334.00,9.524
335.00,10.180
336.00,10.851
337.00,11.486
338.00,12.155
339.00,12.771
340.00,13.389
341.00,14.045
342.00,14.579
343.00,15.155
344.00,15.667
345.00,16.221
346.00,16.666
347.00,17.053
348.00,17.478
349.00,17.909
350.00,18.320
351.00,18.654
352.00,18.976
353.00,19.280
354.00,19.568
355.00,19.861
356.00,20.140
357.00,20.344
358.00,20.574
359.00,20.821
360.00,21.053
361.00,21.175
362.00,21.334
363.00,21.502
364.00,21.614
365.00,21.710
366.00,21.814
367.00,21.913
368.00,21.987
369.00,22.048
370.00,22.094
371.00,22.115
372.00,22.140
373.00,22.115
374.00,22.153
375.00,22.167
376.00,22.067
377.00,22.051
378.00,21.982
379.00,21.973
380.00,21.938
381.00,21.897
382.00,21.953
383.00,21.931
384.00,21.988
385.00,22.040
386.00,22.038
387.00,22.102
388.00,22.152
389.00,22.199
390.00,22.181
391.00,22.178
392.00,22.238
393.00,22.214
394.00,22.303
395.00,22.319
396.00,22.328
397.00,22.343
398.00,22.338
399.00,22.361
400.00,22.368
401.00,22.384
402.00,22.379
403.00,22.369
404.00,22.387
405.00,22.386
406.00,22.361
407.00,22.349
408.00,22.314
409.00,22.274
410.00,22.258
411.00,22.231
412.00,22.195
413.00,22.240
414.00,22.235
415.00,22.240
416.00,22.288
417.00,22.271
418.00,22.316
419.00,22.380
420.00,22.438
421.00,22.468
422.00,22.508
423.00,22.558
424.00,22.583
425.00,22.631
426.00,22.638
427.00,22.712
428.00,22.769
429.00,22.797
430.00,22.859
431.00,22.892
432.00,22.971
433.00,23.018
434.00,23.103
435.00,23.139
436.00,23.194
437.00,23.229
438.00,23.351
439.00,23.428
440.00,23.495
441.00,23.575
442.00,23.666
443.00,23.752
444.00,23.877
445.00,23.946
446.00,24.044
447.00,24.141
448.00,24.262
449.00,24.373
450.00,24.468
451.00,24.583
452.00,24.659
453.00,24.792
454.00,24.894
455.00,24.995
456.00,25.122
457.00,25.240
458.00,25.319
459.00,25.455
460.00,25.608
461.00,25.743
462.00,25.838
463.00,26.018
464.00,26.133
465.00,26.258
466.00,26.360
467.00,26.566
468.00,26.645
469.00,26.762
470.00,26.836
471.00,26.952
472.00,27.102
473.00,27.152
474.00,27.272
475.00,27.382
476.00,27.493
477.00,27.627
478.00,27.750
479.00,27.933
480.00,28.043
481.00,28.181
482.00,28.332
483.00,28.490
484.00,28.651
485.00,28.789
486.00,28.915
487.00,29.120
488.00,29.251
489.00,29.365
490.00,29.534
491.00,29.709
492.00,29.813
493.00,30.017
494.00,30.173
495.00,30.205
496.00,30.332
497.00,30.417
498.00,30.532
499.00,30.725
500.00,30.836
501.00,30.924
502.00,31.105
503.00,31.228
504.00,31.287
505.00,31.416
506.00,31.579
507.00,31.622
508.00,31.725
509.00,31.910
510.00,32.041
511.00,32.133
512.00,32.293
513.00,32.443
514.00,32.519
515.00,32.695
516.00,32.795
517.00,32.828
518.00,32.987
519.00,33.061
520.00,33.123
521.00,33.230
522.00,33.348
523.00,33.349
524.00,33.450
525.00,33.573
526.00,33.685
527.00,33.737
528.00,33.790
529.00,33.955
530.00,34.132
531.00,34.210
532.00,34.276
533.00,34.356
534.00,34.511
535.00,34.553
536.00,34.564
537.00,34.688
538.00,34.724
539.00,34.814
540.00,34.905
541.00,34.991
542.00,34.987
543.00,35.055
544.00,35.156
545.00,35.247
546.00,35.247
547.00,35.330
548.00,35.520
549.00,35.564
550.00,35.529
551.00,35.628
552.00,35.733
553.00,35.783
554.00,35.928
555.00,35.963
556.00,36.031
557.00,36.117
558.00,36.128
559.00,36.180
560.00,36.242
561.00,36.331
562.00,36.396
563.00,36.393
564.00,36.470
565.00,36.504
566.00,36.494
567.00,36.558
568.00,36.627
569.00,36.681
570.00,36.684
571.00,36.744
572.00,36.790
573.00,36.772
574.00,36.875
575.00,36.854
576.00,36.885
577.00,36.895
578.00,37.043
579.00,37.130
580.00,37.108
581.00,37.223
582.00,37.332
583.00,37.340
584.00,37.432
585.00,37.532
586.00,37.564
587.00,37.607
588.00,37.661
589.00,37.602
590.00,37.692
591.00,37.749
592.00,37.767
593.00,37.741
594.00,37.844
595.00,37.997
596.00,37.953
597.00,37.965
598.00,38.132
599.00,38.154
600.00,38.251
601.00,38.319
602.00,38.281
603.00,38.318
604.00,38.340
605.00,38.398
606.00,38.417
607.00,38.463
608.00,38.572
609.00,38.727
610.00,38.616
611.00,38.635
612.00,38.694
613.00,38.766
614.00,38.817
615.00,38.909
616.00,38.993
617.00,39.023
618.00,39.034
619.00,39.135
620.00,39.091
621.00,39.207
622.00,39.287
623.00,39.368
624.00,39.404
625.00,39.498
626.00,39.527
627.00,39.569
628.00,39.615
629.00,39.676
630.00,39.688
631.00,39.760
632.00,39.872
633.00,39.962
634.00,40.037
635.00,40.184
636.00,40.253
637.00,40.261
638.00,40.274
639.00,40.372
640.00,40.494
641.00,40.543
642.00,40.581
643.00,40.701
644.00,40.780
645.00,40.829
646.00,41.001
647.00,40.964
648.00,41.097
649.00,41.140
650.00,41.172
651.00,41.234
652.00,41.426
653.00,41.457
654.00,41.503
655.00,41.710
656.00,41.937
657.00,41.902
658.00,42.029
659.00,42.157
660.00,42.102
661.00,42.070
662.00,42.258
663.00,42.350
664.00,42.537
665.00,42.702
666.00,42.754
667.00,42.876
668.00,42.421
669.00,43.130
670.00,43.197
671.00,43.129
672.00,43.113
673.00,43.286
674.00,43.373
675.00,43.498
676.00,43.732
677.00,43.806
678.00,43.702
679.00,43.844
680.00,43.875
681.00,44.169
682.00,44.162
683.00,44.168
684.00,44.347
685.00,44.440
686.00,44.368
687.00,44.544
688.00,44.661
689.00,44.622
690.00,44.900
691.00,45.120
692.00,45.002
693.00,44.863
694.00,45.162
695.00,45.264
696.00,45.442
697.00,45.462
698.00,45.440
699.00,45.688
700.00,45.651
701.00,45.779
702.00,45.866
703.00,46.007
704.00,46.091
705.00,46.059
706.00,46.176
707.00,46.246
708.00,46.160
709.00,46.530
710.00,46.806
711.00,46.572
712.00,46.566
713.00,46.727
714.00,46.802
715.00,46.853
716.00,46.791
717.00,47.031
718.00,47.268
719.00,47.194
720.00,47.257
721.00,51.576
722.00,51.644
723.00,51.603
724.00,51.673
725.00,51.639
726.00,51.753
727.00,51.772
728.00,51.757
729.00,51.759
730.00,51.855
731.00,51.835
732.00,51.879
733.00,51.973
734.00,51.965
735.00,51.983
736.00,51.995
737.00,52.023
738.00,52.119
739.00,52.143
740.00,52.130
741.00,52.151
742.00,52.224
743.00,52.230
744.00,52.243
745.00,52.245
746.00,52.183
747.00,52.206
748.00,52.123
749.00,52.296
750.00,52.264
751.00,52.221
752.00,52.173
753.00,52.285
754.00,52.310
755.00,52.316
756.00,52.335
757.00,52.301
758.00,52.364
759.00,52.291
760.00,52.382
761.00,52.375
762.00,52.289
763.00,52.410
764.00,52.405
765.00,52.451
766.00,52.430
767.00,52.436
768.00,52.435
769.00,52.444
770.00,52.539
771.00,52.480
772.00,52.522
773.00,52.613
774.00,52.623
775.00,52.486
776.00,52.536
777.00,52.584
778.00,52.576
779.00,52.568
780.00,52.572
781.00,52.523
782.00,52.660
783.00,52.539
784.00,52.575
785.00,52.580
786.00,52.525
787.00,52.597
788.00,52.549
789.00,52.508
790.00,52.486
791.00,52.506
792.00,52.501
793.00,52.465
794.00,52.524
795.00,52.471
796.00,52.461
797.00,52.442
798.00,52.449
799.00,52.466
800.00,52.451
801.00,52.413
802.00,52.403
803.00,52.457
804.00,52.381
805.00,52.422
806.00,52.382
807.00,52.329
808.00,52.346
809.00,52.365
810.00,52.318
811.00,52.241
812.00,52.329
813.00,52.219
814.00,52.268
815.00,52.248
816.00,52.252
817.00,52.177
818.00,52.224
819.00,52.156
820.00,52.156
821.00,52.137
822.00,52.167
823.00,52.141
824.00,52.115
825.00,52.027
826.00,52.055
827.00,52.192
828.00,52.074
829.00,52.100
830.00,52.057
831.00,54.240
832.00,54.268
833.00,54.200
834.00,54.174
835.00,54.169
836.00,54.143
837.00,54.091
838.00,54.131
839.00,54.098
840.00,54.059
841.00,54.074
842.00,54.050
843.00,54.034
844.00,54.026
845.00,53.941
846.00,54.005
847.00,53.982
848.00,53.950
849.00,53.872
850.00,53.908
851.00,53.818
852.00,53.828
853.00,53.772
854.00,53.761
855.00,53.738
856.00,53.706
857.00,53.688
858.00,53.646
859.00,53.685
860.00,53.536
861.00,53.638
862.00,53.563
863.00,53.587
864.00,53.550
865.00,53.592
866.00,53.539
867.00,53.543
868.00,53.524
869.00,53.502
870.00,53.482
871.00,53.488
872.00,53.490
873.00,53.467
874.00,53.450
875.00,53.442
876.00,53.443
877.00,53.417
878.00,53.445
879.00,53.375
880.00,53.385
881.00,53.365
882.00,53.369
883.00,53.351
884.00,53.267
885.00,53.291
886.00,53.274
887.00,53.272
888.00,53.219
889.00,53.182
890.00,53.207
891.00,53.158
892.00,53.138
893.00,53.130
894.00,53.136
895.00,53.035
896.00,53.090
897.00,53.064
898.00,53.022
899.00,53.038
900.00,53.018
901.00,53.019
902.00,53.032
903.00,52.958
904.00,52.998
905.00,52.943
906.00,52.955
907.00,52.934
908.00,52.910
909.00,52.865
910.00,52.845
911.00,52.882
912.00,52.834
913.00,52.779
914.00,52.773
915.00,52.726
916.00,52.751
917.00,52.701
918.00,52.669
919.00,52.661
920.00,52.631
921.00,52.624
922.00,52.634
923.00,52.617
924.00,52.583
925.00,52.546
926.00,52.694
927.00,52.528
928.00,52.513
929.00,52.504
930.00,52.483
931.00,52.460
932.00,52.458
933.00,52.424
934.00,52.415
935.00,52.384
936.00,52.357
937.00,52.347
938.00,52.344
939.00,52.343
940.00,52.279
941.00,52.306
942.00,52.248
943.00,52.240
944.00,52.202
945.00,52.202
946.00,52.196
947.00,52.162
948.00,52.137
949.00,52.124
950.00,52.119
951.00,52.084
952.00,52.063
953.00,52.024
954.00,52.002
955.00,51.958
956.00,51.953
957.00,51.915
958.00,51.933
959.00,51.873
960.00,51.889
961.00,51.864
962.00,51.862
963.00,51.826
964.00,51.831
965.00,51.798
966.00,51.809
967.00,51.797
968.00,51.787
969.00,51.795
970.00,51.763
971.00,51.789
972.00,51.745
973.00,51.767
974.00,51.811
975.00,51.774
976.00,51.775
977.00,51.758
978.00,51.791
979.00,51.750
980.00,51.786
981.00,51.765
982.00,51.760
983.00,51.755
984.00,51.729
985.00,51.758
986.00,51.708
987.00,51.713
988.00,51.703
989.00,51.668
990.00,51.679
991.00,51.660
992.00,51.674
993.00,51.652
994.00,51.643
995.00,51.628
996.00,51.626
997.00,51.616
998.00,51.583
999.00,51.614
1000.00,51.548
1001.00,51.547
1002.00,51.545
1003.00,51.533
1004.00,51.524
1005.00,51.495
1006.00,51.511
1007.00,51.479
1008.00,51.471
1009.00,51.443
1010.00,51.422
1011.00,51.409
1012.00,51.383
1013.00,51.389
1014.00,51.355
1015.00,51.383
1016.00,51.328
1017.00,51.325
1018.00,51.319
1019.00,51.281
1020.00,51.276
1021.00,51.268
1022.00,51.255
1023.00,51.219
1024.00,51.218
1025.00,51.194
1026.00,51.207
1027.00,51.176
1028.00,51.169
1029.00,51.172
1030.00,51.134
1031.00,51.124
1032.00,51.089
1033.00,51.094
1034.00,51.068
1035.00,51.018
1036.00,50.995
1037.00,50.984
1038.00,50.968
1039.00,50.925
1040.00,50.935
1041.00,50.909
1042.00,50.896
1043.00,50.884
1044.00,50.909
1045.00,50.899
1046.00,50.874
1047.00,50.881
1048.00,50.905
1049.00,50.920
1050.00,50.915
1051.00,50.948
1052.00,50.937
1053.00,50.943
1054.00,50.944
1055.00,50.952
1056.00,50.961
1057.00,50.971
1058.00,50.948
1059.00,50.967
1060.00,50.963
1061.00,50.960
1062.00,50.948
1063.00,50.971
1064.00,50.927
1065.00,50.925
1066.00,50.902
1067.00,50.902
1068.00,50.906
1069.00,50.853
1070.00,50.864
1071.00,50.853
1072.00,50.857
1073.00,50.851
1074.00,50.850
1075.00,50.826
1076.00,50.828
1077.00,50.802
1078.00,50.793
1079.00,50.790
1080.00,50.777
1081.00,50.757
1082.00,50.739
1083.00,50.734
1084.00,50.744
1085.00,50.735
1086.00,50.714
1087.00,50.715
1088.00,50.705
1089.00,50.707
1090.00,50.713
1091.00,50.706
1092.00,50.731
1093.00,50.714
1094.00,50.645
1095.00,50.652
1096.00,50.632
1097.00,50.619
1098.00,50.630
1099.00,50.615
1100.00,50.597
1101.00,50.606
1102.00,50.593
1103.00,50.602
1104.00,50.590
1105.00,50.562
1106.00,50.576
1107.00,50.564
1108.00,50.540
1109.00,50.534
1110.00,50.521
1111.00,50.513
1112.00,50.496
1113.00,50.478
1114.00,50.486
1115.00,50.477
1116.00,50.462
1117.00,50.454
1118.00,50.448
1119.00,50.434
1120.00,50.440
1121.00,50.429
1122.00,50.409
1123.00,50.399
1124.00,50.415
1125.00,50.390
1126.00,50.400
1127.00,50.386
1128.00,50.385
1129.00,50.316
1130.00,50.343
1131.00,50.359
1132.00,50.326
1133.00,50.353
1134.00,50.337
1135.00,50.309
1136.00,50.326
1137.00,50.316
1138.00,50.305
1139.00,50.335
1140.00,50.301
1141.00,50.276
1142.00,50.291
1143.00,50.288
1144.00,50.269
1145.00,50.268
1146.00,50.257
1147.00,50.255
1148.00,50.255
1149.00,50.254
1150.00,50.264
1151.00,50.267
1152.00,50.247
1153.00,50.250
1154.00,50.222
1155.00,50.238
1156.00,50.228
1157.00,50.217
1158.00,50.216
1159.00,50.229
1160.00,50.209
1161.00,50.223
1162.00,50.212
1163.00,50.205
1164.00,50.221
1165.00,50.203
1166.00,50.206
1167.00,50.200
1168.00,50.212
1169.00,50.211
1170.00,50.222
1171.00,50.186
1172.00,50.193
1173.00,50.174
1174.00,50.177
1175.00,50.174
1176.00,50.168
1177.00,50.170
1178.00,50.156
1179.00,50.152
1180.00,50.160
1181.00,50.182
1182.00,50.162
1183.00,50.163
1184.00,50.152
1185.00,50.165
1186.00,50.154
1187.00,50.145
1188.00,50.141
1189.00,50.145
1190.00,50.146
1191.00,50.135
1192.00,50.151
1193.00,50.130
1194.00,50.150
1195.00,50.123
1196.00,50.134
1197.00,50.140
1198.00,50.138
1199.00,50.140
1200.00,50.156
1201.00,50.153
1202.00,50.129
1203.00,50.134
1204.00,50.095
1205.00,50.127
1206.00,50.112
1207.00,50.111
1208.00,50.103
1209.00,50.100
1210.00,50.107
1211.00,50.097
1212.00,50.104
1213.00,50.089
1214.00,50.115
1215.00,50.080
1216.00,50.095
1217.00,50.112
1218.00,50.084
1219.00,50.115
1220.00,50.078
1221.00,50.101
1222.00,50.095
1223.00,50.112
1224.00,50.116
1225.00,50.093
1226.00,50.098
1227.00,50.106
1228.00,50.123
1229.00,50.102
1230.00,50.137
1231.00,50.112
1232.00,50.134
1233.00,50.135
1234.00,50.122
1235.00,50.134
1236.00,50.138
1237.00,50.123
1238.00,50.139
1239.00,50.149
1240.00,50.134
1241.00,50.152
1242.00,50.143
1243.00,50.161
1244.00,50.145
1245.00,50.158
1246.00,50.176
1247.00,50.171
1248.00,50.152
1249.00,50.173
1250.00,50.186
1251.00,50.158
1252.00,50.183
1253.00,50.159
1254.00,50.195
1255.00,50.182
1256.00,50.156
1257.00,50.157
1258.00,50.202
1259.00,50.184
1260.00,50.216
1261.00,50.210
1262.00,50.188
1263.00,50.191
1264.00,50.198
1265.00,50.207
1266.00,50.217
1267.00,50.210
1268.00,50.237
1269.00,50.233
1270.00,50.233
1271.00,50.253
1272.00,50.255
1273.00,50.263
1274.00,50.252
1275.00,50.248
1276.00,50.254
1277.00,50.267
1278.00,50.276
1279.00,50.281
1280.00,50.273
1281.00,50.265
1282.00,50.298
1283.00,50.279
1284.00,50.282
1285.00,50.285
1286.00,50.286
1287.00,50.280
1288.00,50.288
1289.00,50.278
1290.00,50.313
1291.00,50.304
1292.00,50.299
1293.00,50.308
1294.00,50.328
1295.00,50.328
1296.00,50.337
1297.00,50.331
1298.00,50.376
1299.00,50.346
1300.00,50.358
1301.00,50.358
1302.00,50.371
1303.00,50.374
1304.00,50.349
1305.00,50.370
1306.00,50.381
1307.00,50.395
1308.00,50.377
1309.00,50.396
1310.00,50.402
1311.00,50.374
1312.00,50.399
1313.00,50.398
1314.00,50.412
1315.00,50.431
1316.00,50.429
1317.00,50.444
1318.00,50.441
1319.00,50.441
1320.00,50.468
1321.00,50.643
1322.00,50.615
1323.00,50.610
1324.00,50.601
1325.00,50.581
1326.00,50.617
1327.00,50.596
1328.00,50.590
1329.00,50.584
1330.00,50.567
1331.00,50.583
1332.00,50.582
1333.00,50.564
1334.00,50.602
1335.00,50.659
1336.00,50.701
1337.00,50.721
1338.00,50.753
1339.00,50.802
1340.00,50.870
1341.00,50.921
1342.00,50.998
1343.00,51.035
1344.00,51.075
1345.00,51.129
1346.00,51.168
1347.00,51.182
1348.00,51.222
1349.00,51.219
1350.00,51.244
1351.00,51.266
1352.00,51.254
1353.00,51.285
1354.00,51.296
1355.00,51.244
1356.00,51.303
1357.00,51.288
1358.00,51.346
1359.00,51.425
1360.00,51.305
1361.00,51.319
1362.00,51.275
1363.00,51.303
1364.00,51.438
1365.00,51.346
1366.00,51.497
1367.00,51.313
1368.00,51.263
1369.00,51.381
1370.00,51.285
1371.00,51.209
1372.00,51.274
1373.00,51.290
1374.00,51.276
1375.00,51.269
1376.00,51.251
1377.00,51.229
1378.00,51.273
1379.00,51.264
1380.00,51.273
1381.00,51.425
1382.00,51.149
1383.00,51.301
1384.00,51.282
1385.00,51.219
1386.00,51.287
1387.00,51.213
1388.00,51.216
1389.00,51.263
1390.00,51.260
1391.00,51.251
1392.00,51.263
1393.00,51.361
1394.00,51.292
1395.00,51.277
1396.00,51.138
1397.00,51.119
1398.00,51.326
1399.00,51.316
1400.00,51.198
1401.00,51.201
1402.00,51.333
1403.00,51.278
1404.00,51.223
1405.00,51.328
1406.00,51.291
1407.00,51.315
1408.00,51.330
1409.00,51.285
1410.00,51.338
1411.00,51.237
1412.00,51.397
1413.00,51.297
1414.00,51.298
1415.00,51.361
1416.00,51.386
1417.00,51.447
1418.00,51.363
1419.00,51.361
1420.00,51.421
1421.00,51.456
1422.00,51.446
1423.00,51.441
1424.00,51.462
1425.00,51.487
1426.00,51.495
1427.00,51.513
1428.00,51.505
1429.00,51.497
1430.00,51.527
1431.00,51.529
1432.00,51.534
1433.00,51.570
1434.00,51.543
1435.00,51.614
1436.00,51.622
1437.00,51.600
1438.00,51.620
1439.00,51.673
1440.00,51.668
1441.00,51.674
1442.00,51.691
1443.00,51.678
1444.00,51.780
1445.00,51.729
1446.00,51.719
1447.00,51.774
1448.00,51.804
1449.00,51.810
1450.00,51.816
1451.00,51.820
1452.00,51.833
1453.00,51.855
1454.00,51.867
1455.00,51.889
1456.00,51.895
1457.00,51.880
1458.00,51.921
1459.00,51.934
1460.00,51.960
1461.00,51.973
1462.00,51.974
1463.00,51.993
1464.00,52.007
1465.00,51.997
1466.00,52.009
1467.00,52.066
1468.00,52.066
1469.00,52.080
1470.00,52.089
1471.00,52.110
1472.00,52.126
1473.00,52.119
1474.00,52.168
1475.00,52.167
1476.00,52.172
1477.00,52.187
1478.00,52.187
1479.00,52.188
1480.00,52.204
1481.00,52.204
1482.00,52.241
1483.00,52.257
1484.00,52.248
1485.00,52.269
1486.00,52.289
1487.00,52.312
1488.00,52.317
1489.00,52.316
1490.00,52.327
1491.00,52.356
1492.00,52.364
1493.00,52.368
1494.00,52.397
1495.00,52.371
1496.00,52.400
1497.00,52.403
1498.00,52.392
1499.00,52.435
1500.00,52.445
1501.00, 
1502.00, 
1503.00, 
1504.00, 
1505.00, 
1506.00, 
1507.00, 
1508.00, 
1509.00, 
1510.00, 
1511.00, 
1512.00, 
1513.00, 
1514.00, 
1515.00, 
1516.00, 
1517.00, 
1518.00, 
1519.00, 
1520.00, 
1521.00, 
1522.00, 
1523.00, 
1524.00, 
1525.00, 
1526.00, 
1527.00, 
1528.00, 
1529.00, 
1530.00, 
1531.00, 
1532.00, 
1533.00, 
1534.00, 
1535.00, 
1536.00, 
1537.00, 
1538.00, 
1539.00, 
1540.00, 
1541.00, 
1542.00, 
1543.00, 
1544.00, 
1545.00, 
1546.00, 
1547.00, 
1548.00, 
1549.00, 
1550.00, 
1551.00, 
1552.00, 
1553.00, 
1554.00, 
1555.00, 
1556.00, 
1557.00, 
1558.00, 
1559.00, 
1560.00, 
1561.00, 
1562.00, 
1563.00, 
1564.00, 
1565.00, 
1566.00, 
1567.00, 
1568.00, 
1569.00, 
1570.00, 
1571.00, 
1572.00, 
1573.00, 
1574.00, 
1575.00, 
1576.00, 
1577.00, 
1578.00, 
1579.00, 
1580.00, 
1581.00, 
1582.00, 
1583.00, 
1584.00, 
1585.00, 
1586.00, 
1587.00, 
1588.00, 
1589.00, 
1590.00, 
1591.00, 
1592.00, 
1593.00, 
1594.00, 
1595.00, 
1596.00, 
1597.00, 
1598.00, 
1599.00, 
1600.00, 
1601.00, 
1602.00, 
1603.00, 
1604.00, 
1605.00, 
1606.00, 
1607.00, 
1608.00, 
1609.00, 
1610.00, 
1611.00, 
1612.00, 
1613.00, 
1614.00, 
1615.00, 
1616.00, 
1617.00, 
1618.00, 
1619.00, 
1620.00, 
1621.00, 
1622.00, 
1623.00, 
1624.00, 
1625.00, 
1626.00, 
1627.00, 
1628.00, 
1629.00, 
1630.00, 
1631.00, 
1632.00, 
1633.00, 
1634.00, 
1635.00, 
1636.00, 
1637.00, 
1638.00, 
1639.00, 
1640.00, 
1641.00, 
1642.00, 
1643.00, 
1644.00, 
1645.00, 
1646.00, 
1647.00, 
1648.00, 
1649.00, 
1650.00, 
1651.00, 
1652.00, 
1653.00, 
1654.00, 
1655.00, 
1656.00, 
1657.00, 
1658.00, 
1659.00, 
1660.00, 
1661.00, 
1662.00, 
1663.00, 
1664.00, 
1665.00, 
1666.00, 
1667.00, 
1668.00, 
1669.00, 
1670.00, 
1671.00, 
1672.00, 
1673.00, 
1674.00, 
1675.00, 
1676.00, 
1677.00, 
1678.00, 
1679.00, 
1680.00, 
1681.00, 
1682.00, 
1683.00, 
1684.00, 
1685.00, 
1686.00, 
1687.00, 
1688.00, 
1689.00, 
1690.00, 
1691.00, 
1692.00, 
1693.00, 
1694.00, 
1695.00, 
1696.00, 
1697.00, 
1698.00, 
1699.00, 
1700.00, 
1701.00, 
1702.00, 
1703.00, 
1704.00, 
1705.00, 
1706.00, 
1707.00, 
1708.00, 
1709.00, 
1710.00, 
1711.00, 
1712.00, 
1713.00, 
1714.00, 
1715.00, 
1716.00, 
1717.00, 
1718.00, 
1719.00, 
1720.00, 
1721.00, 
1722.00, 
1723.00, 
1724.00, 
1725.00, 
1726.00, 
1727.00, 
1728.00, 
1729.00, 
1730.00, 
1731.00, 
1732.00, 
1733.00, 
1734.00, 
1735.00, 
1736.00, 
1737.00, 
1738.00, 
1739.00, 
1740.00, 
1741.00, 
1742.00, 
1743.00, 
1744.00, 
1745.00, 
1746.00, 
1747.00, 
1748.00, 
1749.00, 
1750.00, 
1751.00, 
1752.00, 
1753.00, 
1754.00, 
1755.00, 
1756.00, 
1757.00, 
1758.00, 
1759.00, 
1760.00, 
1761.00, 
1762.00, 
1763.00, 
1764.00, 
1765.00, 
1766.00, 
1767.00, 
1768.00, 
1769.00, 
1770.00, 
1771.00, 
1772.00, 
1773.00, 
1774.00, 
1775.00, 
1776.00, 
1777.00, 
1778.00, 
1779.00, 
1780.00, 
1781.00, 
1782.00, 
1783.00, 
1784.00, 
1785.00, 
1786.00, 
1787.00, 
1788.00, 
1789.00, 
1790.00, 
1791.00, 
1792.00, 
1793.00, 
1794.00, 
1795.00, 
1796.00, 
1797.00, 
1798.00, 
1799.00, 
1800.00, 
1801.00, 
1802.00, 
1803.00, 
1804.00, 
1805.00, 
1806.00, 
1807.00, 
1808.00, 
1809.00, 
1810.00, 
1811.00, 
1812.00, 
1813.00, 
1814.00, 
1815.00, 
1816.00, 
1817.00, 
1818.00, 
1819.00, 
1820.00, 
1821.00, 
1822.00, 
1823.00, 
1824.00, 
1825.00, 
1826.00, 
1827.00, 
1828.00, 
1829.00, 
1830.00, 
1831.00, 
1832.00, 
1833.00, 
1834.00, 
1835.00, 
1836.00, 
1837.00, 
1838.00, 
1839.00, 
1840.00, 
1841.00, 
1842.00, 
1843.00, 
1844.00, 
1845.00, 
1846.00, 
1847.00, 
1848.00, 
1849.00, 
1850.00, 
1851.00, 
1852.00, 
1853.00, 
1854.00, 
1855.00, 
1856.00, 
1857.00, 
1858.00, 
1859.00, 
1860.00, 
1861.00, 
1862.00, 
1863.00, 
1864.00, 
1865.00, 
1866.00, 
1867.00, 
1868.00, 
1869.00, 
1870.00, 
1871.00, 
1872.00, 
1873.00, 
1874.00, 
1875.00, 
1876.00, 
1877.00, 
1878.00, 
1879.00, 
1880.00, 
1881.00, 
1882.00, 
1883.00, 
1884.00, 
1885.00, 
1886.00, 
1887.00, 
1888.00, 
1889.00, 
1890.00, 
1891.00, 
1892.00, 
1893.00, 
1894.00, 
1895.00, 
1896.00, 
1897.00, 
1898.00, 
1899.00, 
1900.00, 
1901.00, 
1902.00, 
1903.00, 
1904.00, 
1905.00, 
1906.00, 
1907.00, 
1908.00, 
1909.00, 
1910.00, 
1911.00, 
1912.00, 
1913.00, 
1914.00, 
1915.00, 
1916.00, 
1917.00, 
1918.00, 
1919.00, 
1920.00, 
1921.00, 
1922.00, 
1923.00, 
1924.00, 
1925.00, 
1926.00, 
1927.00, 
1928.00, 
1929.00, 
1930.00, 
1931.00, 
1932.00, 
1933.00, 
1934.00, 
1935.00, 
1936.00, 
1937.00, 
1938.00, 
1939.00, 
1940.00, 
1941.00, 
1942.00, 
1943.00, 
1944.00, 
1945.00, 
1946.00, 
1947.00, 
1948.00, 
1949.00, 
1950.00, 
1951.00, 
1952.00, 
1953.00, 
1954.00, 
1955.00, 
1956.00, 
1957.00, 
1958.00, 
1959.00, 
1960.00, 
1961.00, 
1962.00, 
1963.00, 
1964.00, 
1965.00, 
1966.00, 
1967.00, 
1968.00, 
1969.00, 
1970.00, 
1971.00, 
1972.00, 
1973.00, 
1974.00, 
1975.00, 
1976.00, 
1977.00, 
1978.00, 
1979.00, 
1980.00, 
1981.00, 
1982.00, 
1983.00, 
1984.00, 
1985.00, 
1986.00, 
1987.00, 
1988.00, 
1989.00, 
1990.00, 
1991.00, 
1992.00, 
1993.00, 
1994.00, 
1995.00, 
1996.00, 
1997.00, 
1998.00, 
1999.00, 
2000.00, 
2001.00, 
2002.00, 
2003.00, 
2004.00, 
2005.00, 
2006.00, 
2007.00, 
2008.00, 
2009.00, 
2010.00, 
2011.00, 
2012.00, 
2013.00, 
2014.00, 
2015.00, 
2016.00, 
2017.00, 
2018.00, 
2019.00, 
2020.00, 
2021.00, 
2022.00, 
2023.00, 
2024.00, 
2025.00, 
2026.00, 
2027.00, 
2028.00, 
2029.00, 
2030.00, 
2031.00, 
2032.00, 
2033.00, 
2034.00, 
2035.00, 
2036.00, 
2037.00, 
2038.00, 
2039.00, 
2040.00, 
2041.00, 
2042.00, 
2043.00, 
2044.00, 
2045.00, 
2046.00, 
2047.00, 
2048.00, 
2049.00, 
2050.00, 
2051.00, 
2052.00, 
2053.00, 
2054.00, 
2055.00, 
2056.00, 
2057.00, 
2058.00, 
2059.00, 
2060.00, 
2061.00, 
2062.00, 
2063.00, 
2064.00, 
2065.00, 
2066.00, 
2067.00, 
2068.00, 
2069.00, 
2070.00, 
2071.00, 
2072.00, 
2073.00, 
2074.00, 
2075.00, 
2076.00, 
2077.00, 
2078.00, 
2079.00, 
2080.00, 
2081.00, 
2082.00, 
2083.00, 
2084.00, 
2085.00, 
2086.00, 
2087.00, 
2088.00, 
2089.00, 
2090.00, 
2091.00, 
2092.00, 
2093.00, 
2094.00, 
2095.00, 
2096.00, 
2097.00, 
2098.00, 
2099.00, 
2100.00, 
2101.00, 
2102.00, 
2103.00, 
2104.00, 
2105.00, 
2106.00, 
2107.00, 
2108.00, 
2109.00, 
2110.00, 
2111.00, 
2112.00, 
2113.00, 
2114.00, 
2115.00, 
2116.00, 
2117.00, 
2118.00, 
2119.00, 
2120.00, 
2121.00, 
2122.00, 
2123.00, 
2124.00, 
2125.00, 
2126.00, 
2127.00, 
2128.00, 
2129.00, 
2130.00, 
2131.00, 
2132.00, 
2133.00, 
2134.00, 
2135.00, 
2136.00, 
2137.00, 
2138.00, 
2139.00, 
2140.00, 
2141.00, 
2142.00, 
2143.00, 
2144.00, 
2145.00, 
2146.00, 
2147.00, 
2148.00, 
2149.00, 
2150.00, 
2151.00, 
2152.00, 
2153.00, 
2154.00, 
2155.00, 
2156.00, 
2157.00, 
2158.00, 
2159.00, 
2160.00, 
2161.00, 
2162.00, 
2163.00, 
2164.00, 
2165.00, 
2166.00, 
2167.00, 
2168.00, 
2169.00, 
2170.00, 
2171.00, 
2172.00, 
2173.00, 
2174.00, 
2175.00, 
2176.00, 
2177.00, 
2178.00, 
2179.00, 
2180.00, 
2181.00, 
2182.00, 
2183.00, 
2184.00, 
2185.00, 
2186.00, 
2187.00, 
2188.00, 
2189.00, 
2190.00, 
2191.00, 
2192.00, 
2193.00, 
2194.00, 
2195.00, 
2196.00, 
2197.00, 
2198.00, 
2199.00, 
2200.00, 
2201.00, 
2202.00, 
2203.00, 
2204.00, 
2205.00, 
2206.00, 
2207.00, 
2208.00, 
2209.00, 
2210.00, 
2211.00, 
2212.00, 
2213.00, 
2214.00, 
2215.00, 
2216.00, 
2217.00, 
2218.00, 
2219.00, 
2220.00, 
2221.00, 
2222.00, 
2223.00, 
2224.00, 
2225.00, 
2226.00, 
2227.00, 
2228.00, 
2229.00, 
2230.00, 
2231.00, 
2232.00, 
2233.00, 
2234.00, 
2235.00, 
2236.00, 
2237.00, 
2238.00, 
2239.00, 
2240.00, 
2241.00, 
2242.00, 
2243.00, 
2244.00, 
2245.00, 
2246.00, 
2247.00, 
2248.00, 
2249.00, 
2250.00, 
2251.00, 
2252.00, 
2253.00, 
2254.00, 
2255.00, 
2256.00, 
2257.00, 
2258.00, 
2259.00, 
2260.00, 
2261.00, 
2262.00, 
2263.00, 
2264.00, 
2265.00, 
2266.00, 
2267.00, 
2268.00, 
2269.00, 
2270.00, 
2271.00, 
2272.00, 
2273.00, 
2274.00, 
2275.00, 
2276.00, 
2277.00, 
2278.00, 
2279.00, 
2280.00, 
2281.00, 
2282.00, 
2283.00, 
2284.00, 
2285.00, 
2286.00, 
2287.00, 
2288.00, 
2289.00, 
2290.00, 
2291.00, 
2292.00, 
2293.00, 
2294.00, 
2295.00, 
2296.00, 
2297.00, 
2298.00, 
2299.00, 
2300.00, 
2301.00, 
2302.00, 
2303.00, 
2304.00, 
2305.00, 
2306.00, 
2307.00, 
2308.00, 
2309.00, 
2310.00, 
2311.00, 
2312.00, 
2313.00, 
2314.00, 
2315.00, 
2316.00, 
2317.00, 
2318.00, 
2319.00, 
2320.00, 
2321.00, 
2322.00, 
2323.00, 
2324.00, 
2325.00, 
2326.00, 
2327.00, 
2328.00, 
2329.00, 
2330.00, 
2331.00, 
2332.00, 
2333.00, 
2334.00, 
2335.00, 
2336.00, 
2337.00, 
2338.00, 
2339.00, 
2340.00, 
2341.00, 
2342.00, 
2343.00, 
2344.00, 
2345.00, 
2346.00, 
2347.00, 
2348.00, 
2349.00, 
2350.00, 
2351.00, 
2352.00, 
2353.00, 
2354.00, 
2355.00, 
2356.00, 
2357.00, 
2358.00, 
2359.00, 
2360.00, 
2361.00, 
2362.00, 
2363.00, 
2364.00, 
2365.00, 
2366.00, 
2367.00, 
2368.00, 
2369.00, 
2370.00, 
2371.00, 
2372.00, 
2373.00, 
2374.00, 
2375.00, 
2376.00, 
2377.00, 
2378.00, 
2379.00, 
2380.00, 
2381.00, 
2382.00, 
2383.00, 
2384.00, 
2385.00, 
2386.00, 
2387.00, 
2388.00, 
2389.00, 
2390.00, 
2391.00, 
2392.00, 
2393.00, 
2394.00, 
2395.00, 
2396.00, 
2397.00, 
2398.00, 
2399.00, 
2400.00, 
2401.00, 
2402.00, 
2403.00, 
2404.00, 
2405.00, 
2406.00, 
2407.00, 
2408.00, 
2409.00, 
2410.00, 
2411.00, 
2412.00, 
2413.00, 
2414.00, 
2415.00, 
2416.00, 
2417.00, 
2418.00, 
2419.00, 
2420.00, 
2421.00, 
2422.00, 
2423.00, 
2424.00, 
2425.00, 
2426.00, 
2427.00, 
2428.00, 
2429.00, 
2430.00, 
2431.00, 
2432.00, 
2433.00, 
2434.00, 
2435.00, 
2436.00, 
2437.00, 
2438.00, 
2439.00, 
2440.00, 
2441.00, 
2442.00, 
2443.00, 
2444.00, 
2445.00, 
2446.00, 
2447.00, 
2448.00, 
2449.00, 
2450.00, 
2451.00, 
2452.00, 
2453.00, 
2454.00, 
2455.00, 
2456.00, 
2457.00, 
2458.00, 
2459.00, 
2460.00, 
2461.00, 
2462.00, 
2463.00, 
2464.00, 
2465.00, 
2466.00, 
2467.00, 
2468.00, 
2469.00, 
2470.00, 
2471.00, 
2472.00, 
2473.00, 
2474.00, 
2475.00, 
2476.00, 
2477.00, 
2478.00, 
2479.00, 
2480.00, 
2481.00, 
2482.00, 
2483.00, 
2484.00, 
2485.00, 
2486.00, 
2487.00, 
2488.00, 
2489.00, 
2490.00, 
2491.00, 
2492.00, 
2493.00, 
2494.00, 
2495.00, 
2496.00, 
2497.00, 
2498.00, 
2499.00, 
2500.00, 
2501.00, 
2502.00, 
2503.00, 
2504.00, 
2505.00, 
2506.00, 
2507.00, 
2508.00, 
2509.00, 
2510.00, 
2511.00, 
2512.00, 
2513.00, 
2514.00, 
2515.00, 
2516.00, 
2517.00, 
2518.00, 
2519.00, 
2520.00, 
2521.00, 
2522.00, 
2523.00, 
2524.00, 
2525.00, 
2526.00, 
2527.00, 
2528.00, 
2529.00, 
2530.00, 
2531.00, 
2532.00, 
2533.00, 
2534.00, 
2535.00, 
2536.00, 
2537.00, 
2538.00, 
2539.00, 
2540.00, 
2541.00, 
2542.00, 
2543.00, 
2544.00, 
2545.00, 
2546.00, 
2547.00, 
2548.00, 
2549.00, 
2550.00, 
2551.00, 
2552.00, 
2553.00, 
2554.00, 
2555.00, 
2556.00, 
2557.00, 
2558.00, 
2559.00, 
2560.00, 
2561.00, 
2562.00, 
2563.00, 
2564.00, 
2565.00, 
2566.00, 
2567.00, 
2568.00, 
2569.00, 
2570.00, 
2571.00, 
2572.00, 
2573.00, 
2574.00, 
2575.00, 
2576.00, 
2577.00, 
2578.00, 
2579.00, 
2580.00, 
2581.00, 
2582.00, 
2583.00, 
2584.00, 
2585.00, 
2586.00, 
2587.00, 
2588.00, 
2589.00, 
2590.00, 
2591.00, 
2592.00, 
2593.00, 
2594.00, 
2595.00, 
2596.00, 
2597.00, 
2598.00, 
2599.00, 
2600.00, 
