"2cP5 - RawData"
"Wavelength nm.","T%"
200.00,-0.001
201.00,0.002
202.00,-0.002
203.00,0.001
204.00,0.004
205.00,0.002
206.00,0.001
207.00,0.001
208.00,0.001
209.00,0.001
210.00,0.001
211.00,0.000
212.00,0.004
213.00,0.001
214.00,-0.001
215.00,-0.001
216.00,-0.001
217.00,0.004
218.00,0.004
219.00,0.001
220.00,0.000
221.00,0.001
222.00,0.001
223.00,0.003
224.00,0.000
225.00,-0.003
226.00,0.003
227.00,0.001
228.00,-0.001
229.00,0.003
230.00,0.002
231.00,0.001
232.00,0.000
233.00,-0.002
234.00,0.001
235.00,0.001
236.00,0.001
237.00,-0.001
238.00,0.000
239.00,-0.000
240.00,0.000
241.00,0.001
242.00,0.002
243.00,0.000
244.00,0.000
245.00,0.001
246.00,0.001
247.00,0.000
248.00,0.001
249.00,-0.001
250.00,-0.001
251.00,0.001
252.00,-0.001
253.00,0.001
254.00,0.001
255.00,0.000
256.00,0.001
257.00,0.001
258.00,-0.000
259.00,0.001
260.00,-0.001
261.00,0.001
262.00,0.002
263.00,0.001
264.00,0.000
265.00,0.001
266.00,0.000
267.00,-0.002
268.00,-0.001
269.00,0.000
270.00,-0.000
271.00,0.000
272.00,0.001
273.00,-0.000
274.00,0.001
275.00,0.001
276.00,0.001
277.00,0.001
278.00,-0.001
279.00,0.001
280.00,-0.000
281.00,-0.000
282.00,0.001
283.00,0.001
284.00,0.000
285.00,0.001
286.00,0.001
287.00,-0.001
288.00,0.002
289.00,-0.001
290.00,0.001
291.00,0.000
292.00,0.001
293.00,-0.001
294.00,0.001
295.00,0.002
296.00,-0.001
297.00,-0.000
298.00,0.000
299.00,0.002
300.00,0.002
301.00,0.003
302.00,0.006
303.00,0.008
304.00,0.010
305.00,0.018
306.00,0.025
307.00,0.039
308.00,0.064
309.00,0.092
310.00,0.129
311.00,0.178
312.00,0.238
313.00,0.333
314.00,0.440
315.00,0.571
316.00,0.726
317.00,0.918
318.00,1.131
319.00,1.387
320.00,1.667
321.00,2.003
322.00,2.386
323.00,2.813
324.00,3.257
325.00,3.707
326.00,4.182
327.00,4.708
328.00,5.262
329.00,5.815
330.00,6.401
331.00,7.003
332.00,7.629
333.00,8.168
334.00,8.844
335.00,9.480
336.00,10.103
337.00,10.728
338.00,11.334
339.00,11.867
340.00,12.458
341.00,13.054
342.00,13.590
343.00,14.079
344.00,14.555
345.00,15.093
346.00,15.509
347.00,15.865
348.00,16.254
349.00,16.645
350.00,17.035
351.00,17.350
352.00,17.654
353.00,17.951
354.00,18.195
355.00,18.487
356.00,18.680
357.00,18.897
358.00,19.101
359.00,19.321
360.00,19.522
361.00,19.656
362.00,19.793
363.00,19.980
364.00,20.044
365.00,20.133
366.00,20.207
367.00,20.299
368.00,20.353
369.00,20.380
370.00,20.423
371.00,20.461
372.00,20.487
373.00,20.451
374.00,20.468
375.00,20.457
376.00,20.414
377.00,20.365
378.00,20.315
379.00,20.258
380.00,20.239
381.00,20.242
382.00,20.222
383.00,20.229
384.00,20.237
385.00,20.306
386.00,20.292
387.00,20.309
388.00,20.393
389.00,20.382
390.00,20.386
391.00,20.437
392.00,20.453
393.00,20.432
394.00,20.481
395.00,20.467
396.00,20.515
397.00,20.467
398.00,20.474
399.00,20.480
400.00,20.502
401.00,20.478
402.00,20.498
403.00,20.515
404.00,20.508
405.00,20.503
406.00,20.464
407.00,20.477
408.00,20.458
409.00,20.405
410.00,20.368
411.00,20.379
412.00,20.342
413.00,20.391
414.00,20.355
415.00,20.375
416.00,20.439
417.00,20.427
418.00,20.453
419.00,20.512
420.00,20.553
421.00,20.601
422.00,20.603
423.00,20.665
424.00,20.690
425.00,20.725
426.00,20.748
427.00,20.816
428.00,20.854
429.00,20.905
430.00,20.952
431.00,20.973
432.00,21.043
433.00,21.098
434.00,21.190
435.00,21.256
436.00,21.304
437.00,21.364
438.00,21.464
439.00,21.541
440.00,21.595
441.00,21.671
442.00,21.760
443.00,21.832
444.00,21.949
445.00,22.039
446.00,22.145
447.00,22.208
448.00,22.348
449.00,22.457
450.00,22.540
451.00,22.664
452.00,22.758
453.00,22.883
454.00,22.945
455.00,23.076
456.00,23.212
457.00,23.301
458.00,23.401
459.00,23.551
460.00,23.696
461.00,23.814
462.00,23.922
463.00,24.090
464.00,24.199
465.00,24.320
466.00,24.452
467.00,24.614
468.00,24.740
469.00,24.834
470.00,24.927
471.00,25.036
472.00,25.211
473.00,25.245
474.00,25.397
475.00,25.509
476.00,25.630
477.00,25.749
478.00,25.919
479.00,26.080
480.00,26.188
481.00,26.332
482.00,26.481
483.00,26.637
484.00,26.809
485.00,26.971
486.00,27.124
487.00,27.207
488.00,27.381
489.00,27.500
490.00,27.711
491.00,27.862
492.00,28.026
493.00,28.202
494.00,28.366
495.00,28.401
496.00,28.590
497.00,28.600
498.00,28.710
499.00,28.920
500.00,29.006
501.00,29.181
502.00,29.361
503.00,29.483
504.00,29.549
505.00,29.685
506.00,29.815
507.00,29.898
508.00,30.035
509.00,30.187
510.00,30.369
511.00,30.474
512.00,30.561
513.00,30.702
514.00,30.819
515.00,30.958
516.00,31.137
517.00,31.207
518.00,31.343
519.00,31.398
520.00,31.472
521.00,31.628
522.00,31.743
523.00,31.713
524.00,31.817
525.00,31.967
526.00,32.071
527.00,32.140
528.00,32.185
529.00,32.367
530.00,32.511
531.00,32.626
532.00,32.701
533.00,32.807
534.00,32.905
535.00,33.009
536.00,33.083
537.00,33.138
538.00,33.246
539.00,33.276
540.00,33.356
541.00,33.445
542.00,33.437
543.00,33.569
544.00,33.635
545.00,33.733
546.00,33.765
547.00,33.824
548.00,33.990
549.00,34.012
550.00,34.130
551.00,34.219
552.00,34.299
553.00,34.339
554.00,34.438
555.00,34.482
556.00,34.483
557.00,34.561
558.00,34.635
559.00,34.703
560.00,34.728
561.00,34.824
562.00,34.925
563.00,34.896
564.00,34.981
565.00,35.012
566.00,35.007
567.00,35.049
568.00,35.132
569.00,35.266
570.00,35.212
571.00,35.190
572.00,35.313
573.00,35.141
574.00,35.359
575.00,35.356
576.00,35.385
577.00,35.404
578.00,35.580
579.00,35.616
580.00,35.608
581.00,35.786
582.00,35.895
583.00,35.880
584.00,35.997
585.00,36.090
586.00,36.080
587.00,36.142
588.00,36.181
589.00,36.118
590.00,36.234
591.00,36.269
592.00,36.326
593.00,36.279
594.00,36.394
595.00,36.573
596.00,36.450
597.00,36.509
598.00,36.673
599.00,36.683
600.00,36.753
601.00,36.784
602.00,36.758
603.00,36.798
604.00,36.840
605.00,36.934
606.00,36.938
607.00,36.983
608.00,37.124
609.00,37.243
610.00,37.114
611.00,37.218
612.00,37.255
613.00,37.308
614.00,37.325
615.00,37.402
616.00,37.539
617.00,37.514
618.00,37.545
619.00,37.647
620.00,37.670
621.00,37.749
622.00,37.764
623.00,37.843
624.00,37.945
625.00,37.936
626.00,38.054
627.00,38.119
628.00,38.084
629.00,38.140
630.00,38.220
631.00,38.380
632.00,38.417
633.00,38.499
634.00,38.600
635.00,38.722
636.00,38.767
637.00,38.781
638.00,38.830
639.00,38.934
640.00,38.980
641.00,39.088
642.00,39.137
643.00,39.154
644.00,39.202
645.00,39.454
646.00,39.563
647.00,39.590
648.00,39.658
649.00,39.654
650.00,39.682
651.00,39.836
652.00,40.039
653.00,39.936
654.00,40.044
655.00,40.220
656.00,40.500
657.00,40.599
658.00,40.188
659.00,40.757
660.00,40.690
661.00,40.691
662.00,40.895
663.00,40.950
664.00,41.146
665.00,41.366
666.00,41.394
667.00,41.540
668.00,41.125
669.00,41.783
670.00,41.915
671.00,41.801
672.00,41.823
673.00,41.927
674.00,42.053
675.00,42.194
676.00,42.413
677.00,42.531
678.00,42.338
679.00,42.523
680.00,42.667
681.00,42.903
682.00,42.922
683.00,42.914
684.00,43.071
685.00,43.139
686.00,43.082
687.00,43.323
688.00,43.415
689.00,43.365
690.00,43.607
691.00,43.925
692.00,43.810
693.00,43.658
694.00,43.932
695.00,44.201
696.00,44.197
697.00,44.258
698.00,44.287
699.00,44.507
700.00,44.491
701.00,44.549
702.00,44.769
703.00,45.027
704.00,45.015
705.00,44.986
706.00,45.085
707.00,45.088
708.00,45.068
709.00,45.486
710.00,45.793
711.00,45.371
712.00,45.536
713.00,45.724
714.00,45.769
715.00,45.838
716.00,45.795
717.00,46.033
718.00,46.146
719.00,46.106
720.00,46.281
721.00,50.725
722.00,50.719
723.00,50.820
724.00,50.792
725.00,50.809
726.00,50.908
727.00,51.000
728.00,51.037
729.00,50.967
730.00,51.110
731.00,51.133
732.00,51.068
733.00,51.194
734.00,51.231
735.00,51.279
736.00,51.314
737.00,51.305
738.00,51.395
739.00,51.456
740.00,51.448
741.00,51.465
742.00,51.582
743.00,51.547
744.00,51.629
745.00,51.636
746.00,51.599
747.00,51.626
748.00,51.582
749.00,51.663
750.00,51.618
751.00,51.671
752.00,51.627
753.00,51.709
754.00,51.694
755.00,51.734
756.00,51.766
757.00,51.832
758.00,51.861
759.00,51.786
760.00,51.902
761.00,51.817
762.00,51.850
763.00,51.947
764.00,51.891
765.00,51.998
766.00,51.925
767.00,52.017
768.00,51.974
769.00,51.978
770.00,52.060
771.00,52.079
772.00,52.085
773.00,52.157
774.00,52.167
775.00,52.098
776.00,52.115
777.00,52.205
778.00,52.225
779.00,52.155
780.00,52.202
781.00,52.104
782.00,52.219
783.00,52.210
784.00,52.271
785.00,52.145
786.00,52.221
787.00,52.148
788.00,52.172
789.00,52.180
790.00,52.147
791.00,52.207
792.00,52.080
793.00,52.228
794.00,52.195
795.00,52.186
796.00,52.109
797.00,52.074
798.00,52.120
799.00,52.116
800.00,52.065
801.00,52.101
802.00,52.130
803.00,52.141
804.00,52.010
805.00,52.147
806.00,52.043
807.00,52.068
808.00,52.087
809.00,52.032
810.00,51.992
811.00,51.976
812.00,52.058
813.00,51.995
814.00,52.057
815.00,52.029
816.00,52.014
817.00,51.961
818.00,51.934
819.00,51.887
820.00,51.899
821.00,51.875
822.00,51.913
823.00,51.872
824.00,51.862
825.00,51.857
826.00,51.792
827.00,51.979
828.00,51.841
829.00,51.870
830.00,51.729
831.00,53.973
832.00,53.970
833.00,53.935
834.00,53.910
835.00,53.927
836.00,53.918
837.00,53.893
838.00,53.937
839.00,53.902
840.00,53.809
841.00,53.860
842.00,53.821
843.00,53.847
844.00,53.818
845.00,53.754
846.00,53.789
847.00,53.726
848.00,53.735
849.00,53.621
850.00,53.693
851.00,53.638
852.00,53.659
853.00,53.591
854.00,53.553
855.00,53.528
856.00,53.494
857.00,53.483
858.00,53.450
859.00,53.488
860.00,53.338
861.00,53.457
862.00,53.375
863.00,53.425
864.00,53.368
865.00,53.372
866.00,53.356
867.00,53.387
868.00,53.352
869.00,53.328
870.00,53.327
871.00,53.321
872.00,53.296
873.00,53.297
874.00,53.310
875.00,53.253
876.00,53.267
877.00,53.259
878.00,53.284
879.00,53.203
880.00,53.233
881.00,53.203
882.00,53.232
883.00,53.199
884.00,53.125
885.00,53.132
886.00,53.119
887.00,53.101
888.00,53.052
889.00,53.070
890.00,53.064
891.00,53.027
892.00,53.001
893.00,52.994
894.00,53.010
895.00,52.955
896.00,52.932
897.00,52.932
898.00,52.897
899.00,52.899
900.00,52.852
901.00,52.889
902.00,52.895
903.00,52.835
904.00,52.835
905.00,52.837
906.00,52.830
907.00,52.796
908.00,52.743
909.00,52.720
910.00,52.673
911.00,52.685
912.00,52.668
913.00,52.676
914.00,52.669
915.00,52.597
916.00,52.607
917.00,52.580
918.00,52.555
919.00,52.508
920.00,52.499
921.00,52.506
922.00,52.500
923.00,52.489
924.00,52.436
925.00,52.464
926.00,52.413
927.00,52.398
928.00,52.383
929.00,52.393
930.00,52.317
931.00,52.304
932.00,52.390
933.00,52.312
934.00,52.288
935.00,52.271
936.00,52.236
937.00,52.230
938.00,52.215
939.00,52.213
940.00,52.152
941.00,52.157
942.00,52.141
943.00,52.107
944.00,52.090
945.00,52.067
946.00,52.197
947.00,52.040
948.00,52.033
949.00,52.000
950.00,51.993
951.00,51.953
952.00,51.947
953.00,51.899
954.00,51.896
955.00,51.841
956.00,51.824
957.00,51.785
958.00,51.810
959.00,51.738
960.00,51.744
961.00,51.731
962.00,51.721
963.00,51.677
964.00,51.674
965.00,51.669
966.00,51.662
967.00,51.650
968.00,51.626
969.00,51.650
970.00,51.621
971.00,51.636
972.00,51.657
973.00,51.648
974.00,51.671
975.00,51.623
976.00,51.643
977.00,51.626
978.00,51.669
979.00,51.615
980.00,51.642
981.00,51.641
982.00,51.611
983.00,51.618
984.00,51.592
985.00,51.616
986.00,51.568
987.00,51.601
988.00,51.569
989.00,51.553
990.00,51.566
991.00,51.530
992.00,51.546
993.00,51.569
994.00,51.520
995.00,51.500
996.00,51.486
997.00,51.482
998.00,51.454
999.00,51.490
1000.00,51.444
1001.00,51.441
1002.00,51.425
1003.00,51.415
1004.00,51.399
1005.00,51.372
1006.00,51.393
1007.00,51.358
1008.00,51.340
1009.00,51.322
1010.00,51.321
1011.00,51.311
1012.00,51.276
1013.00,51.286
1014.00,51.252
1015.00,51.262
1016.00,51.213
1017.00,51.219
1018.00,51.198
1019.00,51.161
1020.00,51.164
1021.00,51.151
1022.00,51.138
1023.00,51.095
1024.00,51.111
1025.00,51.077
1026.00,51.075
1027.00,51.051
1028.00,51.036
1029.00,51.027
1030.00,51.002
1031.00,51.010
1032.00,50.960
1033.00,50.958
1034.00,50.944
1035.00,50.898
1036.00,50.865
1037.00,50.853
1038.00,50.838
1039.00,50.798
1040.00,50.803
1041.00,50.779
1042.00,50.773
1043.00,50.765
1044.00,50.785
1045.00,50.771
1046.00,50.747
1047.00,50.763
1048.00,50.776
1049.00,50.774
1050.00,50.778
1051.00,50.827
1052.00,50.817
1053.00,50.834
1054.00,50.874
1055.00,50.850
1056.00,50.872
1057.00,50.877
1058.00,50.847
1059.00,50.861
1060.00,50.860
1061.00,50.845
1062.00,50.835
1063.00,50.832
1064.00,50.830
1065.00,50.820
1066.00,50.804
1067.00,50.803
1068.00,50.825
1069.00,50.767
1070.00,50.764
1071.00,50.745
1072.00,50.760
1073.00,50.736
1074.00,50.733
1075.00,50.717
1076.00,50.713
1077.00,50.699
1078.00,50.679
1079.00,50.688
1080.00,50.663
1081.00,50.670
1082.00,50.655
1083.00,50.642
1084.00,50.642
1085.00,50.631
1086.00,50.617
1087.00,50.614
1088.00,50.585
1089.00,50.594
1090.00,50.591
1091.00,50.579
1092.00,50.570
1093.00,50.554
1094.00,50.525
1095.00,50.522
1096.00,50.502
1097.00,50.503
1098.00,50.496
1099.00,50.494
1100.00,50.472
1101.00,50.481
1102.00,50.451
1103.00,50.464
1104.00,50.457
1105.00,50.437
1106.00,50.441
1107.00,50.423
1108.00,50.408
1109.00,50.414
1110.00,50.408
1111.00,50.400
1112.00,50.383
1113.00,50.374
1114.00,50.378
1115.00,50.369
1116.00,50.344
1117.00,50.343
1118.00,50.330
1119.00,50.324
1120.00,50.320
1121.00,50.309
1122.00,50.291
1123.00,50.292
1124.00,50.299
1125.00,50.295
1126.00,50.291
1127.00,50.279
1128.00,50.270
1129.00,50.224
1130.00,50.235
1131.00,50.244
1132.00,50.229
1133.00,50.233
1134.00,50.204
1135.00,50.191
1136.00,50.208
1137.00,50.212
1138.00,50.186
1139.00,50.209
1140.00,50.195
1141.00,50.195
1142.00,50.209
1143.00,50.221
1144.00,50.179
1145.00,50.179
1146.00,50.157
1147.00,50.152
1148.00,50.144
1149.00,50.152
1150.00,50.152
1151.00,50.139
1152.00,50.129
1153.00,50.135
1154.00,50.111
1155.00,50.124
1156.00,50.112
1157.00,50.113
1158.00,50.107
1159.00,50.114
1160.00,50.113
1161.00,50.122
1162.00,50.112
1163.00,50.114
1164.00,50.119
1165.00,50.095
1166.00,50.106
1167.00,50.097
1168.00,50.097
1169.00,50.101
1170.00,50.110
1171.00,50.080
1172.00,50.086
1173.00,50.075
1174.00,50.086
1175.00,50.087
1176.00,50.081
1177.00,50.071
1178.00,50.081
1179.00,50.083
1180.00,50.073
1181.00,50.092
1182.00,50.069
1183.00,50.067
1184.00,50.053
1185.00,50.064
1186.00,50.062
1187.00,50.041
1188.00,50.048
1189.00,50.043
1190.00,50.052
1191.00,50.050
1192.00,50.053
1193.00,50.048
1194.00,50.060
1195.00,50.016
1196.00,50.045
1197.00,50.054
1198.00,50.022
1199.00,50.025
1200.00,50.031
1201.00,50.040
1202.00,50.024
1203.00,50.024
1204.00,50.002
1205.00,50.021
1206.00,50.008
1207.00,50.016
1208.00,50.007
1209.00,50.005
1210.00,50.015
1211.00,50.004
1212.00,50.009
1213.00,49.985
1214.00,50.013
1215.00,49.989
1216.00,49.998
1217.00,50.009
1218.00,49.983
1219.00,50.005
1220.00,49.977
1221.00,50.007
1222.00,50.001
1223.00,50.014
1224.00,50.015
1225.00,49.997
1226.00,50.006
1227.00,50.000
1228.00,50.018
1229.00,50.010
1230.00,50.033
1231.00,50.016
1232.00,50.041
1233.00,50.047
1234.00,50.047
1235.00,50.050
1236.00,50.059
1237.00,50.067
1238.00,50.048
1239.00,50.060
1240.00,50.046
1241.00,50.055
1242.00,50.066
1243.00,50.081
1244.00,50.063
1245.00,50.072
1246.00,50.093
1247.00,50.072
1248.00,50.048
1249.00,50.080
1250.00,50.083
1251.00,50.067
1252.00,50.093
1253.00,50.054
1254.00,50.092
1255.00,50.081
1256.00,50.044
1257.00,50.049
1258.00,50.090
1259.00,50.082
1260.00,50.108
1261.00,50.107
1262.00,50.091
1263.00,50.093
1264.00,50.098
1265.00,50.100
1266.00,50.113
1267.00,50.130
1268.00,50.124
1269.00,50.119
1270.00,50.128
1271.00,50.143
1272.00,50.138
1273.00,50.152
1274.00,50.147
1275.00,50.143
1276.00,50.138
1277.00,50.152
1278.00,50.156
1279.00,50.164
1280.00,50.163
1281.00,50.165
1282.00,50.177
1283.00,50.167
1284.00,50.182
1285.00,50.179
1286.00,50.184
1287.00,50.189
1288.00,50.188
1289.00,50.171
1290.00,50.212
1291.00,50.199
1292.00,50.196
1293.00,50.201
1294.00,50.216
1295.00,50.236
1296.00,50.223
1297.00,50.240
1298.00,50.293
1299.00,50.241
1300.00,50.241
1301.00,50.243
1302.00,50.261
1303.00,50.260
1304.00,50.243
1305.00,50.266
1306.00,50.281
1307.00,50.287
1308.00,50.274
1309.00,50.285
1310.00,50.291
1311.00,50.261
1312.00,50.270
1313.00,50.284
1314.00,50.313
1315.00,50.319
1316.00,50.309
1317.00,50.351
1318.00,50.362
1319.00,50.361
1320.00,50.377
1321.00,50.561
1322.00,50.515
1323.00,50.514
1324.00,50.490
1325.00,50.487
1326.00,50.506
1327.00,50.497
1328.00,50.494
1329.00,50.489
1330.00,50.477
1331.00,50.502
1332.00,50.488
1333.00,50.484
1334.00,50.520
1335.00,50.529
1336.00,50.556
1337.00,50.599
1338.00,50.622
1339.00,50.698
1340.00,50.756
1341.00,50.816
1342.00,50.896
1343.00,50.936
1344.00,50.973
1345.00,51.044
1346.00,51.067
1347.00,51.072
1348.00,51.117
1349.00,51.108
1350.00,51.158
1351.00,51.160
1352.00,51.164
1353.00,51.208
1354.00,51.175
1355.00,51.148
1356.00,51.212
1357.00,51.197
1358.00,51.152
1359.00,51.218
1360.00,51.179
1361.00,51.317
1362.00,51.128
1363.00,51.228
1364.00,51.332
1365.00,51.201
1366.00,51.268
1367.00,51.165
1368.00,51.134
1369.00,51.276
1370.00,51.201
1371.00,51.069
1372.00,51.166
1373.00,51.163
1374.00,51.189
1375.00,51.196
1376.00,51.168
1377.00,51.149
1378.00,51.192
1379.00,51.206
1380.00,51.181
1381.00,51.217
1382.00,51.158
1383.00,51.195
1384.00,51.126
1385.00,51.113
1386.00,51.180
1387.00,51.002
1388.00,51.193
1389.00,51.153
1390.00,51.176
1391.00,51.152
1392.00,51.153
1393.00,51.236
1394.00,51.217
1395.00,51.034
1396.00,51.068
1397.00,51.067
1398.00,51.246
1399.00,51.186
1400.00,51.075
1401.00,51.064
1402.00,51.322
1403.00,51.265
1404.00,51.120
1405.00,51.227
1406.00,51.187
1407.00,51.224
1408.00,51.227
1409.00,51.176
1410.00,51.209
1411.00,51.219
1412.00,51.281
1413.00,51.201
1414.00,51.225
1415.00,51.239
1416.00,51.309
1417.00,51.317
1418.00,51.215
1419.00,51.377
1420.00,51.311
1421.00,51.337
1422.00,51.336
1423.00,51.338
1424.00,51.340
1425.00,51.358
1426.00,51.369
1427.00,51.399
1428.00,51.380
1429.00,51.375
1430.00,51.431
1431.00,51.420
1432.00,51.428
1433.00,51.466
1434.00,51.445
1435.00,51.510
1436.00,51.520
1437.00,51.497
1438.00,51.519
1439.00,51.558
1440.00,51.560
1441.00,51.561
1442.00,51.563
1443.00,51.589
1444.00,51.672
1445.00,51.611
1446.00,51.607
1447.00,51.672
1448.00,51.697
1449.00,51.738
1450.00,51.740
1451.00,51.685
1452.00,51.734
1453.00,51.749
1454.00,51.751
1455.00,51.783
1456.00,51.798
1457.00,51.786
1458.00,51.811
1459.00,51.816
1460.00,51.840
1461.00,51.846
1462.00,51.854
1463.00,51.902
1464.00,51.910
1465.00,51.914
1466.00,51.928
1467.00,51.912
1468.00,51.962
1469.00,51.945
1470.00,51.964
1471.00,51.996
1472.00,52.001
1473.00,51.977
1474.00,52.029
1475.00,52.023
1476.00,52.029
1477.00,52.037
1478.00,52.046
1479.00,52.087
1480.00,52.114
1481.00,52.122
1482.00,52.148
1483.00,52.147
1484.00,52.145
1485.00,52.167
1486.00,52.165
1487.00,52.181
1488.00,52.200
1489.00,52.188
1490.00,52.202
1491.00,52.227
1492.00,52.233
1493.00,52.233
1494.00,52.273
1495.00,52.245
1496.00,52.290
1497.00,52.284
1498.00,52.276
1499.00,52.309
1500.00,52.314
1501.00, 
1502.00, 
1503.00, 
1504.00, 
1505.00, 
1506.00, 
1507.00, 
1508.00, 
1509.00, 
1510.00, 
1511.00, 
1512.00, 
1513.00, 
1514.00, 
1515.00, 
1516.00, 
1517.00, 
1518.00, 
1519.00, 
1520.00, 
1521.00, 
1522.00, 
1523.00, 
1524.00, 
1525.00, 
1526.00, 
1527.00, 
1528.00, 
1529.00, 
1530.00, 
1531.00, 
1532.00, 
1533.00, 
1534.00, 
1535.00, 
1536.00, 
1537.00, 
1538.00, 
1539.00, 
1540.00, 
1541.00, 
1542.00, 
1543.00, 
1544.00, 
1545.00, 
1546.00, 
1547.00, 
1548.00, 
1549.00, 
1550.00, 
1551.00, 
1552.00, 
1553.00, 
1554.00, 
1555.00, 
1556.00, 
1557.00, 
1558.00, 
1559.00, 
1560.00, 
1561.00, 
1562.00, 
1563.00, 
1564.00, 
1565.00, 
1566.00, 
1567.00, 
1568.00, 
1569.00, 
1570.00, 
1571.00, 
1572.00, 
1573.00, 
1574.00, 
1575.00, 
1576.00, 
1577.00, 
1578.00, 
1579.00, 
1580.00, 
1581.00, 
1582.00, 
1583.00, 
1584.00, 
1585.00, 
1586.00, 
1587.00, 
1588.00, 
1589.00, 
1590.00, 
1591.00, 
1592.00, 
1593.00, 
1594.00, 
1595.00, 
1596.00, 
1597.00, 
1598.00, 
1599.00, 
1600.00, 
1601.00, 
1602.00, 
1603.00, 
1604.00, 
1605.00, 
1606.00, 
1607.00, 
1608.00, 
1609.00, 
1610.00, 
1611.00, 
1612.00, 
1613.00, 
1614.00, 
1615.00, 
1616.00, 
1617.00, 
1618.00, 
1619.00, 
1620.00, 
1621.00, 
1622.00, 
1623.00, 
1624.00, 
1625.00, 
1626.00, 
1627.00, 
1628.00, 
1629.00, 
1630.00, 
1631.00, 
1632.00, 
1633.00, 
1634.00, 
1635.00, 
1636.00, 
1637.00, 
1638.00, 
1639.00, 
1640.00, 
1641.00, 
1642.00, 
1643.00, 
1644.00, 
1645.00, 
1646.00, 
1647.00, 
1648.00, 
1649.00, 
1650.00, 
1651.00, 
1652.00, 
1653.00, 
1654.00, 
1655.00, 
1656.00, 
1657.00, 
1658.00, 
1659.00, 
1660.00, 
1661.00, 
1662.00, 
1663.00, 
1664.00, 
1665.00, 
1666.00, 
1667.00, 
1668.00, 
1669.00, 
1670.00, 
1671.00, 
1672.00, 
1673.00, 
1674.00, 
1675.00, 
1676.00, 
1677.00, 
1678.00, 
1679.00, 
1680.00, 
1681.00, 
1682.00, 
1683.00, 
1684.00, 
1685.00, 
1686.00, 
1687.00, 
1688.00, 
1689.00, 
1690.00, 
1691.00, 
1692.00, 
1693.00, 
1694.00, 
1695.00, 
1696.00, 
1697.00, 
1698.00, 
1699.00, 
1700.00, 
1701.00, 
1702.00, 
1703.00, 
1704.00, 
1705.00, 
1706.00, 
1707.00, 
1708.00, 
1709.00, 
1710.00, 
1711.00, 
1712.00, 
1713.00, 
1714.00, 
1715.00, 
1716.00, 
1717.00, 
1718.00, 
1719.00, 
1720.00, 
1721.00, 
1722.00, 
1723.00, 
1724.00, 
1725.00, 
1726.00, 
1727.00, 
1728.00, 
1729.00, 
1730.00, 
1731.00, 
1732.00, 
1733.00, 
1734.00, 
1735.00, 
1736.00, 
1737.00, 
1738.00, 
1739.00, 
1740.00, 
1741.00, 
1742.00, 
1743.00, 
1744.00, 
1745.00, 
1746.00, 
1747.00, 
1748.00, 
1749.00, 
1750.00, 
1751.00, 
1752.00, 
1753.00, 
1754.00, 
1755.00, 
1756.00, 
1757.00, 
1758.00, 
1759.00, 
1760.00, 
1761.00, 
1762.00, 
1763.00, 
1764.00, 
1765.00, 
1766.00, 
1767.00, 
1768.00, 
1769.00, 
1770.00, 
1771.00, 
1772.00, 
1773.00, 
1774.00, 
1775.00, 
1776.00, 
1777.00, 
1778.00, 
1779.00, 
1780.00, 
1781.00, 
1782.00, 
1783.00, 
1784.00, 
1785.00, 
1786.00, 
1787.00, 
1788.00, 
1789.00, 
1790.00, 
1791.00, 
1792.00, 
1793.00, 
1794.00, 
1795.00, 
1796.00, 
1797.00, 
1798.00, 
1799.00, 
1800.00, 
1801.00, 
1802.00, 
1803.00, 
1804.00, 
1805.00, 
1806.00, 
1807.00, 
1808.00, 
1809.00, 
1810.00, 
1811.00, 
1812.00, 
1813.00, 
1814.00, 
1815.00, 
1816.00, 
1817.00, 
1818.00, 
1819.00, 
1820.00, 
1821.00, 
1822.00, 
1823.00, 
1824.00, 
1825.00, 
1826.00, 
1827.00, 
1828.00, 
1829.00, 
1830.00, 
1831.00, 
1832.00, 
1833.00, 
1834.00, 
1835.00, 
1836.00, 
1837.00, 
1838.00, 
1839.00, 
1840.00, 
1841.00, 
1842.00, 
1843.00, 
1844.00, 
1845.00, 
1846.00, 
1847.00, 
1848.00, 
1849.00, 
1850.00, 
1851.00, 
1852.00, 
1853.00, 
1854.00, 
1855.00, 
1856.00, 
1857.00, 
1858.00, 
1859.00, 
1860.00, 
1861.00, 
1862.00, 
1863.00, 
1864.00, 
1865.00, 
1866.00, 
1867.00, 
1868.00, 
1869.00, 
1870.00, 
1871.00, 
1872.00, 
1873.00, 
1874.00, 
1875.00, 
1876.00, 
1877.00, 
1878.00, 
1879.00, 
1880.00, 
1881.00, 
1882.00, 
1883.00, 
1884.00, 
1885.00, 
1886.00, 
1887.00, 
1888.00, 
1889.00, 
1890.00, 
1891.00, 
1892.00, 
1893.00, 
1894.00, 
1895.00, 
1896.00, 
1897.00, 
1898.00, 
1899.00, 
1900.00, 
1901.00, 
1902.00, 
1903.00, 
1904.00, 
1905.00, 
1906.00, 
1907.00, 
1908.00, 
1909.00, 
1910.00, 
1911.00, 
1912.00, 
1913.00, 
1914.00, 
1915.00, 
1916.00, 
1917.00, 
1918.00, 
1919.00, 
1920.00, 
1921.00, 
1922.00, 
1923.00, 
1924.00, 
1925.00, 
1926.00, 
1927.00, 
1928.00, 
1929.00, 
1930.00, 
1931.00, 
1932.00, 
1933.00, 
1934.00, 
1935.00, 
1936.00, 
1937.00, 
1938.00, 
1939.00, 
1940.00, 
1941.00, 
1942.00, 
1943.00, 
1944.00, 
1945.00, 
1946.00, 
1947.00, 
1948.00, 
1949.00, 
1950.00, 
1951.00, 
1952.00, 
1953.00, 
1954.00, 
1955.00, 
1956.00, 
1957.00, 
1958.00, 
1959.00, 
1960.00, 
1961.00, 
1962.00, 
1963.00, 
1964.00, 
1965.00, 
1966.00, 
1967.00, 
1968.00, 
1969.00, 
1970.00, 
1971.00, 
1972.00, 
1973.00, 
1974.00, 
1975.00, 
1976.00, 
1977.00, 
1978.00, 
1979.00, 
1980.00, 
1981.00, 
1982.00, 
1983.00, 
1984.00, 
1985.00, 
1986.00, 
1987.00, 
1988.00, 
1989.00, 
1990.00, 
1991.00, 
1992.00, 
1993.00, 
1994.00, 
1995.00, 
1996.00, 
1997.00, 
1998.00, 
1999.00, 
2000.00, 
2001.00, 
2002.00, 
2003.00, 
2004.00, 
2005.00, 
2006.00, 
2007.00, 
2008.00, 
2009.00, 
2010.00, 
2011.00, 
2012.00, 
2013.00, 
2014.00, 
2015.00, 
2016.00, 
2017.00, 
2018.00, 
2019.00, 
2020.00, 
2021.00, 
2022.00, 
2023.00, 
2024.00, 
2025.00, 
2026.00, 
2027.00, 
2028.00, 
2029.00, 
2030.00, 
2031.00, 
2032.00, 
2033.00, 
2034.00, 
2035.00, 
2036.00, 
2037.00, 
2038.00, 
2039.00, 
2040.00, 
2041.00, 
2042.00, 
2043.00, 
2044.00, 
2045.00, 
2046.00, 
2047.00, 
2048.00, 
2049.00, 
2050.00, 
2051.00, 
2052.00, 
2053.00, 
2054.00, 
2055.00, 
2056.00, 
2057.00, 
2058.00, 
2059.00, 
2060.00, 
2061.00, 
2062.00, 
2063.00, 
2064.00, 
2065.00, 
2066.00, 
2067.00, 
2068.00, 
2069.00, 
2070.00, 
2071.00, 
2072.00, 
2073.00, 
2074.00, 
2075.00, 
2076.00, 
2077.00, 
2078.00, 
2079.00, 
2080.00, 
2081.00, 
2082.00, 
2083.00, 
2084.00, 
2085.00, 
2086.00, 
2087.00, 
2088.00, 
2089.00, 
2090.00, 
2091.00, 
2092.00, 
2093.00, 
2094.00, 
2095.00, 
2096.00, 
2097.00, 
2098.00, 
2099.00, 
2100.00, 
2101.00, 
2102.00, 
2103.00, 
2104.00, 
2105.00, 
2106.00, 
2107.00, 
2108.00, 
2109.00, 
2110.00, 
2111.00, 
2112.00, 
2113.00, 
2114.00, 
2115.00, 
2116.00, 
2117.00, 
2118.00, 
2119.00, 
2120.00, 
2121.00, 
2122.00, 
2123.00, 
2124.00, 
2125.00, 
2126.00, 
2127.00, 
2128.00, 
2129.00, 
2130.00, 
2131.00, 
2132.00, 
2133.00, 
2134.00, 
2135.00, 
2136.00, 
2137.00, 
2138.00, 
2139.00, 
2140.00, 
2141.00, 
2142.00, 
2143.00, 
2144.00, 
2145.00, 
2146.00, 
2147.00, 
2148.00, 
2149.00, 
2150.00, 
2151.00, 
2152.00, 
2153.00, 
2154.00, 
2155.00, 
2156.00, 
2157.00, 
2158.00, 
2159.00, 
2160.00, 
2161.00, 
2162.00, 
2163.00, 
2164.00, 
2165.00, 
2166.00, 
2167.00, 
2168.00, 
2169.00, 
2170.00, 
2171.00, 
2172.00, 
2173.00, 
2174.00, 
2175.00, 
2176.00, 
2177.00, 
2178.00, 
2179.00, 
2180.00, 
2181.00, 
2182.00, 
2183.00, 
2184.00, 
2185.00, 
2186.00, 
2187.00, 
2188.00, 
2189.00, 
2190.00, 
2191.00, 
2192.00, 
2193.00, 
2194.00, 
2195.00, 
2196.00, 
2197.00, 
2198.00, 
2199.00, 
2200.00, 
2201.00, 
2202.00, 
2203.00, 
2204.00, 
2205.00, 
2206.00, 
2207.00, 
2208.00, 
2209.00, 
2210.00, 
2211.00, 
2212.00, 
2213.00, 
2214.00, 
2215.00, 
2216.00, 
2217.00, 
2218.00, 
2219.00, 
2220.00, 
2221.00, 
2222.00, 
2223.00, 
2224.00, 
2225.00, 
2226.00, 
2227.00, 
2228.00, 
2229.00, 
2230.00, 
2231.00, 
2232.00, 
2233.00, 
2234.00, 
2235.00, 
2236.00, 
2237.00, 
2238.00, 
2239.00, 
2240.00, 
2241.00, 
2242.00, 
2243.00, 
2244.00, 
2245.00, 
2246.00, 
2247.00, 
2248.00, 
2249.00, 
2250.00, 
2251.00, 
2252.00, 
2253.00, 
2254.00, 
2255.00, 
2256.00, 
2257.00, 
2258.00, 
2259.00, 
2260.00, 
2261.00, 
2262.00, 
2263.00, 
2264.00, 
2265.00, 
2266.00, 
2267.00, 
2268.00, 
2269.00, 
2270.00, 
2271.00, 
2272.00, 
2273.00, 
2274.00, 
2275.00, 
2276.00, 
2277.00, 
2278.00, 
2279.00, 
2280.00, 
2281.00, 
2282.00, 
2283.00, 
2284.00, 
2285.00, 
2286.00, 
2287.00, 
2288.00, 
2289.00, 
2290.00, 
2291.00, 
2292.00, 
2293.00, 
2294.00, 
2295.00, 
2296.00, 
2297.00, 
2298.00, 
2299.00, 
2300.00, 
2301.00, 
2302.00, 
2303.00, 
2304.00, 
2305.00, 
2306.00, 
2307.00, 
2308.00, 
2309.00, 
2310.00, 
2311.00, 
2312.00, 
2313.00, 
2314.00, 
2315.00, 
2316.00, 
2317.00, 
2318.00, 
2319.00, 
2320.00, 
2321.00, 
2322.00, 
2323.00, 
2324.00, 
2325.00, 
2326.00, 
2327.00, 
2328.00, 
2329.00, 
2330.00, 
2331.00, 
2332.00, 
2333.00, 
2334.00, 
2335.00, 
2336.00, 
2337.00, 
2338.00, 
2339.00, 
2340.00, 
2341.00, 
2342.00, 
2343.00, 
2344.00, 
2345.00, 
2346.00, 
2347.00, 
2348.00, 
2349.00, 
2350.00, 
2351.00, 
2352.00, 
2353.00, 
2354.00, 
2355.00, 
2356.00, 
2357.00, 
2358.00, 
2359.00, 
2360.00, 
2361.00, 
2362.00, 
2363.00, 
2364.00, 
2365.00, 
2366.00, 
2367.00, 
2368.00, 
2369.00, 
2370.00, 
2371.00, 
2372.00, 
2373.00, 
2374.00, 
2375.00, 
2376.00, 
2377.00, 
2378.00, 
2379.00, 
2380.00, 
2381.00, 
2382.00, 
2383.00, 
2384.00, 
2385.00, 
2386.00, 
2387.00, 
2388.00, 
2389.00, 
2390.00, 
2391.00, 
2392.00, 
2393.00, 
2394.00, 
2395.00, 
2396.00, 
2397.00, 
2398.00, 
2399.00, 
2400.00, 
2401.00, 
2402.00, 
2403.00, 
2404.00, 
2405.00, 
2406.00, 
2407.00, 
2408.00, 
2409.00, 
2410.00, 
2411.00, 
2412.00, 
2413.00, 
2414.00, 
2415.00, 
2416.00, 
2417.00, 
2418.00, 
2419.00, 
2420.00, 
2421.00, 
2422.00, 
2423.00, 
2424.00, 
2425.00, 
2426.00, 
2427.00, 
2428.00, 
2429.00, 
2430.00, 
2431.00, 
2432.00, 
2433.00, 
2434.00, 
2435.00, 
2436.00, 
2437.00, 
2438.00, 
2439.00, 
2440.00, 
2441.00, 
2442.00, 
2443.00, 
2444.00, 
2445.00, 
2446.00, 
2447.00, 
2448.00, 
2449.00, 
2450.00, 
2451.00, 
2452.00, 
2453.00, 
2454.00, 
2455.00, 
2456.00, 
2457.00, 
2458.00, 
2459.00, 
2460.00, 
2461.00, 
2462.00, 
2463.00, 
2464.00, 
2465.00, 
2466.00, 
2467.00, 
2468.00, 
2469.00, 
2470.00, 
2471.00, 
2472.00, 
2473.00, 
2474.00, 
2475.00, 
2476.00, 
2477.00, 
2478.00, 
2479.00, 
2480.00, 
2481.00, 
2482.00, 
2483.00, 
2484.00, 
2485.00, 
2486.00, 
2487.00, 
2488.00, 
2489.00, 
2490.00, 
2491.00, 
2492.00, 
2493.00, 
2494.00, 
2495.00, 
2496.00, 
2497.00, 
2498.00, 
2499.00, 
2500.00, 
2501.00, 
2502.00, 
2503.00, 
2504.00, 
2505.00, 
2506.00, 
2507.00, 
2508.00, 
2509.00, 
2510.00, 
2511.00, 
2512.00, 
2513.00, 
2514.00, 
2515.00, 
2516.00, 
2517.00, 
2518.00, 
2519.00, 
2520.00, 
2521.00, 
2522.00, 
2523.00, 
2524.00, 
2525.00, 
2526.00, 
2527.00, 
2528.00, 
2529.00, 
2530.00, 
2531.00, 
2532.00, 
2533.00, 
2534.00, 
2535.00, 
2536.00, 
2537.00, 
2538.00, 
2539.00, 
2540.00, 
2541.00, 
2542.00, 
2543.00, 
2544.00, 
2545.00, 
2546.00, 
2547.00, 
2548.00, 
2549.00, 
2550.00, 
2551.00, 
2552.00, 
2553.00, 
2554.00, 
2555.00, 
2556.00, 
2557.00, 
2558.00, 
2559.00, 
2560.00, 
2561.00, 
2562.00, 
2563.00, 
2564.00, 
2565.00, 
2566.00, 
2567.00, 
2568.00, 
2569.00, 
2570.00, 
2571.00, 
2572.00, 
2573.00, 
2574.00, 
2575.00, 
2576.00, 
2577.00, 
2578.00, 
2579.00, 
2580.00, 
2581.00, 
2582.00, 
2583.00, 
2584.00, 
2585.00, 
2586.00, 
2587.00, 
2588.00, 
2589.00, 
2590.00, 
2591.00, 
2592.00, 
2593.00, 
2594.00, 
2595.00, 
2596.00, 
2597.00, 
2598.00, 
2599.00, 
2600.00, 
