"1bP2 - RawData"
"Wavelength nm.","T%"
200.00,0.003
201.00,0.002
202.00,-0.000
203.00,0.004
204.00,0.002
205.00,0.001
206.00,0.001
207.00,0.001
208.00,0.002
209.00,0.003
210.00,0.002
211.00,-0.000
212.00,0.001
213.00,0.002
214.00,0.002
215.00,-0.001
216.00,0.003
217.00,0.001
218.00,-0.001
219.00,0.003
220.00,-0.001
221.00,0.001
222.00,0.000
223.00,0.002
224.00,0.001
225.00,0.002
226.00,0.001
227.00,-0.001
228.00,-0.000
229.00,0.004
230.00,0.002
231.00,0.001
232.00,-0.000
233.00,-0.002
234.00,0.001
235.00,0.000
236.00,0.001
237.00,0.001
238.00,-0.001
239.00,0.001
240.00,-0.001
241.00,0.001
242.00,-0.001
243.00,0.000
244.00,0.000
245.00,0.001
246.00,0.001
247.00,-0.001
248.00,0.001
249.00,0.001
250.00,0.001
251.00,0.001
252.00,0.002
253.00,-0.000
254.00,0.000
255.00,-0.000
256.00,0.001
257.00,0.001
258.00,0.000
259.00,0.001
260.00,0.000
261.00,0.001
262.00,0.001
263.00,-0.000
264.00,0.002
265.00,0.001
266.00,-0.001
267.00,0.003
268.00,0.000
269.00,0.001
270.00,0.002
271.00,-0.001
272.00,0.001
273.00,0.001
274.00,-0.000
275.00,-0.002
276.00,0.001
277.00,0.001
278.00,0.000
279.00,0.001
280.00,0.000
281.00,0.001
282.00,-0.001
283.00,0.000
284.00,-0.001
285.00,0.000
286.00,0.001
287.00,-0.002
288.00,0.002
289.00,-0.000
290.00,0.000
291.00,0.001
292.00,0.001
293.00,0.000
294.00,-0.000
295.00,0.001
296.00,0.000
297.00,0.001
298.00,0.002
299.00,0.003
300.00,0.004
301.00,0.007
302.00,0.010
303.00,0.014
304.00,0.022
305.00,0.034
306.00,0.057
307.00,0.081
308.00,0.129
309.00,0.197
310.00,0.265
311.00,0.366
312.00,0.484
313.00,0.651
314.00,0.852
315.00,1.103
316.00,1.380
317.00,1.745
318.00,2.144
319.00,2.599
320.00,3.135
321.00,3.732
322.00,4.354
323.00,5.113
324.00,5.870
325.00,6.651
326.00,7.405
327.00,8.317
328.00,9.212
329.00,10.101
330.00,11.015
331.00,11.960
332.00,12.969
333.00,13.933
334.00,14.883
335.00,15.717
336.00,16.793
337.00,17.713
338.00,18.629
339.00,19.444
340.00,20.306
341.00,21.086
342.00,21.881
343.00,22.602
344.00,23.322
345.00,24.053
346.00,24.675
347.00,25.195
348.00,25.837
349.00,26.297
350.00,26.816
351.00,27.249
352.00,27.655
353.00,28.079
354.00,28.336
355.00,28.810
356.00,29.005
357.00,29.387
358.00,29.740
359.00,30.005
360.00,30.263
361.00,30.411
362.00,30.740
363.00,30.900
364.00,31.045
365.00,31.250
366.00,31.256
367.00,31.358
368.00,31.441
369.00,31.475
370.00,31.531
371.00,31.622
372.00,31.531
373.00,31.545
374.00,31.623
375.00,31.593
376.00,31.542
377.00,31.550
378.00,31.469
379.00,31.303
380.00,31.340
381.00,31.291
382.00,31.316
383.00,31.348
384.00,31.306
385.00,31.464
386.00,31.362
387.00,31.594
388.00,31.668
389.00,31.633
390.00,31.670
391.00,31.765
392.00,31.821
393.00,31.773
394.00,31.817
395.00,31.936
396.00,31.863
397.00,31.853
398.00,31.887
399.00,31.902
400.00,31.967
401.00,31.913
402.00,31.941
403.00,31.954
404.00,31.928
405.00,31.918
406.00,31.919
407.00,31.833
408.00,31.867
409.00,31.779
410.00,31.711
411.00,31.743
412.00,31.703
413.00,31.735
414.00,31.599
415.00,31.566
416.00,31.664
417.00,31.677
418.00,31.727
419.00,31.811
420.00,31.848
421.00,31.897
422.00,31.845
423.00,31.935
424.00,31.987
425.00,32.012
426.00,32.008
427.00,32.034
428.00,32.108
429.00,32.120
430.00,32.186
431.00,32.287
432.00,32.264
433.00,32.296
434.00,32.361
435.00,32.432
436.00,32.487
437.00,32.557
438.00,32.610
439.00,32.642
440.00,32.706
441.00,32.793
442.00,32.876
443.00,32.881
444.00,33.002
445.00,33.012
446.00,33.142
447.00,33.267
448.00,33.339
449.00,33.460
450.00,33.535
451.00,33.564
452.00,33.657
453.00,33.774
454.00,33.868
455.00,33.970
456.00,34.106
457.00,34.205
458.00,34.272
459.00,34.382
460.00,34.502
461.00,34.628
462.00,34.725
463.00,34.835
464.00,34.972
465.00,35.068
466.00,35.163
467.00,35.280
468.00,35.343
469.00,35.448
470.00,35.516
471.00,35.650
472.00,35.734
473.00,35.718
474.00,35.862
475.00,35.956
476.00,36.031
477.00,36.134
478.00,36.215
479.00,36.381
480.00,36.506
481.00,36.590
482.00,36.733
483.00,36.817
484.00,36.997
485.00,37.118
486.00,37.218
487.00,37.358
488.00,37.493
489.00,37.648
490.00,37.746
491.00,37.853
492.00,38.071
493.00,38.175
494.00,38.184
495.00,38.313
496.00,38.363
497.00,38.489
498.00,38.649
499.00,38.706
500.00,38.828
501.00,38.840
502.00,38.896
503.00,39.157
504.00,39.173
505.00,39.297
506.00,39.419
507.00,39.421
508.00,39.493
509.00,39.666
510.00,39.813
511.00,39.827
512.00,39.987
513.00,40.163
514.00,40.238
515.00,40.309
516.00,40.386
517.00,40.488
518.00,40.527
519.00,40.629
520.00,40.610
521.00,40.708
522.00,40.775
523.00,40.791
524.00,40.901
525.00,40.959
526.00,41.024
527.00,41.156
528.00,41.154
529.00,41.281
530.00,41.386
531.00,41.566
532.00,41.596
533.00,41.709
534.00,41.747
535.00,41.798
536.00,41.895
537.00,41.912
538.00,41.976
539.00,41.970
540.00,42.037
541.00,42.039
542.00,42.088
543.00,42.137
544.00,42.117
545.00,42.168
546.00,42.202
547.00,42.408
548.00,42.481
549.00,42.515
550.00,42.536
551.00,42.658
552.00,42.698
553.00,42.735
554.00,42.789
555.00,42.792
556.00,42.822
557.00,42.846
558.00,42.932
559.00,42.964
560.00,43.021
561.00,43.083
562.00,43.118
563.00,43.148
564.00,43.181
565.00,43.190
566.00,43.209
567.00,43.236
568.00,43.302
569.00,43.271
570.00,43.301
571.00,43.372
572.00,43.396
573.00,43.325
574.00,43.330
575.00,43.392
576.00,43.362
577.00,43.414
578.00,43.520
579.00,43.564
580.00,43.572
581.00,43.750
582.00,43.741
583.00,43.766
584.00,43.900
585.00,43.902
586.00,43.948
587.00,44.047
588.00,44.048
589.00,43.877
590.00,43.933
591.00,44.064
592.00,44.017
593.00,44.101
594.00,44.176
595.00,44.235
596.00,44.297
597.00,44.367
598.00,44.456
599.00,44.389
600.00,44.383
601.00,44.418
602.00,44.385
603.00,44.409
604.00,44.408
605.00,44.498
606.00,44.453
607.00,44.462
608.00,44.636
609.00,44.689
610.00,44.552
611.00,44.633
612.00,44.664
613.00,44.679
614.00,44.734
615.00,44.802
616.00,44.876
617.00,44.844
618.00,44.801
619.00,44.896
620.00,44.899
621.00,44.949
622.00,45.025
623.00,45.044
624.00,45.143
625.00,45.133
626.00,45.199
627.00,45.226
628.00,45.251
629.00,45.241
630.00,45.237
631.00,45.287
632.00,45.327
633.00,45.480
634.00,45.508
635.00,45.539
636.00,45.607
637.00,45.632
638.00,45.647
639.00,45.710
640.00,45.782
641.00,45.711
642.00,45.808
643.00,45.870
644.00,45.944
645.00,45.957
646.00,46.029
647.00,46.077
648.00,46.103
649.00,46.123
650.00,46.073
651.00,46.147
652.00,46.224
653.00,46.227
654.00,46.287
655.00,46.327
656.00,46.546
657.00,46.577
658.00,46.545
659.00,46.696
660.00,46.286
661.00,46.699
662.00,46.797
663.00,46.769
664.00,46.946
665.00,47.134
666.00,47.001
667.00,47.083
668.00,47.108
669.00,47.288
670.00,47.453
671.00,47.365
672.00,47.390
673.00,47.347
674.00,47.424
675.00,47.477
676.00,47.530
677.00,47.770
678.00,47.607
679.00,47.754
680.00,47.777
681.00,47.930
682.00,47.969
683.00,47.939
684.00,48.052
685.00,48.115
686.00,47.952
687.00,48.064
688.00,48.166
689.00,48.142
690.00,48.341
691.00,48.523
692.00,48.234
693.00,48.253
694.00,48.390
695.00,48.372
696.00,48.522
697.00,48.581
698.00,48.326
699.00,48.617
700.00,48.710
701.00,48.439
702.00,48.570
703.00,49.182
704.00,49.232
705.00,48.928
706.00,48.947
707.00,49.037
708.00,48.778
709.00,49.079
710.00,49.452
711.00,48.996
712.00,49.049
713.00,49.285
714.00,49.265
715.00,49.422
716.00,49.268
717.00,49.317
718.00,49.512
719.00,49.469
720.00,49.603
721.00,54.203
722.00,54.159
723.00,54.099
724.00,54.103
725.00,54.097
726.00,54.075
727.00,54.036
728.00,53.974
729.00,54.068
730.00,54.006
731.00,54.087
732.00,53.967
733.00,54.038
734.00,54.064
735.00,54.129
736.00,54.048
737.00,54.045
738.00,54.060
739.00,54.017
740.00,54.027
741.00,54.034
742.00,54.021
743.00,54.062
744.00,54.049
745.00,54.054
746.00,53.902
747.00,53.997
748.00,53.941
749.00,53.990
750.00,53.938
751.00,53.889
752.00,53.878
753.00,53.916
754.00,53.916
755.00,53.860
756.00,53.808
757.00,53.762
758.00,53.840
759.00,53.774
760.00,53.815
761.00,53.740
762.00,53.778
763.00,53.816
764.00,53.657
765.00,53.731
766.00,53.774
767.00,53.740
768.00,53.710
769.00,53.758
770.00,53.783
771.00,53.673
772.00,53.640
773.00,53.592
774.00,53.721
775.00,53.694
776.00,53.631
777.00,53.657
778.00,53.568
779.00,53.746
780.00,53.584
781.00,53.623
782.00,53.572
783.00,53.644
784.00,53.580
785.00,53.447
786.00,53.607
787.00,53.549
788.00,53.458
789.00,53.437
790.00,53.363
791.00,53.424
792.00,53.343
793.00,53.357
794.00,53.324
795.00,53.350
796.00,53.354
797.00,53.258
798.00,53.307
799.00,53.252
800.00,53.117
801.00,53.158
802.00,53.138
803.00,53.158
804.00,53.157
805.00,53.122
806.00,53.094
807.00,53.101
808.00,53.031
809.00,53.008
810.00,52.933
811.00,52.978
812.00,52.981
813.00,52.992
814.00,52.987
815.00,52.994
816.00,52.945
817.00,52.822
818.00,52.725
819.00,52.803
820.00,52.703
821.00,52.781
822.00,52.816
823.00,52.614
824.00,52.830
825.00,52.639
826.00,52.683
827.00,52.766
828.00,52.766
829.00,52.594
830.00,52.733
831.00,55.219
832.00,55.222
833.00,55.149
834.00,55.138
835.00,55.095
836.00,55.103
837.00,55.098
838.00,55.079
839.00,55.040
840.00,54.998
841.00,55.026
842.00,54.964
843.00,54.961
844.00,54.946
845.00,54.910
846.00,54.926
847.00,54.878
848.00,54.859
849.00,54.758
850.00,54.863
851.00,54.737
852.00,54.770
853.00,54.690
854.00,54.677
855.00,54.626
856.00,54.609
857.00,54.583
858.00,54.565
859.00,54.526
860.00,54.519
861.00,54.518
862.00,54.492
863.00,54.495
864.00,54.369
865.00,54.461
866.00,54.408
867.00,54.403
868.00,54.413
869.00,54.391
870.00,54.421
871.00,54.429
872.00,54.409
873.00,54.366
874.00,54.363
875.00,54.327
876.00,54.350
877.00,54.353
878.00,54.283
879.00,54.338
880.00,54.344
881.00,54.224
882.00,54.296
883.00,54.203
884.00,54.206
885.00,54.199
886.00,54.174
887.00,54.135
888.00,54.128
889.00,54.099
890.00,54.106
891.00,54.084
892.00,54.044
893.00,54.038
894.00,54.046
895.00,54.046
896.00,53.982
897.00,53.950
898.00,53.945
899.00,53.958
900.00,53.912
901.00,53.933
902.00,53.914
903.00,53.872
904.00,53.856
905.00,53.807
906.00,53.825
907.00,53.835
908.00,53.702
909.00,53.827
910.00,53.742
911.00,53.739
912.00,53.717
913.00,53.664
914.00,53.636
915.00,53.657
916.00,53.559
917.00,53.602
918.00,53.614
919.00,53.521
920.00,53.562
921.00,53.535
922.00,53.533
923.00,53.508
924.00,53.458
925.00,53.475
926.00,53.468
927.00,53.449
928.00,53.385
929.00,53.398
930.00,53.358
931.00,53.358
932.00,53.311
933.00,53.344
934.00,53.326
935.00,53.303
936.00,53.256
937.00,53.252
938.00,53.260
939.00,53.232
940.00,53.219
941.00,53.215
942.00,53.172
943.00,53.166
944.00,53.096
945.00,53.120
946.00,53.126
947.00,53.119
948.00,53.059
949.00,53.044
950.00,53.010
951.00,52.996
952.00,52.987
953.00,52.954
954.00,52.933
955.00,52.860
956.00,52.878
957.00,52.833
958.00,52.845
959.00,52.796
960.00,52.802
961.00,52.774
962.00,52.811
963.00,52.740
964.00,52.756
965.00,52.755
966.00,52.727
967.00,52.731
968.00,52.700
969.00,52.735
970.00,52.706
971.00,52.722
972.00,52.666
973.00,52.725
974.00,52.754
975.00,52.687
976.00,52.715
977.00,52.705
978.00,52.761
979.00,52.703
980.00,52.724
981.00,52.793
982.00,52.690
983.00,52.709
984.00,52.718
985.00,52.731
986.00,52.679
987.00,52.727
988.00,52.676
989.00,52.656
990.00,52.662
991.00,52.634
992.00,52.665
993.00,52.606
994.00,52.592
995.00,52.597
996.00,52.581
997.00,52.567
998.00,52.540
999.00,52.576
1000.00,52.522
1001.00,52.511
1002.00,52.512
1003.00,52.519
1004.00,52.489
1005.00,52.456
1006.00,52.510
1007.00,52.455
1008.00,52.437
1009.00,52.415
1010.00,52.414
1011.00,52.409
1012.00,52.378
1013.00,52.395
1014.00,52.373
1015.00,52.379
1016.00,52.332
1017.00,52.335
1018.00,52.335
1019.00,52.299
1020.00,52.296
1021.00,52.261
1022.00,52.262
1023.00,52.202
1024.00,52.208
1025.00,52.199
1026.00,52.191
1027.00,52.154
1028.00,52.160
1029.00,52.155
1030.00,52.118
1031.00,52.130
1032.00,52.095
1033.00,52.096
1034.00,52.081
1035.00,52.048
1036.00,52.034
1037.00,52.005
1038.00,51.960
1039.00,51.954
1040.00,51.929
1041.00,51.896
1042.00,51.916
1043.00,51.879
1044.00,51.914
1045.00,51.890
1046.00,51.885
1047.00,51.922
1048.00,51.926
1049.00,51.930
1050.00,51.946
1051.00,51.982
1052.00,51.975
1053.00,51.996
1054.00,51.978
1055.00,51.993
1056.00,52.012
1057.00,52.012
1058.00,52.001
1059.00,51.999
1060.00,52.011
1061.00,52.014
1062.00,51.991
1063.00,51.994
1064.00,52.003
1065.00,51.981
1066.00,51.975
1067.00,51.971
1068.00,51.978
1069.00,51.932
1070.00,51.931
1071.00,51.905
1072.00,51.944
1073.00,51.928
1074.00,51.917
1075.00,51.898
1076.00,51.913
1077.00,51.902
1078.00,51.874
1079.00,51.878
1080.00,51.892
1081.00,51.875
1082.00,51.869
1083.00,51.868
1084.00,51.862
1085.00,51.855
1086.00,51.843
1087.00,51.844
1088.00,51.837
1089.00,51.816
1090.00,51.826
1091.00,51.840
1092.00,51.822
1093.00,51.796
1094.00,51.794
1095.00,51.778
1096.00,51.756
1097.00,51.762
1098.00,51.756
1099.00,51.740
1100.00,51.738
1101.00,51.747
1102.00,51.707
1103.00,51.712
1104.00,51.687
1105.00,51.686
1106.00,51.673
1107.00,51.668
1108.00,51.662
1109.00,51.652
1110.00,51.646
1111.00,51.640
1112.00,51.631
1113.00,51.629
1114.00,51.615
1115.00,51.615
1116.00,51.613
1117.00,51.591
1118.00,51.585
1119.00,51.582
1120.00,51.575
1121.00,51.587
1122.00,51.558
1123.00,51.559
1124.00,51.557
1125.00,51.562
1126.00,51.550
1127.00,51.555
1128.00,51.535
1129.00,51.527
1130.00,51.498
1131.00,51.496
1132.00,51.487
1133.00,51.489
1134.00,51.479
1135.00,51.472
1136.00,51.480
1137.00,51.470
1138.00,51.487
1139.00,51.484
1140.00,51.468
1141.00,51.456
1142.00,51.449
1143.00,51.484
1144.00,51.432
1145.00,51.425
1146.00,51.447
1147.00,51.427
1148.00,51.420
1149.00,51.469
1150.00,51.439
1151.00,51.440
1152.00,51.431
1153.00,51.439
1154.00,51.426
1155.00,51.428
1156.00,51.429
1157.00,51.441
1158.00,51.434
1159.00,51.422
1160.00,51.429
1161.00,51.437
1162.00,51.425
1163.00,51.422
1164.00,51.424
1165.00,51.411
1166.00,51.414
1167.00,51.402
1168.00,51.436
1169.00,51.414
1170.00,51.415
1171.00,51.408
1172.00,51.411
1173.00,51.411
1174.00,51.413
1175.00,51.410
1176.00,51.416
1177.00,51.409
1178.00,51.409
1179.00,51.428
1180.00,51.407
1181.00,51.425
1182.00,51.429
1183.00,51.417
1184.00,51.405
1185.00,51.425
1186.00,51.415
1187.00,51.402
1188.00,51.391
1189.00,51.400
1190.00,51.399
1191.00,51.391
1192.00,51.406
1193.00,51.400
1194.00,51.397
1195.00,51.367
1196.00,51.400
1197.00,51.399
1198.00,51.390
1199.00,51.391
1200.00,51.411
1201.00,51.426
1202.00,51.406
1203.00,51.410
1204.00,51.397
1205.00,51.413
1206.00,51.393
1207.00,51.407
1208.00,51.389
1209.00,51.414
1210.00,51.405
1211.00,51.371
1212.00,51.417
1213.00,51.381
1214.00,51.401
1215.00,51.404
1216.00,51.405
1217.00,51.403
1218.00,51.390
1219.00,51.406
1220.00,51.381
1221.00,51.384
1222.00,51.383
1223.00,51.420
1224.00,51.408
1225.00,51.386
1226.00,51.410
1227.00,51.407
1228.00,51.417
1229.00,51.424
1230.00,51.473
1231.00,51.442
1232.00,51.449
1233.00,51.456
1234.00,51.452
1235.00,51.461
1236.00,51.441
1237.00,51.460
1238.00,51.458
1239.00,51.457
1240.00,51.450
1241.00,51.465
1242.00,51.451
1243.00,51.464
1244.00,51.443
1245.00,51.484
1246.00,51.493
1247.00,51.470
1248.00,51.491
1249.00,51.481
1250.00,51.499
1251.00,51.486
1252.00,51.499
1253.00,51.486
1254.00,51.512
1255.00,51.506
1256.00,51.488
1257.00,51.483
1258.00,51.522
1259.00,51.522
1260.00,51.537
1261.00,51.534
1262.00,51.528
1263.00,51.517
1264.00,51.528
1265.00,51.526
1266.00,51.510
1267.00,51.518
1268.00,51.542
1269.00,51.514
1270.00,51.573
1271.00,51.577
1272.00,51.576
1273.00,51.594
1274.00,51.588
1275.00,51.603
1276.00,51.597
1277.00,51.605
1278.00,51.627
1279.00,51.619
1280.00,51.599
1281.00,51.635
1282.00,51.628
1283.00,51.610
1284.00,51.646
1285.00,51.632
1286.00,51.636
1287.00,51.634
1288.00,51.652
1289.00,51.655
1290.00,51.683
1291.00,51.669
1292.00,51.678
1293.00,51.665
1294.00,51.687
1295.00,51.698
1296.00,51.693
1297.00,51.682
1298.00,51.705
1299.00,51.716
1300.00,51.736
1301.00,51.729
1302.00,51.753
1303.00,51.738
1304.00,51.716
1305.00,51.754
1306.00,51.741
1307.00,51.751
1308.00,51.764
1309.00,51.770
1310.00,51.772
1311.00,51.752
1312.00,51.770
1313.00,51.769
1314.00,51.792
1315.00,51.809
1316.00,51.812
1317.00,51.819
1318.00,51.843
1319.00,51.852
1320.00,51.835
1321.00,51.983
1322.00,51.973
1323.00,51.968
1324.00,51.972
1325.00,51.952
1326.00,51.959
1327.00,51.942
1328.00,51.937
1329.00,51.925
1330.00,51.958
1331.00,51.968
1332.00,51.943
1333.00,51.958
1334.00,51.982
1335.00,52.007
1336.00,52.030
1337.00,52.046
1338.00,52.129
1339.00,52.183
1340.00,52.238
1341.00,52.318
1342.00,52.382
1343.00,52.419
1344.00,52.477
1345.00,52.527
1346.00,52.551
1347.00,52.558
1348.00,52.576
1349.00,52.588
1350.00,52.616
1351.00,52.632
1352.00,52.650
1353.00,52.633
1354.00,52.640
1355.00,52.809
1356.00,52.697
1357.00,52.627
1358.00,52.634
1359.00,52.694
1360.00,52.754
1361.00,53.424
1362.00,52.590
1363.00,52.746
1364.00,52.819
1365.00,52.715
1366.00,52.772
1367.00,52.695
1368.00,52.663
1369.00,52.734
1370.00,52.696
1371.00,52.638
1372.00,52.646
1373.00,52.682
1374.00,52.690
1375.00,52.706
1376.00,52.675
1377.00,52.645
1378.00,52.663
1379.00,52.671
1380.00,52.681
1381.00,52.664
1382.00,52.616
1383.00,52.705
1384.00,52.595
1385.00,52.632
1386.00,52.686
1387.00,52.610
1388.00,52.626
1389.00,52.588
1390.00,52.599
1391.00,52.640
1392.00,52.653
1393.00,52.671
1394.00,52.664
1395.00,52.615
1396.00,52.601
1397.00,52.593
1398.00,52.632
1399.00,52.655
1400.00,52.575
1401.00,52.604
1402.00,52.724
1403.00,52.650
1404.00,52.637
1405.00,52.663
1406.00,52.700
1407.00,52.685
1408.00,52.740
1409.00,52.674
1410.00,52.718
1411.00,52.662
1412.00,52.763
1413.00,52.650
1414.00,52.696
1415.00,52.723
1416.00,52.738
1417.00,52.734
1418.00,52.725
1419.00,52.767
1420.00,52.767
1421.00,52.883
1422.00,52.816
1423.00,52.799
1424.00,52.808
1425.00,52.821
1426.00,52.832
1427.00,52.881
1428.00,52.855
1429.00,52.886
1430.00,52.906
1431.00,52.909
1432.00,52.920
1433.00,52.925
1434.00,52.923
1435.00,52.978
1436.00,52.986
1437.00,52.946
1438.00,52.983
1439.00,53.007
1440.00,53.044
1441.00,53.051
1442.00,53.046
1443.00,53.063
1444.00,53.103
1445.00,53.077
1446.00,53.095
1447.00,53.111
1448.00,53.176
1449.00,53.155
1450.00,53.132
1451.00,53.156
1452.00,53.172
1453.00,53.183
1454.00,53.221
1455.00,53.235
1456.00,53.238
1457.00,53.247
1458.00,53.260
1459.00,53.269
1460.00,53.285
1461.00,53.291
1462.00,53.341
1463.00,53.337
1464.00,53.345
1465.00,53.384
1466.00,53.361
1467.00,53.389
1468.00,53.449
1469.00,53.422
1470.00,53.438
1471.00,53.466
1472.00,53.452
1473.00,53.485
1474.00,53.502
1475.00,53.491
1476.00,53.518
1477.00,53.495
1478.00,53.507
1479.00,53.541
1480.00,53.536
1481.00,53.543
1482.00,53.582
1483.00,53.578
1484.00,53.598
1485.00,53.600
1486.00,53.604
1487.00,53.634
1488.00,53.644
1489.00,53.628
1490.00,53.644
1491.00,53.646
1492.00,53.661
1493.00,53.666
1494.00,53.697
1495.00,53.696
1496.00,53.744
1497.00,53.703
1498.00,53.738
1499.00,53.744
1500.00,53.749
1501.00, 
1502.00, 
1503.00, 
1504.00, 
1505.00, 
1506.00, 
1507.00, 
1508.00, 
1509.00, 
1510.00, 
1511.00, 
1512.00, 
1513.00, 
1514.00, 
1515.00, 
1516.00, 
1517.00, 
1518.00, 
1519.00, 
1520.00, 
1521.00, 
1522.00, 
1523.00, 
1524.00, 
1525.00, 
1526.00, 
1527.00, 
1528.00, 
1529.00, 
1530.00, 
1531.00, 
1532.00, 
1533.00, 
1534.00, 
1535.00, 
1536.00, 
1537.00, 
1538.00, 
1539.00, 
1540.00, 
1541.00, 
1542.00, 
1543.00, 
1544.00, 
1545.00, 
1546.00, 
1547.00, 
1548.00, 
1549.00, 
1550.00, 
1551.00, 
1552.00, 
1553.00, 
1554.00, 
1555.00, 
1556.00, 
1557.00, 
1558.00, 
1559.00, 
1560.00, 
1561.00, 
1562.00, 
1563.00, 
1564.00, 
1565.00, 
1566.00, 
1567.00, 
1568.00, 
1569.00, 
1570.00, 
1571.00, 
1572.00, 
1573.00, 
1574.00, 
1575.00, 
1576.00, 
1577.00, 
1578.00, 
1579.00, 
1580.00, 
1581.00, 
1582.00, 
1583.00, 
1584.00, 
1585.00, 
1586.00, 
1587.00, 
1588.00, 
1589.00, 
1590.00, 
1591.00, 
1592.00, 
1593.00, 
1594.00, 
1595.00, 
1596.00, 
1597.00, 
1598.00, 
1599.00, 
1600.00, 
1601.00, 
1602.00, 
1603.00, 
1604.00, 
1605.00, 
1606.00, 
1607.00, 
1608.00, 
1609.00, 
1610.00, 
1611.00, 
1612.00, 
1613.00, 
1614.00, 
1615.00, 
1616.00, 
1617.00, 
1618.00, 
1619.00, 
1620.00, 
1621.00, 
1622.00, 
1623.00, 
1624.00, 
1625.00, 
1626.00, 
1627.00, 
1628.00, 
1629.00, 
1630.00, 
1631.00, 
1632.00, 
1633.00, 
1634.00, 
1635.00, 
1636.00, 
1637.00, 
1638.00, 
1639.00, 
1640.00, 
1641.00, 
1642.00, 
1643.00, 
1644.00, 
1645.00, 
1646.00, 
1647.00, 
1648.00, 
1649.00, 
1650.00, 
1651.00, 
1652.00, 
1653.00, 
1654.00, 
1655.00, 
1656.00, 
1657.00, 
1658.00, 
1659.00, 
1660.00, 
1661.00, 
1662.00, 
1663.00, 
1664.00, 
1665.00, 
1666.00, 
1667.00, 
1668.00, 
1669.00, 
1670.00, 
1671.00, 
1672.00, 
1673.00, 
1674.00, 
1675.00, 
1676.00, 
1677.00, 
1678.00, 
1679.00, 
1680.00, 
1681.00, 
1682.00, 
1683.00, 
1684.00, 
1685.00, 
1686.00, 
1687.00, 
1688.00, 
1689.00, 
1690.00, 
1691.00, 
1692.00, 
1693.00, 
1694.00, 
1695.00, 
1696.00, 
1697.00, 
1698.00, 
1699.00, 
1700.00, 
1701.00, 
1702.00, 
1703.00, 
1704.00, 
1705.00, 
1706.00, 
1707.00, 
1708.00, 
1709.00, 
1710.00, 
1711.00, 
1712.00, 
1713.00, 
1714.00, 
1715.00, 
1716.00, 
1717.00, 
1718.00, 
1719.00, 
1720.00, 
1721.00, 
1722.00, 
1723.00, 
1724.00, 
1725.00, 
1726.00, 
1727.00, 
1728.00, 
1729.00, 
1730.00, 
1731.00, 
1732.00, 
1733.00, 
1734.00, 
1735.00, 
1736.00, 
1737.00, 
1738.00, 
1739.00, 
1740.00, 
1741.00, 
1742.00, 
1743.00, 
1744.00, 
1745.00, 
1746.00, 
1747.00, 
1748.00, 
1749.00, 
1750.00, 
1751.00, 
1752.00, 
1753.00, 
1754.00, 
1755.00, 
1756.00, 
1757.00, 
1758.00, 
1759.00, 
1760.00, 
1761.00, 
1762.00, 
1763.00, 
1764.00, 
1765.00, 
1766.00, 
1767.00, 
1768.00, 
1769.00, 
1770.00, 
1771.00, 
1772.00, 
1773.00, 
1774.00, 
1775.00, 
1776.00, 
1777.00, 
1778.00, 
1779.00, 
1780.00, 
1781.00, 
1782.00, 
1783.00, 
1784.00, 
1785.00, 
1786.00, 
1787.00, 
1788.00, 
1789.00, 
1790.00, 
1791.00, 
1792.00, 
1793.00, 
1794.00, 
1795.00, 
1796.00, 
1797.00, 
1798.00, 
1799.00, 
1800.00, 
1801.00, 
1802.00, 
1803.00, 
1804.00, 
1805.00, 
1806.00, 
1807.00, 
1808.00, 
1809.00, 
1810.00, 
1811.00, 
1812.00, 
1813.00, 
1814.00, 
1815.00, 
1816.00, 
1817.00, 
1818.00, 
1819.00, 
1820.00, 
1821.00, 
1822.00, 
1823.00, 
1824.00, 
1825.00, 
1826.00, 
1827.00, 
1828.00, 
1829.00, 
1830.00, 
1831.00, 
1832.00, 
1833.00, 
1834.00, 
1835.00, 
1836.00, 
1837.00, 
1838.00, 
1839.00, 
1840.00, 
1841.00, 
1842.00, 
1843.00, 
1844.00, 
1845.00, 
1846.00, 
1847.00, 
1848.00, 
1849.00, 
1850.00, 
1851.00, 
1852.00, 
1853.00, 
1854.00, 
1855.00, 
1856.00, 
1857.00, 
1858.00, 
1859.00, 
1860.00, 
1861.00, 
1862.00, 
1863.00, 
1864.00, 
1865.00, 
1866.00, 
1867.00, 
1868.00, 
1869.00, 
1870.00, 
1871.00, 
1872.00, 
1873.00, 
1874.00, 
1875.00, 
1876.00, 
1877.00, 
1878.00, 
1879.00, 
1880.00, 
1881.00, 
1882.00, 
1883.00, 
1884.00, 
1885.00, 
1886.00, 
1887.00, 
1888.00, 
1889.00, 
1890.00, 
1891.00, 
1892.00, 
1893.00, 
1894.00, 
1895.00, 
1896.00, 
1897.00, 
1898.00, 
1899.00, 
1900.00, 
1901.00, 
1902.00, 
1903.00, 
1904.00, 
1905.00, 
1906.00, 
1907.00, 
1908.00, 
1909.00, 
1910.00, 
1911.00, 
1912.00, 
1913.00, 
1914.00, 
1915.00, 
1916.00, 
1917.00, 
1918.00, 
1919.00, 
1920.00, 
1921.00, 
1922.00, 
1923.00, 
1924.00, 
1925.00, 
1926.00, 
1927.00, 
1928.00, 
1929.00, 
1930.00, 
1931.00, 
1932.00, 
1933.00, 
1934.00, 
1935.00, 
1936.00, 
1937.00, 
1938.00, 
1939.00, 
1940.00, 
1941.00, 
1942.00, 
1943.00, 
1944.00, 
1945.00, 
1946.00, 
1947.00, 
1948.00, 
1949.00, 
1950.00, 
1951.00, 
1952.00, 
1953.00, 
1954.00, 
1955.00, 
1956.00, 
1957.00, 
1958.00, 
1959.00, 
1960.00, 
1961.00, 
1962.00, 
1963.00, 
1964.00, 
1965.00, 
1966.00, 
1967.00, 
1968.00, 
1969.00, 
1970.00, 
1971.00, 
1972.00, 
1973.00, 
1974.00, 
1975.00, 
1976.00, 
1977.00, 
1978.00, 
1979.00, 
1980.00, 
1981.00, 
1982.00, 
1983.00, 
1984.00, 
1985.00, 
1986.00, 
1987.00, 
1988.00, 
1989.00, 
1990.00, 
1991.00, 
1992.00, 
1993.00, 
1994.00, 
1995.00, 
1996.00, 
1997.00, 
1998.00, 
1999.00, 
2000.00, 
2001.00, 
2002.00, 
2003.00, 
2004.00, 
2005.00, 
2006.00, 
2007.00, 
2008.00, 
2009.00, 
2010.00, 
2011.00, 
2012.00, 
2013.00, 
2014.00, 
2015.00, 
2016.00, 
2017.00, 
2018.00, 
2019.00, 
2020.00, 
2021.00, 
2022.00, 
2023.00, 
2024.00, 
2025.00, 
2026.00, 
2027.00, 
2028.00, 
2029.00, 
2030.00, 
2031.00, 
2032.00, 
2033.00, 
2034.00, 
2035.00, 
2036.00, 
2037.00, 
2038.00, 
2039.00, 
2040.00, 
2041.00, 
2042.00, 
2043.00, 
2044.00, 
2045.00, 
2046.00, 
2047.00, 
2048.00, 
2049.00, 
2050.00, 
2051.00, 
2052.00, 
2053.00, 
2054.00, 
2055.00, 
2056.00, 
2057.00, 
2058.00, 
2059.00, 
2060.00, 
2061.00, 
2062.00, 
2063.00, 
2064.00, 
2065.00, 
2066.00, 
2067.00, 
2068.00, 
2069.00, 
2070.00, 
2071.00, 
2072.00, 
2073.00, 
2074.00, 
2075.00, 
2076.00, 
2077.00, 
2078.00, 
2079.00, 
2080.00, 
2081.00, 
2082.00, 
2083.00, 
2084.00, 
2085.00, 
2086.00, 
2087.00, 
2088.00, 
2089.00, 
2090.00, 
2091.00, 
2092.00, 
2093.00, 
2094.00, 
2095.00, 
2096.00, 
2097.00, 
2098.00, 
2099.00, 
2100.00, 
2101.00, 
2102.00, 
2103.00, 
2104.00, 
2105.00, 
2106.00, 
2107.00, 
2108.00, 
2109.00, 
2110.00, 
2111.00, 
2112.00, 
2113.00, 
2114.00, 
2115.00, 
2116.00, 
2117.00, 
2118.00, 
2119.00, 
2120.00, 
2121.00, 
2122.00, 
2123.00, 
2124.00, 
2125.00, 
2126.00, 
2127.00, 
2128.00, 
2129.00, 
2130.00, 
2131.00, 
2132.00, 
2133.00, 
2134.00, 
2135.00, 
2136.00, 
2137.00, 
2138.00, 
2139.00, 
2140.00, 
2141.00, 
2142.00, 
2143.00, 
2144.00, 
2145.00, 
2146.00, 
2147.00, 
2148.00, 
2149.00, 
2150.00, 
2151.00, 
2152.00, 
2153.00, 
2154.00, 
2155.00, 
2156.00, 
2157.00, 
2158.00, 
2159.00, 
2160.00, 
2161.00, 
2162.00, 
2163.00, 
2164.00, 
2165.00, 
2166.00, 
2167.00, 
2168.00, 
2169.00, 
2170.00, 
2171.00, 
2172.00, 
2173.00, 
2174.00, 
2175.00, 
2176.00, 
2177.00, 
2178.00, 
2179.00, 
2180.00, 
2181.00, 
2182.00, 
2183.00, 
2184.00, 
2185.00, 
2186.00, 
2187.00, 
2188.00, 
2189.00, 
2190.00, 
2191.00, 
2192.00, 
2193.00, 
2194.00, 
2195.00, 
2196.00, 
2197.00, 
2198.00, 
2199.00, 
2200.00, 
2201.00, 
2202.00, 
2203.00, 
2204.00, 
2205.00, 
2206.00, 
2207.00, 
2208.00, 
2209.00, 
2210.00, 
2211.00, 
2212.00, 
2213.00, 
2214.00, 
2215.00, 
2216.00, 
2217.00, 
2218.00, 
2219.00, 
2220.00, 
2221.00, 
2222.00, 
2223.00, 
2224.00, 
2225.00, 
2226.00, 
2227.00, 
2228.00, 
2229.00, 
2230.00, 
2231.00, 
2232.00, 
2233.00, 
2234.00, 
2235.00, 
2236.00, 
2237.00, 
2238.00, 
2239.00, 
2240.00, 
2241.00, 
2242.00, 
2243.00, 
2244.00, 
2245.00, 
2246.00, 
2247.00, 
2248.00, 
2249.00, 
2250.00, 
2251.00, 
2252.00, 
2253.00, 
2254.00, 
2255.00, 
2256.00, 
2257.00, 
2258.00, 
2259.00, 
2260.00, 
2261.00, 
2262.00, 
2263.00, 
2264.00, 
2265.00, 
2266.00, 
2267.00, 
2268.00, 
2269.00, 
2270.00, 
2271.00, 
2272.00, 
2273.00, 
2274.00, 
2275.00, 
2276.00, 
2277.00, 
2278.00, 
2279.00, 
2280.00, 
2281.00, 
2282.00, 
2283.00, 
2284.00, 
2285.00, 
2286.00, 
2287.00, 
2288.00, 
2289.00, 
2290.00, 
2291.00, 
2292.00, 
2293.00, 
2294.00, 
2295.00, 
2296.00, 
2297.00, 
2298.00, 
2299.00, 
2300.00, 
2301.00, 
2302.00, 
2303.00, 
2304.00, 
2305.00, 
2306.00, 
2307.00, 
2308.00, 
2309.00, 
2310.00, 
2311.00, 
2312.00, 
2313.00, 
2314.00, 
2315.00, 
2316.00, 
2317.00, 
2318.00, 
2319.00, 
2320.00, 
2321.00, 
2322.00, 
2323.00, 
2324.00, 
2325.00, 
2326.00, 
2327.00, 
2328.00, 
2329.00, 
2330.00, 
2331.00, 
2332.00, 
2333.00, 
2334.00, 
2335.00, 
2336.00, 
2337.00, 
2338.00, 
2339.00, 
2340.00, 
2341.00, 
2342.00, 
2343.00, 
2344.00, 
2345.00, 
2346.00, 
2347.00, 
2348.00, 
2349.00, 
2350.00, 
2351.00, 
2352.00, 
2353.00, 
2354.00, 
2355.00, 
2356.00, 
2357.00, 
2358.00, 
2359.00, 
2360.00, 
2361.00, 
2362.00, 
2363.00, 
2364.00, 
2365.00, 
2366.00, 
2367.00, 
2368.00, 
2369.00, 
2370.00, 
2371.00, 
2372.00, 
2373.00, 
2374.00, 
2375.00, 
2376.00, 
2377.00, 
2378.00, 
2379.00, 
2380.00, 
2381.00, 
2382.00, 
2383.00, 
2384.00, 
2385.00, 
2386.00, 
2387.00, 
2388.00, 
2389.00, 
2390.00, 
2391.00, 
2392.00, 
2393.00, 
2394.00, 
2395.00, 
2396.00, 
2397.00, 
2398.00, 
2399.00, 
2400.00, 
2401.00, 
2402.00, 
2403.00, 
2404.00, 
2405.00, 
2406.00, 
2407.00, 
2408.00, 
2409.00, 
2410.00, 
2411.00, 
2412.00, 
2413.00, 
2414.00, 
2415.00, 
2416.00, 
2417.00, 
2418.00, 
2419.00, 
2420.00, 
2421.00, 
2422.00, 
2423.00, 
2424.00, 
2425.00, 
2426.00, 
2427.00, 
2428.00, 
2429.00, 
2430.00, 
2431.00, 
2432.00, 
2433.00, 
2434.00, 
2435.00, 
2436.00, 
2437.00, 
2438.00, 
2439.00, 
2440.00, 
2441.00, 
2442.00, 
2443.00, 
2444.00, 
2445.00, 
2446.00, 
2447.00, 
2448.00, 
2449.00, 
2450.00, 
2451.00, 
2452.00, 
2453.00, 
2454.00, 
2455.00, 
2456.00, 
2457.00, 
2458.00, 
2459.00, 
2460.00, 
2461.00, 
2462.00, 
2463.00, 
2464.00, 
2465.00, 
2466.00, 
2467.00, 
2468.00, 
2469.00, 
2470.00, 
2471.00, 
2472.00, 
2473.00, 
2474.00, 
2475.00, 
2476.00, 
2477.00, 
2478.00, 
2479.00, 
2480.00, 
2481.00, 
2482.00, 
2483.00, 
2484.00, 
2485.00, 
2486.00, 
2487.00, 
2488.00, 
2489.00, 
2490.00, 
2491.00, 
2492.00, 
2493.00, 
2494.00, 
2495.00, 
2496.00, 
2497.00, 
2498.00, 
2499.00, 
2500.00, 
2501.00, 
2502.00, 
2503.00, 
2504.00, 
2505.00, 
2506.00, 
2507.00, 
2508.00, 
2509.00, 
2510.00, 
2511.00, 
2512.00, 
2513.00, 
2514.00, 
2515.00, 
2516.00, 
2517.00, 
2518.00, 
2519.00, 
2520.00, 
2521.00, 
2522.00, 
2523.00, 
2524.00, 
2525.00, 
2526.00, 
2527.00, 
2528.00, 
2529.00, 
2530.00, 
2531.00, 
2532.00, 
2533.00, 
2534.00, 
2535.00, 
2536.00, 
2537.00, 
2538.00, 
2539.00, 
2540.00, 
2541.00, 
2542.00, 
2543.00, 
2544.00, 
2545.00, 
2546.00, 
2547.00, 
2548.00, 
2549.00, 
2550.00, 
2551.00, 
2552.00, 
2553.00, 
2554.00, 
2555.00, 
2556.00, 
2557.00, 
2558.00, 
2559.00, 
2560.00, 
2561.00, 
2562.00, 
2563.00, 
2564.00, 
2565.00, 
2566.00, 
2567.00, 
2568.00, 
2569.00, 
2570.00, 
2571.00, 
2572.00, 
2573.00, 
2574.00, 
2575.00, 
2576.00, 
2577.00, 
2578.00, 
2579.00, 
2580.00, 
2581.00, 
2582.00, 
2583.00, 
2584.00, 
2585.00, 
2586.00, 
2587.00, 
2588.00, 
2589.00, 
2590.00, 
2591.00, 
2592.00, 
2593.00, 
2594.00, 
2595.00, 
2596.00, 
2597.00, 
2598.00, 
2599.00, 
2600.00, 
