"1cP1 - RawData"
"Wavelength nm.","T%"
200.00,-0.001
201.00,0.002
202.00,0.004
203.00,-0.003
204.00,-0.000
205.00,0.001
206.00,0.002
207.00,0.001
208.00,0.002
209.00,-0.001
210.00,0.001
211.00,0.003
212.00,0.002
213.00,0.002
214.00,0.000
215.00,-0.000
216.00,0.003
217.00,-0.002
218.00,0.004
219.00,0.003
220.00,0.001
221.00,0.002
222.00,-0.001
223.00,-0.003
224.00,0.001
225.00,0.001
226.00,-0.001
227.00,-0.000
228.00,-0.001
229.00,-0.000
230.00,-0.001
231.00,-0.001
232.00,0.003
233.00,0.002
234.00,0.001
235.00,0.001
236.00,-0.000
237.00,0.000
238.00,-0.000
239.00,0.001
240.00,0.001
241.00,0.002
242.00,-0.000
243.00,-0.000
244.00,0.000
245.00,0.002
246.00,-0.003
247.00,0.002
248.00,0.000
249.00,0.001
250.00,-0.000
251.00,0.001
252.00,-0.000
253.00,-0.001
254.00,0.001
255.00,-0.001
256.00,-0.000
257.00,0.000
258.00,0.002
259.00,-0.001
260.00,-0.001
261.00,0.001
262.00,0.001
263.00,0.000
264.00,-0.000
265.00,-0.000
266.00,0.001
267.00,0.000
268.00,-0.000
269.00,0.000
270.00,0.002
271.00,0.000
272.00,0.001
273.00,-0.000
274.00,0.001
275.00,0.000
276.00,-0.000
277.00,0.001
278.00,-0.000
279.00,-0.001
280.00,0.001
281.00,0.001
282.00,0.001
283.00,0.002
284.00,0.002
285.00,-0.001
286.00,0.001
287.00,0.000
288.00,-0.001
289.00,0.000
290.00,0.000
291.00,0.001
292.00,-0.001
293.00,-0.000
294.00,0.002
295.00,0.001
296.00,0.001
297.00,-0.000
298.00,-0.000
299.00,-0.001
300.00,0.000
301.00,0.000
302.00,0.000
303.00,0.001
304.00,0.002
305.00,0.003
306.00,0.002
307.00,0.003
308.00,0.006
309.00,0.016
310.00,0.020
311.00,0.028
312.00,0.047
313.00,0.071
314.00,0.110
315.00,0.161
316.00,0.224
317.00,0.328
318.00,0.441
319.00,0.574
320.00,0.790
321.00,1.021
322.00,1.308
323.00,1.672
324.00,2.068
325.00,2.486
326.00,2.962
327.00,3.521
328.00,4.134
329.00,4.733
330.00,5.444
331.00,6.156
332.00,6.925
333.00,7.772
334.00,8.535
335.00,9.415
336.00,10.235
337.00,11.127
338.00,12.013
339.00,12.827
340.00,13.698
341.00,14.522
342.00,15.322
343.00,16.080
344.00,16.841
345.00,17.596
346.00,18.264
347.00,18.938
348.00,19.581
349.00,20.174
350.00,20.761
351.00,21.311
352.00,21.768
353.00,22.236
354.00,22.646
355.00,23.120
356.00,23.534
357.00,23.831
358.00,24.200
359.00,24.595
360.00,24.927
361.00,25.158
362.00,25.471
363.00,25.692
364.00,25.846
365.00,26.055
366.00,26.172
367.00,26.310
368.00,26.358
369.00,26.477
370.00,26.586
371.00,26.632
372.00,26.619
373.00,26.652
374.00,26.678
375.00,26.654
376.00,26.561
377.00,26.513
378.00,26.405
379.00,26.319
380.00,26.303
381.00,26.311
382.00,26.315
383.00,26.310
384.00,26.426
385.00,26.462
386.00,26.597
387.00,26.757
388.00,26.868
389.00,26.916
390.00,26.978
391.00,27.048
392.00,27.150
393.00,27.160
394.00,27.246
395.00,27.291
396.00,27.275
397.00,27.254
398.00,27.380
399.00,27.349
400.00,27.441
401.00,27.417
402.00,27.414
403.00,27.445
404.00,27.439
405.00,27.400
406.00,27.407
407.00,27.357
408.00,27.383
409.00,27.310
410.00,27.231
411.00,27.232
412.00,27.195
413.00,27.206
414.00,27.190
415.00,27.192
416.00,27.220
417.00,27.188
418.00,27.206
419.00,27.304
420.00,27.340
421.00,27.380
422.00,27.374
423.00,27.422
424.00,27.478
425.00,27.480
426.00,27.470
427.00,27.577
428.00,27.584
429.00,27.615
430.00,27.682
431.00,27.723
432.00,27.741
433.00,27.822
434.00,27.848
435.00,27.922
436.00,27.949
437.00,27.995
438.00,28.086
439.00,28.113
440.00,28.186
441.00,28.267
442.00,28.348
443.00,28.419
444.00,28.492
445.00,28.581
446.00,28.685
447.00,28.766
448.00,28.819
449.00,28.967
450.00,29.076
451.00,29.103
452.00,29.208
453.00,29.314
454.00,29.383
455.00,29.524
456.00,29.657
457.00,29.755
458.00,29.819
459.00,29.971
460.00,30.096
461.00,30.193
462.00,30.292
463.00,30.451
464.00,30.553
465.00,30.645
466.00,30.772
467.00,30.897
468.00,30.966
469.00,31.070
470.00,31.155
471.00,31.240
472.00,31.351
473.00,31.424
474.00,31.510
475.00,31.654
476.00,31.735
477.00,31.830
478.00,31.918
479.00,32.116
480.00,32.229
481.00,32.316
482.00,32.459
483.00,32.579
484.00,32.712
485.00,32.892
486.00,32.978
487.00,33.119
488.00,33.230
489.00,33.422
490.00,33.538
491.00,33.648
492.00,33.884
493.00,34.021
494.00,33.966
495.00,34.131
496.00,34.237
497.00,34.376
498.00,34.467
499.00,34.560
500.00,34.714
501.00,34.756
502.00,34.966
503.00,35.076
504.00,35.088
505.00,35.248
506.00,35.382
507.00,35.382
508.00,35.543
509.00,35.696
510.00,35.818
511.00,35.834
512.00,36.063
513.00,36.165
514.00,36.183
515.00,36.389
516.00,36.475
517.00,36.600
518.00,36.732
519.00,36.771
520.00,36.742
521.00,36.890
522.00,36.923
523.00,36.951
524.00,37.063
525.00,37.174
526.00,37.277
527.00,37.342
528.00,37.372
529.00,37.514
530.00,37.704
531.00,37.817
532.00,37.873
533.00,38.018
534.00,38.058
535.00,38.179
536.00,38.239
537.00,38.282
538.00,38.387
539.00,38.377
540.00,38.488
541.00,38.507
542.00,38.495
543.00,38.601
544.00,38.699
545.00,38.728
546.00,38.782
547.00,38.938
548.00,39.019
549.00,39.038
550.00,39.118
551.00,39.245
552.00,39.261
553.00,39.326
554.00,39.383
555.00,39.426
556.00,39.499
557.00,39.540
558.00,39.572
559.00,39.651
560.00,39.731
561.00,39.754
562.00,39.792
563.00,39.865
564.00,39.920
565.00,39.918
566.00,39.941
567.00,39.966
568.00,40.025
569.00,40.078
570.00,40.131
571.00,40.204
572.00,40.182
573.00,40.153
574.00,40.165
575.00,40.226
576.00,40.223
577.00,40.328
578.00,40.427
579.00,40.428
580.00,40.478
581.00,40.650
582.00,40.704
583.00,40.696
584.00,40.794
585.00,40.861
586.00,40.866
587.00,40.948
588.00,40.971
589.00,40.892
590.00,41.025
591.00,41.038
592.00,40.965
593.00,41.047
594.00,41.146
595.00,41.235
596.00,41.318
597.00,41.359
598.00,41.505
599.00,41.393
600.00,41.488
601.00,41.467
602.00,41.427
603.00,41.396
604.00,41.531
605.00,41.623
606.00,41.615
607.00,41.570
608.00,41.738
609.00,41.827
610.00,41.702
611.00,41.772
612.00,41.866
613.00,41.869
614.00,41.909
615.00,41.973
616.00,42.122
617.00,42.056
618.00,41.983
619.00,42.071
620.00,42.100
621.00,42.204
622.00,42.270
623.00,42.230
624.00,42.361
625.00,42.408
626.00,42.429
627.00,42.447
628.00,42.486
629.00,42.548
630.00,42.599
631.00,42.620
632.00,42.607
633.00,42.766
634.00,42.832
635.00,42.865
636.00,42.912
637.00,42.969
638.00,42.987
639.00,43.069
640.00,43.135
641.00,43.117
642.00,43.194
643.00,43.161
644.00,43.307
645.00,43.317
646.00,43.483
647.00,43.513
648.00,43.519
649.00,43.553
650.00,43.585
651.00,43.702
652.00,43.790
653.00,43.717
654.00,43.772
655.00,43.979
656.00,44.239
657.00,44.055
658.00,44.103
659.00,44.103
660.00,44.121
661.00,44.270
662.00,44.348
663.00,44.338
664.00,44.550
665.00,44.746
666.00,44.631
667.00,44.625
668.00,44.617
669.00,44.884
670.00,45.080
671.00,44.988
672.00,45.127
673.00,45.161
674.00,45.157
675.00,45.128
676.00,45.284
677.00,45.479
678.00,45.322
679.00,45.503
680.00,45.648
681.00,45.726
682.00,45.712
683.00,45.649
684.00,45.747
685.00,45.901
686.00,45.860
687.00,45.951
688.00,45.930
689.00,45.903
690.00,46.094
691.00,46.360
692.00,46.121
693.00,46.172
694.00,46.351
695.00,46.456
696.00,46.510
697.00,46.459
698.00,46.373
699.00,46.683
700.00,46.828
701.00,46.703
702.00,46.839
703.00,46.959
704.00,46.960
705.00,46.893
706.00,46.910
707.00,46.983
708.00,46.841
709.00,47.131
710.00,47.563
711.00,47.015
712.00,46.968
713.00,47.317
714.00,47.411
715.00,47.282
716.00,47.348
717.00,47.507
718.00,47.536
719.00,47.551
720.00,47.575
721.00,52.209
722.00,52.181
723.00,52.109
724.00,52.136
725.00,52.241
726.00,52.233
727.00,52.222
728.00,52.126
729.00,52.194
730.00,52.115
731.00,52.162
732.00,52.108
733.00,52.220
734.00,52.220
735.00,52.205
736.00,52.240
737.00,52.217
738.00,52.194
739.00,52.183
740.00,52.221
741.00,52.244
742.00,52.257
743.00,52.265
744.00,52.227
745.00,52.222
746.00,52.227
747.00,52.194
748.00,52.130
749.00,52.216
750.00,52.139
751.00,52.169
752.00,52.126
753.00,52.064
754.00,52.116
755.00,52.149
756.00,52.090
757.00,52.027
758.00,52.081
759.00,52.019
760.00,52.091
761.00,51.983
762.00,52.010
763.00,52.157
764.00,52.002
765.00,52.032
766.00,52.022
767.00,52.082
768.00,51.950
769.00,52.025
770.00,52.115
771.00,52.006
772.00,51.982
773.00,52.006
774.00,52.051
775.00,51.983
776.00,51.938
777.00,51.968
778.00,51.960
779.00,51.967
780.00,51.956
781.00,51.894
782.00,51.928
783.00,51.880
784.00,51.833
785.00,51.804
786.00,51.814
787.00,51.808
788.00,51.759
789.00,51.661
790.00,51.688
791.00,51.795
792.00,51.688
793.00,51.671
794.00,51.625
795.00,51.663
796.00,51.708
797.00,51.658
798.00,51.591
799.00,51.515
800.00,51.507
801.00,51.498
802.00,51.457
803.00,51.531
804.00,51.483
805.00,51.446
806.00,51.449
807.00,51.376
808.00,51.433
809.00,51.410
810.00,51.309
811.00,51.330
812.00,51.318
813.00,51.257
814.00,51.248
815.00,51.219
816.00,51.221
817.00,51.092
818.00,51.090
819.00,51.118
820.00,51.056
821.00,51.181
822.00,51.129
823.00,51.005
824.00,51.151
825.00,50.987
826.00,50.983
827.00,51.003
828.00,51.120
829.00,50.903
830.00,50.971
831.00,53.220
832.00,53.249
833.00,53.193
834.00,53.172
835.00,53.111
836.00,53.135
837.00,53.097
838.00,53.063
839.00,53.069
840.00,53.000
841.00,53.033
842.00,52.960
843.00,52.969
844.00,52.922
845.00,52.889
846.00,52.898
847.00,52.888
848.00,52.844
849.00,52.788
850.00,52.796
851.00,52.730
852.00,52.750
853.00,52.677
854.00,52.634
855.00,52.567
856.00,52.576
857.00,52.538
858.00,52.522
859.00,52.484
860.00,52.483
861.00,52.477
862.00,52.451
863.00,52.451
864.00,52.383
865.00,52.444
866.00,52.374
867.00,52.362
868.00,52.373
869.00,52.336
870.00,52.336
871.00,52.322
872.00,52.294
873.00,52.251
874.00,52.264
875.00,52.247
876.00,52.233
877.00,52.192
878.00,52.318
879.00,52.188
880.00,52.191
881.00,52.154
882.00,52.170
883.00,52.084
884.00,52.079
885.00,52.081
886.00,52.060
887.00,52.013
888.00,52.037
889.00,51.987
890.00,51.984
891.00,51.934
892.00,51.936
893.00,51.911
894.00,51.891
895.00,51.877
896.00,51.833
897.00,51.796
898.00,51.780
899.00,51.807
900.00,51.752
901.00,51.769
902.00,51.735
903.00,51.688
904.00,51.720
905.00,51.665
906.00,51.670
907.00,51.641
908.00,51.598
909.00,51.600
910.00,51.563
911.00,51.556
912.00,51.561
913.00,51.508
914.00,51.473
915.00,51.495
916.00,51.416
917.00,51.431
918.00,51.424
919.00,51.395
920.00,51.375
921.00,51.360
922.00,51.341
923.00,51.308
924.00,51.272
925.00,51.277
926.00,51.249
927.00,51.262
928.00,51.192
929.00,51.199
930.00,51.175
931.00,51.175
932.00,51.115
933.00,51.161
934.00,51.097
935.00,51.073
936.00,51.036
937.00,51.022
938.00,51.035
939.00,51.026
940.00,50.994
941.00,50.991
942.00,50.946
943.00,50.947
944.00,50.887
945.00,50.906
946.00,50.908
947.00,50.882
948.00,50.828
949.00,50.804
950.00,50.782
951.00,50.769
952.00,50.761
953.00,50.714
954.00,50.699
955.00,50.648
956.00,50.629
957.00,50.605
958.00,50.614
959.00,50.560
960.00,50.578
961.00,50.542
962.00,50.560
963.00,50.499
964.00,50.502
965.00,50.481
966.00,50.468
967.00,50.467
968.00,50.440
969.00,50.454
970.00,50.422
971.00,50.444
972.00,50.388
973.00,50.438
974.00,50.462
975.00,50.410
976.00,50.435
977.00,50.431
978.00,50.490
979.00,50.530
980.00,50.441
981.00,50.440
982.00,50.403
983.00,50.409
984.00,50.394
985.00,50.428
986.00,50.363
987.00,50.414
988.00,50.371
989.00,50.352
990.00,50.359
991.00,50.343
992.00,50.363
993.00,50.307
994.00,50.302
995.00,50.301
996.00,50.285
997.00,50.261
998.00,50.247
999.00,50.278
1000.00,50.220
1001.00,50.233
1002.00,50.220
1003.00,50.215
1004.00,50.196
1005.00,50.159
1006.00,50.197
1007.00,50.142
1008.00,50.124
1009.00,50.105
1010.00,50.117
1011.00,50.109
1012.00,50.080
1013.00,50.086
1014.00,50.041
1015.00,50.060
1016.00,50.010
1017.00,50.011
1018.00,49.995
1019.00,49.948
1020.00,49.959
1021.00,49.935
1022.00,49.932
1023.00,49.895
1024.00,49.911
1025.00,49.882
1026.00,49.871
1027.00,49.842
1028.00,49.845
1029.00,49.824
1030.00,49.789
1031.00,49.815
1032.00,49.763
1033.00,49.757
1034.00,49.737
1035.00,49.702
1036.00,49.677
1037.00,49.664
1038.00,49.646
1039.00,49.625
1040.00,49.624
1041.00,49.581
1042.00,49.591
1043.00,49.571
1044.00,49.592
1045.00,49.580
1046.00,49.554
1047.00,49.578
1048.00,49.598
1049.00,49.604
1050.00,49.620
1051.00,49.651
1052.00,49.625
1053.00,49.646
1054.00,49.640
1055.00,49.658
1056.00,49.679
1057.00,49.687
1058.00,49.669
1059.00,49.665
1060.00,49.666
1061.00,49.654
1062.00,49.650
1063.00,49.660
1064.00,49.666
1065.00,49.640
1066.00,49.612
1067.00,49.629
1068.00,49.629
1069.00,49.578
1070.00,49.592
1071.00,49.557
1072.00,49.586
1073.00,49.562
1074.00,49.553
1075.00,49.539
1076.00,49.545
1077.00,49.516
1078.00,49.501
1079.00,49.499
1080.00,49.495
1081.00,49.491
1082.00,49.500
1083.00,49.499
1084.00,49.494
1085.00,49.489
1086.00,49.464
1087.00,49.459
1088.00,49.438
1089.00,49.432
1090.00,49.423
1091.00,49.433
1092.00,49.426
1093.00,49.409
1094.00,49.398
1095.00,49.387
1096.00,49.376
1097.00,49.391
1098.00,49.387
1099.00,49.381
1100.00,49.343
1101.00,49.340
1102.00,49.328
1103.00,49.327
1104.00,49.306
1105.00,49.296
1106.00,49.280
1107.00,49.283
1108.00,49.279
1109.00,49.272
1110.00,49.254
1111.00,49.259
1112.00,49.240
1113.00,49.231
1114.00,49.228
1115.00,49.223
1116.00,49.221
1117.00,49.212
1118.00,49.187
1119.00,49.185
1120.00,49.194
1121.00,49.195
1122.00,49.172
1123.00,49.162
1124.00,49.157
1125.00,49.178
1126.00,49.162
1127.00,49.155
1128.00,49.152
1129.00,49.127
1130.00,49.106
1131.00,49.137
1132.00,49.114
1133.00,49.126
1134.00,49.102
1135.00,49.092
1136.00,49.109
1137.00,49.095
1138.00,49.093
1139.00,49.099
1140.00,49.090
1141.00,49.084
1142.00,49.069
1143.00,49.078
1144.00,49.059
1145.00,49.070
1146.00,49.101
1147.00,49.067
1148.00,49.050
1149.00,49.075
1150.00,49.061
1151.00,49.050
1152.00,49.035
1153.00,49.053
1154.00,49.033
1155.00,49.041
1156.00,49.028
1157.00,49.036
1158.00,49.045
1159.00,49.034
1160.00,49.032
1161.00,49.037
1162.00,49.018
1163.00,49.030
1164.00,49.033
1165.00,49.019
1166.00,49.033
1167.00,49.017
1168.00,49.036
1169.00,49.027
1170.00,49.020
1171.00,49.004
1172.00,49.008
1173.00,49.005
1174.00,49.013
1175.00,49.009
1176.00,48.998
1177.00,48.994
1178.00,48.992
1179.00,49.016
1180.00,48.998
1181.00,49.009
1182.00,48.998
1183.00,48.983
1184.00,48.975
1185.00,48.984
1186.00,48.987
1187.00,48.976
1188.00,48.971
1189.00,48.991
1190.00,48.977
1191.00,48.987
1192.00,49.012
1193.00,48.992
1194.00,49.004
1195.00,48.954
1196.00,48.991
1197.00,48.994
1198.00,48.970
1199.00,48.976
1200.00,48.992
1201.00,49.002
1202.00,48.975
1203.00,48.975
1204.00,48.985
1205.00,49.000
1206.00,48.982
1207.00,48.998
1208.00,48.982
1209.00,48.992
1210.00,48.999
1211.00,48.989
1212.00,49.010
1213.00,48.980
1214.00,49.008
1215.00,48.994
1216.00,49.002
1217.00,48.992
1218.00,48.984
1219.00,48.997
1220.00,48.981
1221.00,48.995
1222.00,48.983
1223.00,49.009
1224.00,49.007
1225.00,48.982
1226.00,48.998
1227.00,49.002
1228.00,49.000
1229.00,49.015
1230.00,49.066
1231.00,49.049
1232.00,49.070
1233.00,49.075
1234.00,49.080
1235.00,49.080
1236.00,49.062
1237.00,49.070
1238.00,49.066
1239.00,49.064
1240.00,49.057
1241.00,49.066
1242.00,49.059
1243.00,49.083
1244.00,49.060
1245.00,49.095
1246.00,49.114
1247.00,49.087
1248.00,49.095
1249.00,49.106
1250.00,49.116
1251.00,49.109
1252.00,49.126
1253.00,49.121
1254.00,49.133
1255.00,49.119
1256.00,49.086
1257.00,49.088
1258.00,49.144
1259.00,49.135
1260.00,49.161
1261.00,49.145
1262.00,49.149
1263.00,49.151
1264.00,49.162
1265.00,49.165
1266.00,49.163
1267.00,49.178
1268.00,49.203
1269.00,49.184
1270.00,49.199
1271.00,49.213
1272.00,49.209
1273.00,49.215
1274.00,49.207
1275.00,49.226
1276.00,49.235
1277.00,49.241
1278.00,49.254
1279.00,49.254
1280.00,49.240
1281.00,49.266
1282.00,49.280
1283.00,49.271
1284.00,49.272
1285.00,49.268
1286.00,49.287
1287.00,49.287
1288.00,49.279
1289.00,49.279
1290.00,49.326
1291.00,49.309
1292.00,49.324
1293.00,49.317
1294.00,49.324
1295.00,49.339
1296.00,49.329
1297.00,49.354
1298.00,49.393
1299.00,49.355
1300.00,49.371
1301.00,49.363
1302.00,49.386
1303.00,49.392
1304.00,49.383
1305.00,49.412
1306.00,49.424
1307.00,49.429
1308.00,49.419
1309.00,49.440
1310.00,49.450
1311.00,49.425
1312.00,49.451
1313.00,49.457
1314.00,49.469
1315.00,49.479
1316.00,49.476
1317.00,49.504
1318.00,49.494
1319.00,49.494
1320.00,49.522
1321.00,49.681
1322.00,49.678
1323.00,49.663
1324.00,49.653
1325.00,49.647
1326.00,49.675
1327.00,49.668
1328.00,49.660
1329.00,49.657
1330.00,49.677
1331.00,49.671
1332.00,49.650
1333.00,49.657
1334.00,49.689
1335.00,49.707
1336.00,49.731
1337.00,49.769
1338.00,49.846
1339.00,49.894
1340.00,49.960
1341.00,50.031
1342.00,50.103
1343.00,50.154
1344.00,50.179
1345.00,50.240
1346.00,50.262
1347.00,50.286
1348.00,50.328
1349.00,50.331
1350.00,50.355
1351.00,50.376
1352.00,50.372
1353.00,50.435
1354.00,50.381
1355.00,50.333
1356.00,50.437
1357.00,50.448
1358.00,50.394
1359.00,50.447
1360.00,50.436
1361.00,50.393
1362.00,50.337
1363.00,50.486
1364.00,50.609
1365.00,50.455
1366.00,50.505
1367.00,50.455
1368.00,50.411
1369.00,50.449
1370.00,50.468
1371.00,50.384
1372.00,50.447
1373.00,50.470
1374.00,50.483
1375.00,50.462
1376.00,50.431
1377.00,50.446
1378.00,50.452
1379.00,50.475
1380.00,50.441
1381.00,50.530
1382.00,50.407
1383.00,50.490
1384.00,50.409
1385.00,50.472
1386.00,50.486
1387.00,50.394
1388.00,50.429
1389.00,50.405
1390.00,50.437
1391.00,50.433
1392.00,50.447
1393.00,50.452
1394.00,50.470
1395.00,50.391
1396.00,50.405
1397.00,50.449
1398.00,50.477
1399.00,50.396
1400.00,50.273
1401.00,50.404
1402.00,50.466
1403.00,50.416
1404.00,50.422
1405.00,50.394
1406.00,50.507
1407.00,50.506
1408.00,50.533
1409.00,50.461
1410.00,50.525
1411.00,50.494
1412.00,50.575
1413.00,50.467
1414.00,50.509
1415.00,50.580
1416.00,50.584
1417.00,50.583
1418.00,50.556
1419.00,50.575
1420.00,50.608
1421.00,50.665
1422.00,50.650
1423.00,50.664
1424.00,50.670
1425.00,50.684
1426.00,50.686
1427.00,50.722
1428.00,50.717
1429.00,50.744
1430.00,50.758
1431.00,50.765
1432.00,50.793
1433.00,50.808
1434.00,50.800
1435.00,50.861
1436.00,50.856
1437.00,50.857
1438.00,50.886
1439.00,50.909
1440.00,50.922
1441.00,50.942
1442.00,50.951
1443.00,50.992
1444.00,51.046
1445.00,50.997
1446.00,51.033
1447.00,51.060
1448.00,51.119
1449.00,51.105
1450.00,51.098
1451.00,51.118
1452.00,51.139
1453.00,51.158
1454.00,51.171
1455.00,51.189
1456.00,51.210
1457.00,51.208
1458.00,51.237
1459.00,51.268
1460.00,51.289
1461.00,51.298
1462.00,51.333
1463.00,51.368
1464.00,51.372
1465.00,51.386
1466.00,51.395
1467.00,51.413
1468.00,51.454
1469.00,51.430
1470.00,51.449
1471.00,51.467
1472.00,51.463
1473.00,51.484
1474.00,51.516
1475.00,51.521
1476.00,51.552
1477.00,51.524
1478.00,51.539
1479.00,51.570
1480.00,51.584
1481.00,51.599
1482.00,51.616
1483.00,51.622
1484.00,51.639
1485.00,51.647
1486.00,51.656
1487.00,51.680
1488.00,51.701
1489.00,51.702
1490.00,51.726
1491.00,51.730
1492.00,51.740
1493.00,51.749
1494.00,51.816
1495.00,51.777
1496.00,51.805
1497.00,51.778
1498.00,51.807
1499.00,51.825
1500.00,51.835
1501.00, 
1502.00, 
1503.00, 
1504.00, 
1505.00, 
1506.00, 
1507.00, 
1508.00, 
1509.00, 
1510.00, 
1511.00, 
1512.00, 
1513.00, 
1514.00, 
1515.00, 
1516.00, 
1517.00, 
1518.00, 
1519.00, 
1520.00, 
1521.00, 
1522.00, 
1523.00, 
1524.00, 
1525.00, 
1526.00, 
1527.00, 
1528.00, 
1529.00, 
1530.00, 
1531.00, 
1532.00, 
1533.00, 
1534.00, 
1535.00, 
1536.00, 
1537.00, 
1538.00, 
1539.00, 
1540.00, 
1541.00, 
1542.00, 
1543.00, 
1544.00, 
1545.00, 
1546.00, 
1547.00, 
1548.00, 
1549.00, 
1550.00, 
1551.00, 
1552.00, 
1553.00, 
1554.00, 
1555.00, 
1556.00, 
1557.00, 
1558.00, 
1559.00, 
1560.00, 
1561.00, 
1562.00, 
1563.00, 
1564.00, 
1565.00, 
1566.00, 
1567.00, 
1568.00, 
1569.00, 
1570.00, 
1571.00, 
1572.00, 
1573.00, 
1574.00, 
1575.00, 
1576.00, 
1577.00, 
1578.00, 
1579.00, 
1580.00, 
1581.00, 
1582.00, 
1583.00, 
1584.00, 
1585.00, 
1586.00, 
1587.00, 
1588.00, 
1589.00, 
1590.00, 
1591.00, 
1592.00, 
1593.00, 
1594.00, 
1595.00, 
1596.00, 
1597.00, 
1598.00, 
1599.00, 
1600.00, 
1601.00, 
1602.00, 
1603.00, 
1604.00, 
1605.00, 
1606.00, 
1607.00, 
1608.00, 
1609.00, 
1610.00, 
1611.00, 
1612.00, 
1613.00, 
1614.00, 
1615.00, 
1616.00, 
1617.00, 
1618.00, 
1619.00, 
1620.00, 
1621.00, 
1622.00, 
1623.00, 
1624.00, 
1625.00, 
1626.00, 
1627.00, 
1628.00, 
1629.00, 
1630.00, 
1631.00, 
1632.00, 
1633.00, 
1634.00, 
1635.00, 
1636.00, 
1637.00, 
1638.00, 
1639.00, 
1640.00, 
1641.00, 
1642.00, 
1643.00, 
1644.00, 
1645.00, 
1646.00, 
1647.00, 
1648.00, 
1649.00, 
1650.00, 
1651.00, 
1652.00, 
1653.00, 
1654.00, 
1655.00, 
1656.00, 
1657.00, 
1658.00, 
1659.00, 
1660.00, 
1661.00, 
1662.00, 
1663.00, 
1664.00, 
1665.00, 
1666.00, 
1667.00, 
1668.00, 
1669.00, 
1670.00, 
1671.00, 
1672.00, 
1673.00, 
1674.00, 
1675.00, 
1676.00, 
1677.00, 
1678.00, 
1679.00, 
1680.00, 
1681.00, 
1682.00, 
1683.00, 
1684.00, 
1685.00, 
1686.00, 
1687.00, 
1688.00, 
1689.00, 
1690.00, 
1691.00, 
1692.00, 
1693.00, 
1694.00, 
1695.00, 
1696.00, 
1697.00, 
1698.00, 
1699.00, 
1700.00, 
1701.00, 
1702.00, 
1703.00, 
1704.00, 
1705.00, 
1706.00, 
1707.00, 
1708.00, 
1709.00, 
1710.00, 
1711.00, 
1712.00, 
1713.00, 
1714.00, 
1715.00, 
1716.00, 
1717.00, 
1718.00, 
1719.00, 
1720.00, 
1721.00, 
1722.00, 
1723.00, 
1724.00, 
1725.00, 
1726.00, 
1727.00, 
1728.00, 
1729.00, 
1730.00, 
1731.00, 
1732.00, 
1733.00, 
1734.00, 
1735.00, 
1736.00, 
1737.00, 
1738.00, 
1739.00, 
1740.00, 
1741.00, 
1742.00, 
1743.00, 
1744.00, 
1745.00, 
1746.00, 
1747.00, 
1748.00, 
1749.00, 
1750.00, 
1751.00, 
1752.00, 
1753.00, 
1754.00, 
1755.00, 
1756.00, 
1757.00, 
1758.00, 
1759.00, 
1760.00, 
1761.00, 
1762.00, 
1763.00, 
1764.00, 
1765.00, 
1766.00, 
1767.00, 
1768.00, 
1769.00, 
1770.00, 
1771.00, 
1772.00, 
1773.00, 
1774.00, 
1775.00, 
1776.00, 
1777.00, 
1778.00, 
1779.00, 
1780.00, 
1781.00, 
1782.00, 
1783.00, 
1784.00, 
1785.00, 
1786.00, 
1787.00, 
1788.00, 
1789.00, 
1790.00, 
1791.00, 
1792.00, 
1793.00, 
1794.00, 
1795.00, 
1796.00, 
1797.00, 
1798.00, 
1799.00, 
1800.00, 
1801.00, 
1802.00, 
1803.00, 
1804.00, 
1805.00, 
1806.00, 
1807.00, 
1808.00, 
1809.00, 
1810.00, 
1811.00, 
1812.00, 
1813.00, 
1814.00, 
1815.00, 
1816.00, 
1817.00, 
1818.00, 
1819.00, 
1820.00, 
1821.00, 
1822.00, 
1823.00, 
1824.00, 
1825.00, 
1826.00, 
1827.00, 
1828.00, 
1829.00, 
1830.00, 
1831.00, 
1832.00, 
1833.00, 
1834.00, 
1835.00, 
1836.00, 
1837.00, 
1838.00, 
1839.00, 
1840.00, 
1841.00, 
1842.00, 
1843.00, 
1844.00, 
1845.00, 
1846.00, 
1847.00, 
1848.00, 
1849.00, 
1850.00, 
1851.00, 
1852.00, 
1853.00, 
1854.00, 
1855.00, 
1856.00, 
1857.00, 
1858.00, 
1859.00, 
1860.00, 
1861.00, 
1862.00, 
1863.00, 
1864.00, 
1865.00, 
1866.00, 
1867.00, 
1868.00, 
1869.00, 
1870.00, 
1871.00, 
1872.00, 
1873.00, 
1874.00, 
1875.00, 
1876.00, 
1877.00, 
1878.00, 
1879.00, 
1880.00, 
1881.00, 
1882.00, 
1883.00, 
1884.00, 
1885.00, 
1886.00, 
1887.00, 
1888.00, 
1889.00, 
1890.00, 
1891.00, 
1892.00, 
1893.00, 
1894.00, 
1895.00, 
1896.00, 
1897.00, 
1898.00, 
1899.00, 
1900.00, 
1901.00, 
1902.00, 
1903.00, 
1904.00, 
1905.00, 
1906.00, 
1907.00, 
1908.00, 
1909.00, 
1910.00, 
1911.00, 
1912.00, 
1913.00, 
1914.00, 
1915.00, 
1916.00, 
1917.00, 
1918.00, 
1919.00, 
1920.00, 
1921.00, 
1922.00, 
1923.00, 
1924.00, 
1925.00, 
1926.00, 
1927.00, 
1928.00, 
1929.00, 
1930.00, 
1931.00, 
1932.00, 
1933.00, 
1934.00, 
1935.00, 
1936.00, 
1937.00, 
1938.00, 
1939.00, 
1940.00, 
1941.00, 
1942.00, 
1943.00, 
1944.00, 
1945.00, 
1946.00, 
1947.00, 
1948.00, 
1949.00, 
1950.00, 
1951.00, 
1952.00, 
1953.00, 
1954.00, 
1955.00, 
1956.00, 
1957.00, 
1958.00, 
1959.00, 
1960.00, 
1961.00, 
1962.00, 
1963.00, 
1964.00, 
1965.00, 
1966.00, 
1967.00, 
1968.00, 
1969.00, 
1970.00, 
1971.00, 
1972.00, 
1973.00, 
1974.00, 
1975.00, 
1976.00, 
1977.00, 
1978.00, 
1979.00, 
1980.00, 
1981.00, 
1982.00, 
1983.00, 
1984.00, 
1985.00, 
1986.00, 
1987.00, 
1988.00, 
1989.00, 
1990.00, 
1991.00, 
1992.00, 
1993.00, 
1994.00, 
1995.00, 
1996.00, 
1997.00, 
1998.00, 
1999.00, 
2000.00, 
2001.00, 
2002.00, 
2003.00, 
2004.00, 
2005.00, 
2006.00, 
2007.00, 
2008.00, 
2009.00, 
2010.00, 
2011.00, 
2012.00, 
2013.00, 
2014.00, 
2015.00, 
2016.00, 
2017.00, 
2018.00, 
2019.00, 
2020.00, 
2021.00, 
2022.00, 
2023.00, 
2024.00, 
2025.00, 
2026.00, 
2027.00, 
2028.00, 
2029.00, 
2030.00, 
2031.00, 
2032.00, 
2033.00, 
2034.00, 
2035.00, 
2036.00, 
2037.00, 
2038.00, 
2039.00, 
2040.00, 
2041.00, 
2042.00, 
2043.00, 
2044.00, 
2045.00, 
2046.00, 
2047.00, 
2048.00, 
2049.00, 
2050.00, 
2051.00, 
2052.00, 
2053.00, 
2054.00, 
2055.00, 
2056.00, 
2057.00, 
2058.00, 
2059.00, 
2060.00, 
2061.00, 
2062.00, 
2063.00, 
2064.00, 
2065.00, 
2066.00, 
2067.00, 
2068.00, 
2069.00, 
2070.00, 
2071.00, 
2072.00, 
2073.00, 
2074.00, 
2075.00, 
2076.00, 
2077.00, 
2078.00, 
2079.00, 
2080.00, 
2081.00, 
2082.00, 
2083.00, 
2084.00, 
2085.00, 
2086.00, 
2087.00, 
2088.00, 
2089.00, 
2090.00, 
2091.00, 
2092.00, 
2093.00, 
2094.00, 
2095.00, 
2096.00, 
2097.00, 
2098.00, 
2099.00, 
2100.00, 
2101.00, 
2102.00, 
2103.00, 
2104.00, 
2105.00, 
2106.00, 
2107.00, 
2108.00, 
2109.00, 
2110.00, 
2111.00, 
2112.00, 
2113.00, 
2114.00, 
2115.00, 
2116.00, 
2117.00, 
2118.00, 
2119.00, 
2120.00, 
2121.00, 
2122.00, 
2123.00, 
2124.00, 
2125.00, 
2126.00, 
2127.00, 
2128.00, 
2129.00, 
2130.00, 
2131.00, 
2132.00, 
2133.00, 
2134.00, 
2135.00, 
2136.00, 
2137.00, 
2138.00, 
2139.00, 
2140.00, 
2141.00, 
2142.00, 
2143.00, 
2144.00, 
2145.00, 
2146.00, 
2147.00, 
2148.00, 
2149.00, 
2150.00, 
2151.00, 
2152.00, 
2153.00, 
2154.00, 
2155.00, 
2156.00, 
2157.00, 
2158.00, 
2159.00, 
2160.00, 
2161.00, 
2162.00, 
2163.00, 
2164.00, 
2165.00, 
2166.00, 
2167.00, 
2168.00, 
2169.00, 
2170.00, 
2171.00, 
2172.00, 
2173.00, 
2174.00, 
2175.00, 
2176.00, 
2177.00, 
2178.00, 
2179.00, 
2180.00, 
2181.00, 
2182.00, 
2183.00, 
2184.00, 
2185.00, 
2186.00, 
2187.00, 
2188.00, 
2189.00, 
2190.00, 
2191.00, 
2192.00, 
2193.00, 
2194.00, 
2195.00, 
2196.00, 
2197.00, 
2198.00, 
2199.00, 
2200.00, 
2201.00, 
2202.00, 
2203.00, 
2204.00, 
2205.00, 
2206.00, 
2207.00, 
2208.00, 
2209.00, 
2210.00, 
2211.00, 
2212.00, 
2213.00, 
2214.00, 
2215.00, 
2216.00, 
2217.00, 
2218.00, 
2219.00, 
2220.00, 
2221.00, 
2222.00, 
2223.00, 
2224.00, 
2225.00, 
2226.00, 
2227.00, 
2228.00, 
2229.00, 
2230.00, 
2231.00, 
2232.00, 
2233.00, 
2234.00, 
2235.00, 
2236.00, 
2237.00, 
2238.00, 
2239.00, 
2240.00, 
2241.00, 
2242.00, 
2243.00, 
2244.00, 
2245.00, 
2246.00, 
2247.00, 
2248.00, 
2249.00, 
2250.00, 
2251.00, 
2252.00, 
2253.00, 
2254.00, 
2255.00, 
2256.00, 
2257.00, 
2258.00, 
2259.00, 
2260.00, 
2261.00, 
2262.00, 
2263.00, 
2264.00, 
2265.00, 
2266.00, 
2267.00, 
2268.00, 
2269.00, 
2270.00, 
2271.00, 
2272.00, 
2273.00, 
2274.00, 
2275.00, 
2276.00, 
2277.00, 
2278.00, 
2279.00, 
2280.00, 
2281.00, 
2282.00, 
2283.00, 
2284.00, 
2285.00, 
2286.00, 
2287.00, 
2288.00, 
2289.00, 
2290.00, 
2291.00, 
2292.00, 
2293.00, 
2294.00, 
2295.00, 
2296.00, 
2297.00, 
2298.00, 
2299.00, 
2300.00, 
2301.00, 
2302.00, 
2303.00, 
2304.00, 
2305.00, 
2306.00, 
2307.00, 
2308.00, 
2309.00, 
2310.00, 
2311.00, 
2312.00, 
2313.00, 
2314.00, 
2315.00, 
2316.00, 
2317.00, 
2318.00, 
2319.00, 
2320.00, 
2321.00, 
2322.00, 
2323.00, 
2324.00, 
2325.00, 
2326.00, 
2327.00, 
2328.00, 
2329.00, 
2330.00, 
2331.00, 
2332.00, 
2333.00, 
2334.00, 
2335.00, 
2336.00, 
2337.00, 
2338.00, 
2339.00, 
2340.00, 
2341.00, 
2342.00, 
2343.00, 
2344.00, 
2345.00, 
2346.00, 
2347.00, 
2348.00, 
2349.00, 
2350.00, 
2351.00, 
2352.00, 
2353.00, 
2354.00, 
2355.00, 
2356.00, 
2357.00, 
2358.00, 
2359.00, 
2360.00, 
2361.00, 
2362.00, 
2363.00, 
2364.00, 
2365.00, 
2366.00, 
2367.00, 
2368.00, 
2369.00, 
2370.00, 
2371.00, 
2372.00, 
2373.00, 
2374.00, 
2375.00, 
2376.00, 
2377.00, 
2378.00, 
2379.00, 
2380.00, 
2381.00, 
2382.00, 
2383.00, 
2384.00, 
2385.00, 
2386.00, 
2387.00, 
2388.00, 
2389.00, 
2390.00, 
2391.00, 
2392.00, 
2393.00, 
2394.00, 
2395.00, 
2396.00, 
2397.00, 
2398.00, 
2399.00, 
2400.00, 
2401.00, 
2402.00, 
2403.00, 
2404.00, 
2405.00, 
2406.00, 
2407.00, 
2408.00, 
2409.00, 
2410.00, 
2411.00, 
2412.00, 
2413.00, 
2414.00, 
2415.00, 
2416.00, 
2417.00, 
2418.00, 
2419.00, 
2420.00, 
2421.00, 
2422.00, 
2423.00, 
2424.00, 
2425.00, 
2426.00, 
2427.00, 
2428.00, 
2429.00, 
2430.00, 
2431.00, 
2432.00, 
2433.00, 
2434.00, 
2435.00, 
2436.00, 
2437.00, 
2438.00, 
2439.00, 
2440.00, 
2441.00, 
2442.00, 
2443.00, 
2444.00, 
2445.00, 
2446.00, 
2447.00, 
2448.00, 
2449.00, 
2450.00, 
2451.00, 
2452.00, 
2453.00, 
2454.00, 
2455.00, 
2456.00, 
2457.00, 
2458.00, 
2459.00, 
2460.00, 
2461.00, 
2462.00, 
2463.00, 
2464.00, 
2465.00, 
2466.00, 
2467.00, 
2468.00, 
2469.00, 
2470.00, 
2471.00, 
2472.00, 
2473.00, 
2474.00, 
2475.00, 
2476.00, 
2477.00, 
2478.00, 
2479.00, 
2480.00, 
2481.00, 
2482.00, 
2483.00, 
2484.00, 
2485.00, 
2486.00, 
2487.00, 
2488.00, 
2489.00, 
2490.00, 
2491.00, 
2492.00, 
2493.00, 
2494.00, 
2495.00, 
2496.00, 
2497.00, 
2498.00, 
2499.00, 
2500.00, 
2501.00, 
2502.00, 
2503.00, 
2504.00, 
2505.00, 
2506.00, 
2507.00, 
2508.00, 
2509.00, 
2510.00, 
2511.00, 
2512.00, 
2513.00, 
2514.00, 
2515.00, 
2516.00, 
2517.00, 
2518.00, 
2519.00, 
2520.00, 
2521.00, 
2522.00, 
2523.00, 
2524.00, 
2525.00, 
2526.00, 
2527.00, 
2528.00, 
2529.00, 
2530.00, 
2531.00, 
2532.00, 
2533.00, 
2534.00, 
2535.00, 
2536.00, 
2537.00, 
2538.00, 
2539.00, 
2540.00, 
2541.00, 
2542.00, 
2543.00, 
2544.00, 
2545.00, 
2546.00, 
2547.00, 
2548.00, 
2549.00, 
2550.00, 
2551.00, 
2552.00, 
2553.00, 
2554.00, 
2555.00, 
2556.00, 
2557.00, 
2558.00, 
2559.00, 
2560.00, 
2561.00, 
2562.00, 
2563.00, 
2564.00, 
2565.00, 
2566.00, 
2567.00, 
2568.00, 
2569.00, 
2570.00, 
2571.00, 
2572.00, 
2573.00, 
2574.00, 
2575.00, 
2576.00, 
2577.00, 
2578.00, 
2579.00, 
2580.00, 
2581.00, 
2582.00, 
2583.00, 
2584.00, 
2585.00, 
2586.00, 
2587.00, 
2588.00, 
2589.00, 
2590.00, 
2591.00, 
2592.00, 
2593.00, 
2594.00, 
2595.00, 
2596.00, 
2597.00, 
2598.00, 
2599.00, 
2600.00, 
