"1cP2 - RawData"
"Wavelength nm.","T%"
200.00,0.003
201.00,0.002
202.00,0.003
203.00,0.004
204.00,0.004
205.00,-0.001
206.00,0.001
207.00,0.002
208.00,0.001
209.00,0.000
210.00,-0.000
211.00,0.003
212.00,0.002
213.00,0.002
214.00,0.003
215.00,0.002
216.00,-0.001
217.00,-0.000
218.00,0.001
219.00,0.000
220.00,0.001
221.00,0.002
222.00,0.001
223.00,0.002
224.00,0.003
225.00,0.003
226.00,0.002
227.00,0.002
228.00,-0.002
229.00,-0.002
230.00,0.001
231.00,0.001
232.00,-0.000
233.00,0.001
234.00,0.002
235.00,-0.000
236.00,-0.000
237.00,0.002
238.00,0.001
239.00,-0.001
240.00,0.001
241.00,-0.001
242.00,0.001
243.00,0.000
244.00,0.002
245.00,0.001
246.00,0.001
247.00,-0.000
248.00,0.002
249.00,0.002
250.00,0.000
251.00,0.001
252.00,-0.002
253.00,0.000
254.00,0.000
255.00,0.002
256.00,0.001
257.00,0.001
258.00,-0.001
259.00,0.002
260.00,-0.000
261.00,0.000
262.00,-0.002
263.00,0.000
264.00,0.001
265.00,-0.000
266.00,0.001
267.00,0.000
268.00,-0.001
269.00,0.000
270.00,0.001
271.00,-0.001
272.00,-0.000
273.00,0.002
274.00,0.000
275.00,-0.000
276.00,0.001
277.00,0.000
278.00,0.001
279.00,0.001
280.00,-0.000
281.00,0.001
282.00,0.002
283.00,0.001
284.00,-0.001
285.00,0.001
286.00,0.001
287.00,0.000
288.00,0.001
289.00,-0.000
290.00,0.000
291.00,-0.001
292.00,-0.002
293.00,0.001
294.00,0.000
295.00,-0.000
296.00,0.000
297.00,-0.001
298.00,0.001
299.00,0.001
300.00,0.003
301.00,0.003
302.00,0.003
303.00,0.001
304.00,0.002
305.00,0.002
306.00,0.003
307.00,0.005
308.00,0.010
309.00,0.019
310.00,0.028
311.00,0.045
312.00,0.070
313.00,0.113
314.00,0.166
315.00,0.244
316.00,0.357
317.00,0.506
318.00,0.689
319.00,0.919
320.00,1.225
321.00,1.606
322.00,2.059
323.00,2.613
324.00,3.230
325.00,3.894
326.00,4.638
327.00,5.502
328.00,6.466
329.00,7.430
330.00,8.549
331.00,9.646
332.00,10.820
333.00,12.135
334.00,13.417
335.00,14.833
336.00,16.126
337.00,17.560
338.00,18.923
339.00,20.263
340.00,21.588
341.00,22.987
342.00,24.231
343.00,25.439
344.00,26.640
345.00,27.938
346.00,29.015
347.00,30.043
348.00,31.081
349.00,32.050
350.00,33.009
351.00,33.874
352.00,34.677
353.00,35.417
354.00,36.175
355.00,36.920
356.00,37.607
357.00,38.161
358.00,38.841
359.00,39.471
360.00,40.039
361.00,40.409
362.00,41.012
363.00,41.377
364.00,41.740
365.00,42.073
366.00,42.297
367.00,42.607
368.00,42.791
369.00,43.010
370.00,43.221
371.00,43.398
372.00,43.321
373.00,43.460
374.00,43.593
375.00,43.573
376.00,43.451
377.00,43.452
378.00,43.353
379.00,43.232
380.00,43.289
381.00,43.390
382.00,43.418
383.00,43.554
384.00,43.765
385.00,43.970
386.00,44.145
387.00,44.485
388.00,44.788
389.00,44.749
390.00,45.016
391.00,45.072
392.00,45.344
393.00,45.461
394.00,45.604
395.00,45.784
396.00,45.790
397.00,45.902
398.00,46.013
399.00,46.083
400.00,46.176
401.00,46.171
402.00,46.208
403.00,46.295
404.00,46.282
405.00,46.288
406.00,46.344
407.00,46.349
408.00,46.302
409.00,46.144
410.00,46.089
411.00,46.000
412.00,46.027
413.00,46.005
414.00,45.944
415.00,45.998
416.00,46.008
417.00,45.919
418.00,46.034
419.00,46.144
420.00,46.195
421.00,46.211
422.00,46.139
423.00,46.231
424.00,46.286
425.00,46.250
426.00,46.257
427.00,46.325
428.00,46.359
429.00,46.360
430.00,46.403
431.00,46.440
432.00,46.366
433.00,46.435
434.00,46.468
435.00,46.508
436.00,46.557
437.00,46.510
438.00,46.556
439.00,46.572
440.00,46.561
441.00,46.655
442.00,46.681
443.00,46.718
444.00,46.784
445.00,46.836
446.00,46.868
447.00,46.860
448.00,46.902
449.00,47.024
450.00,47.096
451.00,47.085
452.00,47.119
453.00,47.168
454.00,47.168
455.00,47.385
456.00,47.350
457.00,47.471
458.00,47.453
459.00,47.596
460.00,47.666
461.00,47.739
462.00,47.772
463.00,47.835
464.00,47.911
465.00,47.962
466.00,48.022
467.00,48.052
468.00,48.049
469.00,48.115
470.00,48.092
471.00,48.135
472.00,48.165
473.00,48.108
474.00,48.135
475.00,48.170
476.00,48.161
477.00,48.194
478.00,48.234
479.00,48.369
480.00,48.425
481.00,48.413
482.00,48.510
483.00,48.577
484.00,48.665
485.00,48.695
486.00,48.771
487.00,48.880
488.00,48.910
489.00,48.970
490.00,49.135
491.00,49.126
492.00,49.337
493.00,49.424
494.00,49.253
495.00,49.309
496.00,49.321
497.00,49.380
498.00,49.442
499.00,49.527
500.00,49.620
501.00,49.553
502.00,49.675
503.00,49.702
504.00,49.679
505.00,49.777
506.00,49.820
507.00,49.742
508.00,49.791
509.00,49.975
510.00,49.980
511.00,49.810
512.00,50.095
513.00,50.332
514.00,50.226
515.00,50.334
516.00,50.415
517.00,50.353
518.00,50.415
519.00,50.437
520.00,50.276
521.00,50.442
522.00,50.457
523.00,50.361
524.00,50.451
525.00,50.495
526.00,50.487
527.00,50.539
528.00,50.533
529.00,50.696
530.00,50.835
531.00,50.874
532.00,50.890
533.00,50.995
534.00,50.934
535.00,50.953
536.00,51.092
537.00,51.106
538.00,51.053
539.00,51.008
540.00,51.099
541.00,51.027
542.00,51.152
543.00,51.098
544.00,51.139
545.00,51.152
546.00,51.132
547.00,51.334
548.00,51.331
549.00,51.331
550.00,51.325
551.00,51.475
552.00,51.505
553.00,51.373
554.00,51.492
555.00,51.499
556.00,51.463
557.00,51.553
558.00,51.534
559.00,51.563
560.00,51.609
561.00,51.679
562.00,51.702
563.00,51.731
564.00,51.726
565.00,51.694
566.00,51.670
567.00,51.649
568.00,51.718
569.00,51.695
570.00,51.722
571.00,51.733
572.00,51.702
573.00,51.657
574.00,51.627
575.00,51.655
576.00,51.571
577.00,51.620
578.00,51.735
579.00,51.713
580.00,51.741
581.00,51.922
582.00,51.978
583.00,51.873
584.00,51.967
585.00,52.034
586.00,52.035
587.00,52.073
588.00,52.032
589.00,51.915
590.00,52.020
591.00,52.083
592.00,51.936
593.00,51.963
594.00,52.102
595.00,52.149
596.00,52.264
597.00,52.271
598.00,52.369
599.00,52.254
600.00,52.116
601.00,52.118
602.00,52.116
603.00,52.097
604.00,52.126
605.00,52.195
606.00,52.108
607.00,52.103
608.00,52.238
609.00,52.289
610.00,52.080
611.00,52.180
612.00,52.136
613.00,52.125
614.00,52.179
615.00,52.153
616.00,52.256
617.00,52.215
618.00,52.000
619.00,52.106
620.00,52.161
621.00,52.075
622.00,52.217
623.00,52.124
624.00,52.068
625.00,52.048
626.00,52.240
627.00,52.281
628.00,52.205
629.00,52.160
630.00,52.129
631.00,52.154
632.00,52.135
633.00,52.172
634.00,52.204
635.00,52.279
636.00,52.247
637.00,52.187
638.00,52.183
639.00,52.260
640.00,52.227
641.00,52.202
642.00,52.200
643.00,52.189
644.00,52.175
645.00,52.157
646.00,52.249
647.00,52.258
648.00,52.156
649.00,52.168
650.00,52.160
651.00,52.228
652.00,52.205
653.00,52.076
654.00,52.094
655.00,52.251
656.00,52.465
657.00,52.128
658.00,52.137
659.00,52.168
660.00,52.178
661.00,52.194
662.00,52.158
663.00,52.138
664.00,52.279
665.00,52.436
666.00,52.264
667.00,52.191
668.00,52.023
669.00,52.308
670.00,52.463
671.00,52.249
672.00,52.278
673.00,52.206
674.00,52.170
675.00,52.219
676.00,52.373
677.00,52.419
678.00,52.198
679.00,52.335
680.00,52.268
681.00,52.260
682.00,52.195
683.00,52.112
684.00,52.248
685.00,52.255
686.00,52.016
687.00,51.788
688.00,51.972
689.00,52.123
690.00,52.110
691.00,52.379
692.00,51.992
693.00,52.051
694.00,52.072
695.00,52.027
696.00,52.005
697.00,51.861
698.00,51.755
699.00,52.238
700.00,52.365
701.00,51.982
702.00,51.993
703.00,52.135
704.00,52.055
705.00,51.960
706.00,51.906
707.00,51.940
708.00,51.608
709.00,52.029
710.00,52.388
711.00,51.655
712.00,51.670
713.00,51.899
714.00,51.864
715.00,51.799
716.00,51.742
717.00,51.850
718.00,51.848
719.00,51.681
720.00,51.711
721.00,56.602
722.00,56.562
723.00,56.424
724.00,56.354
725.00,56.249
726.00,56.250
727.00,56.170
728.00,56.037
729.00,56.054
730.00,55.982
731.00,55.961
732.00,55.832
733.00,55.864
734.00,55.772
735.00,55.807
736.00,55.751
737.00,55.694
738.00,55.657
739.00,55.581
740.00,55.574
741.00,55.544
742.00,55.466
743.00,55.443
744.00,55.352
745.00,55.316
746.00,55.271
747.00,55.257
748.00,55.097
749.00,55.148
750.00,55.062
751.00,54.970
752.00,54.877
753.00,54.844
754.00,54.841
755.00,54.744
756.00,54.624
757.00,54.619
758.00,54.584
759.00,54.482
760.00,54.483
761.00,54.464
762.00,54.420
763.00,54.430
764.00,54.282
765.00,54.234
766.00,54.290
767.00,54.230
768.00,54.159
769.00,54.143
770.00,54.171
771.00,54.012
772.00,54.029
773.00,53.980
774.00,54.018
775.00,53.981
776.00,53.880
777.00,53.877
778.00,53.787
779.00,53.810
780.00,53.814
781.00,53.692
782.00,53.737
783.00,53.736
784.00,53.595
785.00,53.528
786.00,53.547
787.00,53.540
788.00,53.431
789.00,53.398
790.00,53.257
791.00,53.365
792.00,53.267
793.00,53.188
794.00,53.137
795.00,53.147
796.00,53.087
797.00,53.014
798.00,53.031
799.00,52.941
800.00,52.867
801.00,52.938
802.00,52.802
803.00,52.833
804.00,52.830
805.00,52.774
806.00,52.713
807.00,52.589
808.00,52.646
809.00,52.578
810.00,52.485
811.00,52.543
812.00,52.474
813.00,52.434
814.00,52.424
815.00,52.417
816.00,52.335
817.00,52.239
818.00,52.166
819.00,52.228
820.00,52.142
821.00,52.161
822.00,52.230
823.00,52.060
824.00,52.138
825.00,51.999
826.00,52.015
827.00,52.036
828.00,52.078
829.00,51.897
830.00,51.985
831.00,54.239
832.00,54.215
833.00,54.173
834.00,54.180
835.00,54.091
836.00,54.102
837.00,54.058
838.00,54.086
839.00,54.012
840.00,53.965
841.00,53.984
842.00,53.901
843.00,53.904
844.00,53.818
845.00,53.801
846.00,53.799
847.00,53.748
848.00,53.710
849.00,53.645
850.00,53.611
851.00,53.535
852.00,53.550
853.00,53.451
854.00,53.437
855.00,53.361
856.00,53.336
857.00,53.312
858.00,53.294
859.00,53.245
860.00,53.246
861.00,53.221
862.00,53.156
863.00,53.182
864.00,53.101
865.00,53.149
866.00,53.088
867.00,53.083
868.00,53.008
869.00,53.011
870.00,53.014
871.00,53.024
872.00,53.009
873.00,52.945
874.00,52.971
875.00,53.048
876.00,52.907
877.00,52.903
878.00,52.861
879.00,52.857
880.00,52.832
881.00,52.786
882.00,52.813
883.00,52.748
884.00,52.736
885.00,52.719
886.00,52.697
887.00,52.646
888.00,52.608
889.00,52.586
890.00,52.586
891.00,52.520
892.00,52.526
893.00,52.506
894.00,52.491
895.00,52.456
896.00,52.425
897.00,52.390
898.00,52.373
899.00,52.355
900.00,52.327
901.00,52.333
902.00,52.287
903.00,52.266
904.00,52.283
905.00,52.234
906.00,52.224
907.00,52.211
908.00,52.150
909.00,52.137
910.00,52.117
911.00,52.101
912.00,52.093
913.00,52.040
914.00,51.957
915.00,52.115
916.00,51.921
917.00,51.965
918.00,51.958
919.00,51.919
920.00,51.875
921.00,51.869
922.00,51.844
923.00,51.790
924.00,51.762
925.00,51.771
926.00,51.747
927.00,51.753
928.00,51.681
929.00,51.673
930.00,51.800
931.00,51.636
932.00,51.597
933.00,51.626
934.00,51.577
935.00,51.554
936.00,51.514
937.00,51.511
938.00,51.496
939.00,51.489
940.00,51.467
941.00,51.455
942.00,51.402
943.00,51.401
944.00,51.417
945.00,51.353
946.00,51.352
947.00,51.346
948.00,51.292
949.00,51.272
950.00,51.249
951.00,51.219
952.00,51.220
953.00,51.163
954.00,51.145
955.00,51.096
956.00,51.088
957.00,51.043
958.00,51.055
959.00,50.995
960.00,51.013
961.00,50.961
962.00,50.985
963.00,50.931
964.00,50.933
965.00,50.917
966.00,50.908
967.00,50.908
968.00,50.877
969.00,50.902
970.00,50.882
971.00,50.901
972.00,50.837
973.00,50.906
974.00,50.907
975.00,50.815
976.00,50.877
977.00,50.853
978.00,50.901
979.00,50.844
980.00,50.870
981.00,50.862
982.00,50.825
983.00,50.837
984.00,50.812
985.00,50.838
986.00,50.793
987.00,50.825
988.00,50.781
989.00,50.766
990.00,50.764
991.00,50.779
992.00,50.770
993.00,50.716
994.00,50.713
995.00,50.690
996.00,50.690
997.00,50.668
998.00,50.645
999.00,50.675
1000.00,50.618
1001.00,50.619
1002.00,50.590
1003.00,50.609
1004.00,50.586
1005.00,50.553
1006.00,50.589
1007.00,50.547
1008.00,50.525
1009.00,50.515
1010.00,50.522
1011.00,50.502
1012.00,50.469
1013.00,50.476
1014.00,50.440
1015.00,50.452
1016.00,50.406
1017.00,50.411
1018.00,50.401
1019.00,50.360
1020.00,50.364
1021.00,50.336
1022.00,50.317
1023.00,50.265
1024.00,50.290
1025.00,50.269
1026.00,50.252
1027.00,50.230
1028.00,50.238
1029.00,50.236
1030.00,50.194
1031.00,50.219
1032.00,50.170
1033.00,50.157
1034.00,50.133
1035.00,50.093
1036.00,50.078
1037.00,50.061
1038.00,50.039
1039.00,50.013
1040.00,50.000
1041.00,49.964
1042.00,49.977
1043.00,49.955
1044.00,49.979
1045.00,49.971
1046.00,49.958
1047.00,49.974
1048.00,49.985
1049.00,49.991
1050.00,50.002
1051.00,50.041
1052.00,50.046
1053.00,50.037
1054.00,50.020
1055.00,50.036
1056.00,50.063
1057.00,50.059
1058.00,50.035
1059.00,50.044
1060.00,50.047
1061.00,50.034
1062.00,50.024
1063.00,50.026
1064.00,50.027
1065.00,50.007
1066.00,49.996
1067.00,50.005
1068.00,50.018
1069.00,49.968
1070.00,49.955
1071.00,49.935
1072.00,49.966
1073.00,49.956
1074.00,49.940
1075.00,49.930
1076.00,49.932
1077.00,49.912
1078.00,49.898
1079.00,49.906
1080.00,49.904
1081.00,49.887
1082.00,49.882
1083.00,49.871
1084.00,49.870
1085.00,49.859
1086.00,49.856
1087.00,49.845
1088.00,49.826
1089.00,49.808
1090.00,49.800
1091.00,49.789
1092.00,49.773
1093.00,49.766
1094.00,49.759
1095.00,49.766
1096.00,49.753
1097.00,49.772
1098.00,49.759
1099.00,49.715
1100.00,49.715
1101.00,49.714
1102.00,49.711
1103.00,49.720
1104.00,49.707
1105.00,49.694
1106.00,49.685
1107.00,49.668
1108.00,49.661
1109.00,49.661
1110.00,49.647
1111.00,49.644
1112.00,49.624
1113.00,49.629
1114.00,49.623
1115.00,49.627
1116.00,49.621
1117.00,49.608
1118.00,49.589
1119.00,49.587
1120.00,49.577
1121.00,49.581
1122.00,49.551
1123.00,49.551
1124.00,49.553
1125.00,49.547
1126.00,49.532
1127.00,49.533
1128.00,49.529
1129.00,49.515
1130.00,49.495
1131.00,49.490
1132.00,49.477
1133.00,49.502
1134.00,49.482
1135.00,49.460
1136.00,49.461
1137.00,49.456
1138.00,49.454
1139.00,49.465
1140.00,49.453
1141.00,49.454
1142.00,49.447
1143.00,49.471
1144.00,49.455
1145.00,49.456
1146.00,49.461
1147.00,49.456
1148.00,49.435
1149.00,49.449
1150.00,49.446
1151.00,49.455
1152.00,49.443
1153.00,49.469
1154.00,49.429
1155.00,49.429
1156.00,49.426
1157.00,49.423
1158.00,49.417
1159.00,49.427
1160.00,49.402
1161.00,49.419
1162.00,49.409
1163.00,49.416
1164.00,49.419
1165.00,49.411
1166.00,49.428
1167.00,49.417
1168.00,49.448
1169.00,49.439
1170.00,49.421
1171.00,49.430
1172.00,49.427
1173.00,49.416
1174.00,49.436
1175.00,49.411
1176.00,49.406
1177.00,49.400
1178.00,49.406
1179.00,49.426
1180.00,49.401
1181.00,49.421
1182.00,49.414
1183.00,49.401
1184.00,49.390
1185.00,49.412
1186.00,49.394
1187.00,49.390
1188.00,49.394
1189.00,49.408
1190.00,49.398
1191.00,49.396
1192.00,49.411
1193.00,49.399
1194.00,49.403
1195.00,49.368
1196.00,49.411
1197.00,49.405
1198.00,49.385
1199.00,49.398
1200.00,49.411
1201.00,49.423
1202.00,49.400
1203.00,49.401
1204.00,49.390
1205.00,49.422
1206.00,49.403
1207.00,49.412
1208.00,49.396
1209.00,49.415
1210.00,49.420
1211.00,49.403
1212.00,49.434
1213.00,49.395
1214.00,49.409
1215.00,49.398
1216.00,49.415
1217.00,49.414
1218.00,49.407
1219.00,49.437
1220.00,49.430
1221.00,49.436
1222.00,49.414
1223.00,49.447
1224.00,49.448
1225.00,49.423
1226.00,49.429
1227.00,49.435
1228.00,49.428
1229.00,49.435
1230.00,49.467
1231.00,49.448
1232.00,49.477
1233.00,49.494
1234.00,49.482
1235.00,49.479
1236.00,49.462
1237.00,49.480
1238.00,49.486
1239.00,49.481
1240.00,49.486
1241.00,49.497
1242.00,49.482
1243.00,49.505
1244.00,49.494
1245.00,49.529
1246.00,49.537
1247.00,49.522
1248.00,49.524
1249.00,49.522
1250.00,49.527
1251.00,49.521
1252.00,49.535
1253.00,49.524
1254.00,49.559
1255.00,49.554
1256.00,49.528
1257.00,49.527
1258.00,49.588
1259.00,49.569
1260.00,49.594
1261.00,49.584
1262.00,49.572
1263.00,49.579
1264.00,49.583
1265.00,49.599
1266.00,49.614
1267.00,49.598
1268.00,49.612
1269.00,49.591
1270.00,49.626
1271.00,49.645
1272.00,49.638
1273.00,49.653
1274.00,49.652
1275.00,49.657
1276.00,49.647
1277.00,49.657
1278.00,49.687
1279.00,49.681
1280.00,49.680
1281.00,49.709
1282.00,49.709
1283.00,49.692
1284.00,49.701
1285.00,49.700
1286.00,49.701
1287.00,49.699
1288.00,49.712
1289.00,49.712
1290.00,49.748
1291.00,49.746
1292.00,49.749
1293.00,49.743
1294.00,49.757
1295.00,49.788
1296.00,49.789
1297.00,49.798
1298.00,49.829
1299.00,49.816
1300.00,49.840
1301.00,49.824
1302.00,49.844
1303.00,49.838
1304.00,49.823
1305.00,49.847
1306.00,49.857
1307.00,49.869
1308.00,49.858
1309.00,49.873
1310.00,49.883
1311.00,49.871
1312.00,49.900
1313.00,49.908
1314.00,49.923
1315.00,49.942
1316.00,49.936
1317.00,49.960
1318.00,49.958
1319.00,49.966
1320.00,49.980
1321.00,50.131
1322.00,50.119
1323.00,50.104
1324.00,50.098
1325.00,50.100
1326.00,50.119
1327.00,50.108
1328.00,50.109
1329.00,50.115
1330.00,50.127
1331.00,50.122
1332.00,50.095
1333.00,50.126
1334.00,50.160
1335.00,50.189
1336.00,50.211
1337.00,50.250
1338.00,50.319
1339.00,50.351
1340.00,50.415
1341.00,50.491
1342.00,50.542
1343.00,50.582
1344.00,50.652
1345.00,50.708
1346.00,50.730
1347.00,50.757
1348.00,50.786
1349.00,50.795
1350.00,50.825
1351.00,50.850
1352.00,50.860
1353.00,50.863
1354.00,50.872
1355.00,50.838
1356.00,50.902
1357.00,50.898
1358.00,50.896
1359.00,50.920
1360.00,50.874
1361.00,50.898
1362.00,50.822
1363.00,50.990
1364.00,51.103
1365.00,50.927
1366.00,50.989
1367.00,50.944
1368.00,50.832
1369.00,50.930
1370.00,50.877
1371.00,51.162
1372.00,50.903
1373.00,50.927
1374.00,50.942
1375.00,50.924
1376.00,50.894
1377.00,50.911
1378.00,50.964
1379.00,50.957
1380.00,50.941
1381.00,50.988
1382.00,50.925
1383.00,50.967
1384.00,50.906
1385.00,50.935
1386.00,50.843
1387.00,50.899
1388.00,50.904
1389.00,50.916
1390.00,50.933
1391.00,50.873
1392.00,50.912
1393.00,50.856
1394.00,50.941
1395.00,50.905
1396.00,50.863
1397.00,50.871
1398.00,50.960
1399.00,50.941
1400.00,50.826
1401.00,50.907
1402.00,51.049
1403.00,50.928
1404.00,50.934
1405.00,50.977
1406.00,50.989
1407.00,51.003
1408.00,51.041
1409.00,50.961
1410.00,51.005
1411.00,50.979
1412.00,51.062
1413.00,50.914
1414.00,50.958
1415.00,51.030
1416.00,51.066
1417.00,51.065
1418.00,51.031
1419.00,51.059
1420.00,51.078
1421.00,51.135
1422.00,51.121
1423.00,51.148
1424.00,51.149
1425.00,51.166
1426.00,51.174
1427.00,51.197
1428.00,51.183
1429.00,51.215
1430.00,51.231
1431.00,51.223
1432.00,51.262
1433.00,51.289
1434.00,51.279
1435.00,51.340
1436.00,51.346
1437.00,51.357
1438.00,51.369
1439.00,51.400
1440.00,51.420
1441.00,51.421
1442.00,51.414
1443.00,51.470
1444.00,51.542
1445.00,51.479
1446.00,51.516
1447.00,51.545
1448.00,51.612
1449.00,51.586
1450.00,51.593
1451.00,51.620
1452.00,51.643
1453.00,51.642
1454.00,51.664
1455.00,51.678
1456.00,51.703
1457.00,51.710
1458.00,51.729
1459.00,51.746
1460.00,51.759
1461.00,51.759
1462.00,51.786
1463.00,51.820
1464.00,51.844
1465.00,51.846
1466.00,51.838
1467.00,51.883
1468.00,51.956
1469.00,51.909
1470.00,51.930
1471.00,51.967
1472.00,51.967
1473.00,51.971
1474.00,51.993
1475.00,52.002
1476.00,52.029
1477.00,52.008
1478.00,52.027
1479.00,52.056
1480.00,52.045
1481.00,52.047
1482.00,52.092
1483.00,52.109
1484.00,52.126
1485.00,52.126
1486.00,52.148
1487.00,52.176
1488.00,52.187
1489.00,52.194
1490.00,52.216
1491.00,52.215
1492.00,52.245
1493.00,52.231
1494.00,52.268
1495.00,52.269
1496.00,52.294
1497.00,52.275
1498.00,52.302
1499.00,52.319
1500.00,52.346
1501.00, 
1502.00, 
1503.00, 
1504.00, 
1505.00, 
1506.00, 
1507.00, 
1508.00, 
1509.00, 
1510.00, 
1511.00, 
1512.00, 
1513.00, 
1514.00, 
1515.00, 
1516.00, 
1517.00, 
1518.00, 
1519.00, 
1520.00, 
1521.00, 
1522.00, 
1523.00, 
1524.00, 
1525.00, 
1526.00, 
1527.00, 
1528.00, 
1529.00, 
1530.00, 
1531.00, 
1532.00, 
1533.00, 
1534.00, 
1535.00, 
1536.00, 
1537.00, 
1538.00, 
1539.00, 
1540.00, 
1541.00, 
1542.00, 
1543.00, 
1544.00, 
1545.00, 
1546.00, 
1547.00, 
1548.00, 
1549.00, 
1550.00, 
1551.00, 
1552.00, 
1553.00, 
1554.00, 
1555.00, 
1556.00, 
1557.00, 
1558.00, 
1559.00, 
1560.00, 
1561.00, 
1562.00, 
1563.00, 
1564.00, 
1565.00, 
1566.00, 
1567.00, 
1568.00, 
1569.00, 
1570.00, 
1571.00, 
1572.00, 
1573.00, 
1574.00, 
1575.00, 
1576.00, 
1577.00, 
1578.00, 
1579.00, 
1580.00, 
1581.00, 
1582.00, 
1583.00, 
1584.00, 
1585.00, 
1586.00, 
1587.00, 
1588.00, 
1589.00, 
1590.00, 
1591.00, 
1592.00, 
1593.00, 
1594.00, 
1595.00, 
1596.00, 
1597.00, 
1598.00, 
1599.00, 
1600.00, 
1601.00, 
1602.00, 
1603.00, 
1604.00, 
1605.00, 
1606.00, 
1607.00, 
1608.00, 
1609.00, 
1610.00, 
1611.00, 
1612.00, 
1613.00, 
1614.00, 
1615.00, 
1616.00, 
1617.00, 
1618.00, 
1619.00, 
1620.00, 
1621.00, 
1622.00, 
1623.00, 
1624.00, 
1625.00, 
1626.00, 
1627.00, 
1628.00, 
1629.00, 
1630.00, 
1631.00, 
1632.00, 
1633.00, 
1634.00, 
1635.00, 
1636.00, 
1637.00, 
1638.00, 
1639.00, 
1640.00, 
1641.00, 
1642.00, 
1643.00, 
1644.00, 
1645.00, 
1646.00, 
1647.00, 
1648.00, 
1649.00, 
1650.00, 
1651.00, 
1652.00, 
1653.00, 
1654.00, 
1655.00, 
1656.00, 
1657.00, 
1658.00, 
1659.00, 
1660.00, 
1661.00, 
1662.00, 
1663.00, 
1664.00, 
1665.00, 
1666.00, 
1667.00, 
1668.00, 
1669.00, 
1670.00, 
1671.00, 
1672.00, 
1673.00, 
1674.00, 
1675.00, 
1676.00, 
1677.00, 
1678.00, 
1679.00, 
1680.00, 
1681.00, 
1682.00, 
1683.00, 
1684.00, 
1685.00, 
1686.00, 
1687.00, 
1688.00, 
1689.00, 
1690.00, 
1691.00, 
1692.00, 
1693.00, 
1694.00, 
1695.00, 
1696.00, 
1697.00, 
1698.00, 
1699.00, 
1700.00, 
1701.00, 
1702.00, 
1703.00, 
1704.00, 
1705.00, 
1706.00, 
1707.00, 
1708.00, 
1709.00, 
1710.00, 
1711.00, 
1712.00, 
1713.00, 
1714.00, 
1715.00, 
1716.00, 
1717.00, 
1718.00, 
1719.00, 
1720.00, 
1721.00, 
1722.00, 
1723.00, 
1724.00, 
1725.00, 
1726.00, 
1727.00, 
1728.00, 
1729.00, 
1730.00, 
1731.00, 
1732.00, 
1733.00, 
1734.00, 
1735.00, 
1736.00, 
1737.00, 
1738.00, 
1739.00, 
1740.00, 
1741.00, 
1742.00, 
1743.00, 
1744.00, 
1745.00, 
1746.00, 
1747.00, 
1748.00, 
1749.00, 
1750.00, 
1751.00, 
1752.00, 
1753.00, 
1754.00, 
1755.00, 
1756.00, 
1757.00, 
1758.00, 
1759.00, 
1760.00, 
1761.00, 
1762.00, 
1763.00, 
1764.00, 
1765.00, 
1766.00, 
1767.00, 
1768.00, 
1769.00, 
1770.00, 
1771.00, 
1772.00, 
1773.00, 
1774.00, 
1775.00, 
1776.00, 
1777.00, 
1778.00, 
1779.00, 
1780.00, 
1781.00, 
1782.00, 
1783.00, 
1784.00, 
1785.00, 
1786.00, 
1787.00, 
1788.00, 
1789.00, 
1790.00, 
1791.00, 
1792.00, 
1793.00, 
1794.00, 
1795.00, 
1796.00, 
1797.00, 
1798.00, 
1799.00, 
1800.00, 
1801.00, 
1802.00, 
1803.00, 
1804.00, 
1805.00, 
1806.00, 
1807.00, 
1808.00, 
1809.00, 
1810.00, 
1811.00, 
1812.00, 
1813.00, 
1814.00, 
1815.00, 
1816.00, 
1817.00, 
1818.00, 
1819.00, 
1820.00, 
1821.00, 
1822.00, 
1823.00, 
1824.00, 
1825.00, 
1826.00, 
1827.00, 
1828.00, 
1829.00, 
1830.00, 
1831.00, 
1832.00, 
1833.00, 
1834.00, 
1835.00, 
1836.00, 
1837.00, 
1838.00, 
1839.00, 
1840.00, 
1841.00, 
1842.00, 
1843.00, 
1844.00, 
1845.00, 
1846.00, 
1847.00, 
1848.00, 
1849.00, 
1850.00, 
1851.00, 
1852.00, 
1853.00, 
1854.00, 
1855.00, 
1856.00, 
1857.00, 
1858.00, 
1859.00, 
1860.00, 
1861.00, 
1862.00, 
1863.00, 
1864.00, 
1865.00, 
1866.00, 
1867.00, 
1868.00, 
1869.00, 
1870.00, 
1871.00, 
1872.00, 
1873.00, 
1874.00, 
1875.00, 
1876.00, 
1877.00, 
1878.00, 
1879.00, 
1880.00, 
1881.00, 
1882.00, 
1883.00, 
1884.00, 
1885.00, 
1886.00, 
1887.00, 
1888.00, 
1889.00, 
1890.00, 
1891.00, 
1892.00, 
1893.00, 
1894.00, 
1895.00, 
1896.00, 
1897.00, 
1898.00, 
1899.00, 
1900.00, 
1901.00, 
1902.00, 
1903.00, 
1904.00, 
1905.00, 
1906.00, 
1907.00, 
1908.00, 
1909.00, 
1910.00, 
1911.00, 
1912.00, 
1913.00, 
1914.00, 
1915.00, 
1916.00, 
1917.00, 
1918.00, 
1919.00, 
1920.00, 
1921.00, 
1922.00, 
1923.00, 
1924.00, 
1925.00, 
1926.00, 
1927.00, 
1928.00, 
1929.00, 
1930.00, 
1931.00, 
1932.00, 
1933.00, 
1934.00, 
1935.00, 
1936.00, 
1937.00, 
1938.00, 
1939.00, 
1940.00, 
1941.00, 
1942.00, 
1943.00, 
1944.00, 
1945.00, 
1946.00, 
1947.00, 
1948.00, 
1949.00, 
1950.00, 
1951.00, 
1952.00, 
1953.00, 
1954.00, 
1955.00, 
1956.00, 
1957.00, 
1958.00, 
1959.00, 
1960.00, 
1961.00, 
1962.00, 
1963.00, 
1964.00, 
1965.00, 
1966.00, 
1967.00, 
1968.00, 
1969.00, 
1970.00, 
1971.00, 
1972.00, 
1973.00, 
1974.00, 
1975.00, 
1976.00, 
1977.00, 
1978.00, 
1979.00, 
1980.00, 
1981.00, 
1982.00, 
1983.00, 
1984.00, 
1985.00, 
1986.00, 
1987.00, 
1988.00, 
1989.00, 
1990.00, 
1991.00, 
1992.00, 
1993.00, 
1994.00, 
1995.00, 
1996.00, 
1997.00, 
1998.00, 
1999.00, 
2000.00, 
2001.00, 
2002.00, 
2003.00, 
2004.00, 
2005.00, 
2006.00, 
2007.00, 
2008.00, 
2009.00, 
2010.00, 
2011.00, 
2012.00, 
2013.00, 
2014.00, 
2015.00, 
2016.00, 
2017.00, 
2018.00, 
2019.00, 
2020.00, 
2021.00, 
2022.00, 
2023.00, 
2024.00, 
2025.00, 
2026.00, 
2027.00, 
2028.00, 
2029.00, 
2030.00, 
2031.00, 
2032.00, 
2033.00, 
2034.00, 
2035.00, 
2036.00, 
2037.00, 
2038.00, 
2039.00, 
2040.00, 
2041.00, 
2042.00, 
2043.00, 
2044.00, 
2045.00, 
2046.00, 
2047.00, 
2048.00, 
2049.00, 
2050.00, 
2051.00, 
2052.00, 
2053.00, 
2054.00, 
2055.00, 
2056.00, 
2057.00, 
2058.00, 
2059.00, 
2060.00, 
2061.00, 
2062.00, 
2063.00, 
2064.00, 
2065.00, 
2066.00, 
2067.00, 
2068.00, 
2069.00, 
2070.00, 
2071.00, 
2072.00, 
2073.00, 
2074.00, 
2075.00, 
2076.00, 
2077.00, 
2078.00, 
2079.00, 
2080.00, 
2081.00, 
2082.00, 
2083.00, 
2084.00, 
2085.00, 
2086.00, 
2087.00, 
2088.00, 
2089.00, 
2090.00, 
2091.00, 
2092.00, 
2093.00, 
2094.00, 
2095.00, 
2096.00, 
2097.00, 
2098.00, 
2099.00, 
2100.00, 
2101.00, 
2102.00, 
2103.00, 
2104.00, 
2105.00, 
2106.00, 
2107.00, 
2108.00, 
2109.00, 
2110.00, 
2111.00, 
2112.00, 
2113.00, 
2114.00, 
2115.00, 
2116.00, 
2117.00, 
2118.00, 
2119.00, 
2120.00, 
2121.00, 
2122.00, 
2123.00, 
2124.00, 
2125.00, 
2126.00, 
2127.00, 
2128.00, 
2129.00, 
2130.00, 
2131.00, 
2132.00, 
2133.00, 
2134.00, 
2135.00, 
2136.00, 
2137.00, 
2138.00, 
2139.00, 
2140.00, 
2141.00, 
2142.00, 
2143.00, 
2144.00, 
2145.00, 
2146.00, 
2147.00, 
2148.00, 
2149.00, 
2150.00, 
2151.00, 
2152.00, 
2153.00, 
2154.00, 
2155.00, 
2156.00, 
2157.00, 
2158.00, 
2159.00, 
2160.00, 
2161.00, 
2162.00, 
2163.00, 
2164.00, 
2165.00, 
2166.00, 
2167.00, 
2168.00, 
2169.00, 
2170.00, 
2171.00, 
2172.00, 
2173.00, 
2174.00, 
2175.00, 
2176.00, 
2177.00, 
2178.00, 
2179.00, 
2180.00, 
2181.00, 
2182.00, 
2183.00, 
2184.00, 
2185.00, 
2186.00, 
2187.00, 
2188.00, 
2189.00, 
2190.00, 
2191.00, 
2192.00, 
2193.00, 
2194.00, 
2195.00, 
2196.00, 
2197.00, 
2198.00, 
2199.00, 
2200.00, 
2201.00, 
2202.00, 
2203.00, 
2204.00, 
2205.00, 
2206.00, 
2207.00, 
2208.00, 
2209.00, 
2210.00, 
2211.00, 
2212.00, 
2213.00, 
2214.00, 
2215.00, 
2216.00, 
2217.00, 
2218.00, 
2219.00, 
2220.00, 
2221.00, 
2222.00, 
2223.00, 
2224.00, 
2225.00, 
2226.00, 
2227.00, 
2228.00, 
2229.00, 
2230.00, 
2231.00, 
2232.00, 
2233.00, 
2234.00, 
2235.00, 
2236.00, 
2237.00, 
2238.00, 
2239.00, 
2240.00, 
2241.00, 
2242.00, 
2243.00, 
2244.00, 
2245.00, 
2246.00, 
2247.00, 
2248.00, 
2249.00, 
2250.00, 
2251.00, 
2252.00, 
2253.00, 
2254.00, 
2255.00, 
2256.00, 
2257.00, 
2258.00, 
2259.00, 
2260.00, 
2261.00, 
2262.00, 
2263.00, 
2264.00, 
2265.00, 
2266.00, 
2267.00, 
2268.00, 
2269.00, 
2270.00, 
2271.00, 
2272.00, 
2273.00, 
2274.00, 
2275.00, 
2276.00, 
2277.00, 
2278.00, 
2279.00, 
2280.00, 
2281.00, 
2282.00, 
2283.00, 
2284.00, 
2285.00, 
2286.00, 
2287.00, 
2288.00, 
2289.00, 
2290.00, 
2291.00, 
2292.00, 
2293.00, 
2294.00, 
2295.00, 
2296.00, 
2297.00, 
2298.00, 
2299.00, 
2300.00, 
2301.00, 
2302.00, 
2303.00, 
2304.00, 
2305.00, 
2306.00, 
2307.00, 
2308.00, 
2309.00, 
2310.00, 
2311.00, 
2312.00, 
2313.00, 
2314.00, 
2315.00, 
2316.00, 
2317.00, 
2318.00, 
2319.00, 
2320.00, 
2321.00, 
2322.00, 
2323.00, 
2324.00, 
2325.00, 
2326.00, 
2327.00, 
2328.00, 
2329.00, 
2330.00, 
2331.00, 
2332.00, 
2333.00, 
2334.00, 
2335.00, 
2336.00, 
2337.00, 
2338.00, 
2339.00, 
2340.00, 
2341.00, 
2342.00, 
2343.00, 
2344.00, 
2345.00, 
2346.00, 
2347.00, 
2348.00, 
2349.00, 
2350.00, 
2351.00, 
2352.00, 
2353.00, 
2354.00, 
2355.00, 
2356.00, 
2357.00, 
2358.00, 
2359.00, 
2360.00, 
2361.00, 
2362.00, 
2363.00, 
2364.00, 
2365.00, 
2366.00, 
2367.00, 
2368.00, 
2369.00, 
2370.00, 
2371.00, 
2372.00, 
2373.00, 
2374.00, 
2375.00, 
2376.00, 
2377.00, 
2378.00, 
2379.00, 
2380.00, 
2381.00, 
2382.00, 
2383.00, 
2384.00, 
2385.00, 
2386.00, 
2387.00, 
2388.00, 
2389.00, 
2390.00, 
2391.00, 
2392.00, 
2393.00, 
2394.00, 
2395.00, 
2396.00, 
2397.00, 
2398.00, 
2399.00, 
2400.00, 
2401.00, 
2402.00, 
2403.00, 
2404.00, 
2405.00, 
2406.00, 
2407.00, 
2408.00, 
2409.00, 
2410.00, 
2411.00, 
2412.00, 
2413.00, 
2414.00, 
2415.00, 
2416.00, 
2417.00, 
2418.00, 
2419.00, 
2420.00, 
2421.00, 
2422.00, 
2423.00, 
2424.00, 
2425.00, 
2426.00, 
2427.00, 
2428.00, 
2429.00, 
2430.00, 
2431.00, 
2432.00, 
2433.00, 
2434.00, 
2435.00, 
2436.00, 
2437.00, 
2438.00, 
2439.00, 
2440.00, 
2441.00, 
2442.00, 
2443.00, 
2444.00, 
2445.00, 
2446.00, 
2447.00, 
2448.00, 
2449.00, 
2450.00, 
2451.00, 
2452.00, 
2453.00, 
2454.00, 
2455.00, 
2456.00, 
2457.00, 
2458.00, 
2459.00, 
2460.00, 
2461.00, 
2462.00, 
2463.00, 
2464.00, 
2465.00, 
2466.00, 
2467.00, 
2468.00, 
2469.00, 
2470.00, 
2471.00, 
2472.00, 
2473.00, 
2474.00, 
2475.00, 
2476.00, 
2477.00, 
2478.00, 
2479.00, 
2480.00, 
2481.00, 
2482.00, 
2483.00, 
2484.00, 
2485.00, 
2486.00, 
2487.00, 
2488.00, 
2489.00, 
2490.00, 
2491.00, 
2492.00, 
2493.00, 
2494.00, 
2495.00, 
2496.00, 
2497.00, 
2498.00, 
2499.00, 
2500.00, 
2501.00, 
2502.00, 
2503.00, 
2504.00, 
2505.00, 
2506.00, 
2507.00, 
2508.00, 
2509.00, 
2510.00, 
2511.00, 
2512.00, 
2513.00, 
2514.00, 
2515.00, 
2516.00, 
2517.00, 
2518.00, 
2519.00, 
2520.00, 
2521.00, 
2522.00, 
2523.00, 
2524.00, 
2525.00, 
2526.00, 
2527.00, 
2528.00, 
2529.00, 
2530.00, 
2531.00, 
2532.00, 
2533.00, 
2534.00, 
2535.00, 
2536.00, 
2537.00, 
2538.00, 
2539.00, 
2540.00, 
2541.00, 
2542.00, 
2543.00, 
2544.00, 
2545.00, 
2546.00, 
2547.00, 
2548.00, 
2549.00, 
2550.00, 
2551.00, 
2552.00, 
2553.00, 
2554.00, 
2555.00, 
2556.00, 
2557.00, 
2558.00, 
2559.00, 
2560.00, 
2561.00, 
2562.00, 
2563.00, 
2564.00, 
2565.00, 
2566.00, 
2567.00, 
2568.00, 
2569.00, 
2570.00, 
2571.00, 
2572.00, 
2573.00, 
2574.00, 
2575.00, 
2576.00, 
2577.00, 
2578.00, 
2579.00, 
2580.00, 
2581.00, 
2582.00, 
2583.00, 
2584.00, 
2585.00, 
2586.00, 
2587.00, 
2588.00, 
2589.00, 
2590.00, 
2591.00, 
2592.00, 
2593.00, 
2594.00, 
2595.00, 
2596.00, 
2597.00, 
2598.00, 
2599.00, 
2600.00, 
