"1cP5 - RawData"
"Wavelength nm.","T%"
200.00,0.000
201.00,0.002
202.00,-0.002
203.00,0.001
204.00,0.001
205.00,0.000
206.00,-0.000
207.00,0.001
208.00,0.003
209.00,-0.001
210.00,-0.001
211.00,0.002
212.00,-0.001
213.00,0.000
214.00,0.000
215.00,-0.000
216.00,-0.001
217.00,0.002
218.00,0.001
219.00,0.003
220.00,-0.002
221.00,0.002
222.00,0.002
223.00,-0.002
224.00,-0.001
225.00,0.002
226.00,0.002
227.00,-0.000
228.00,0.003
229.00,-0.002
230.00,0.002
231.00,0.000
232.00,0.003
233.00,-0.001
234.00,0.001
235.00,0.000
236.00,-0.002
237.00,0.001
238.00,-0.000
239.00,0.001
240.00,0.000
241.00,0.001
242.00,0.002
243.00,-0.000
244.00,0.000
245.00,0.003
246.00,0.001
247.00,-0.001
248.00,0.000
249.00,0.002
250.00,0.001
251.00,0.001
252.00,-0.000
253.00,0.002
254.00,-0.001
255.00,0.000
256.00,0.001
257.00,0.001
258.00,0.000
259.00,-0.000
260.00,-0.000
261.00,-0.000
262.00,0.001
263.00,0.001
264.00,-0.000
265.00,-0.000
266.00,0.002
267.00,-0.001
268.00,-0.001
269.00,0.000
270.00,-0.000
271.00,0.000
272.00,0.000
273.00,-0.001
274.00,-0.001
275.00,-0.000
276.00,0.000
277.00,0.000
278.00,0.002
279.00,0.001
280.00,0.000
281.00,0.001
282.00,-0.000
283.00,0.002
284.00,0.002
285.00,0.002
286.00,0.001
287.00,0.000
288.00,0.001
289.00,-0.001
290.00,0.000
291.00,-0.000
292.00,0.003
293.00,0.000
294.00,0.000
295.00,-0.000
296.00,-0.000
297.00,0.001
298.00,-0.000
299.00,0.001
300.00,0.001
301.00,0.002
302.00,0.001
303.00,0.001
304.00,0.001
305.00,0.001
306.00,0.003
307.00,0.003
308.00,0.005
309.00,0.012
310.00,0.016
311.00,0.026
312.00,0.045
313.00,0.066
314.00,0.100
315.00,0.144
316.00,0.205
317.00,0.291
318.00,0.407
319.00,0.541
320.00,0.725
321.00,0.923
322.00,1.200
323.00,1.511
324.00,1.852
325.00,2.241
326.00,2.668
327.00,3.160
328.00,3.691
329.00,4.254
330.00,4.879
331.00,5.501
332.00,6.196
333.00,6.899
334.00,7.591
335.00,8.372
336.00,9.134
337.00,9.902
338.00,10.660
339.00,11.388
340.00,12.139
341.00,12.875
342.00,13.532
343.00,14.209
344.00,14.853
345.00,15.543
346.00,16.122
347.00,16.664
348.00,17.261
349.00,17.743
350.00,18.247
351.00,18.710
352.00,19.091
353.00,19.492
354.00,19.885
355.00,20.270
356.00,20.597
357.00,20.851
358.00,21.212
359.00,21.503
360.00,21.773
361.00,21.949
362.00,22.197
363.00,22.364
364.00,22.460
365.00,22.633
366.00,22.716
367.00,22.770
368.00,22.882
369.00,22.951
370.00,23.020
371.00,23.060
372.00,22.977
373.00,23.008
374.00,23.019
375.00,22.994
376.00,22.875
377.00,22.819
378.00,22.744
379.00,22.632
380.00,22.557
381.00,22.572
382.00,22.560
383.00,22.600
384.00,22.681
385.00,22.745
386.00,22.765
387.00,22.916
388.00,22.985
389.00,23.011
390.00,23.060
391.00,23.114
392.00,23.172
393.00,23.184
394.00,23.231
395.00,23.237
396.00,23.217
397.00,23.280
398.00,23.296
399.00,23.290
400.00,23.308
401.00,23.316
402.00,23.283
403.00,23.286
404.00,23.284
405.00,23.243
406.00,23.249
407.00,23.209
408.00,23.249
409.00,23.148
410.00,23.091
411.00,23.126
412.00,23.072
413.00,23.108
414.00,23.048
415.00,23.051
416.00,23.131
417.00,23.078
418.00,23.124
419.00,23.202
420.00,23.237
421.00,23.239
422.00,23.250
423.00,23.313
424.00,23.380
425.00,23.370
426.00,23.369
427.00,23.445
428.00,23.491
429.00,23.519
430.00,23.575
431.00,23.652
432.00,23.677
433.00,23.703
434.00,23.793
435.00,23.835
436.00,23.902
437.00,23.991
438.00,24.064
439.00,24.086
440.00,24.186
441.00,24.191
442.00,24.327
443.00,24.424
444.00,24.528
445.00,24.625
446.00,24.695
447.00,24.778
448.00,24.907
449.00,25.000
450.00,25.133
451.00,25.195
452.00,25.301
453.00,25.390
454.00,25.514
455.00,25.646
456.00,25.777
457.00,25.906
458.00,25.998
459.00,26.136
460.00,26.256
461.00,26.401
462.00,26.493
463.00,26.657
464.00,26.808
465.00,26.921
466.00,27.049
467.00,27.175
468.00,27.222
469.00,27.391
470.00,27.489
471.00,27.488
472.00,27.772
473.00,27.799
474.00,27.943
475.00,28.088
476.00,28.171
477.00,28.286
478.00,28.390
479.00,28.581
480.00,28.741
481.00,28.828
482.00,28.994
483.00,29.146
484.00,29.296
485.00,29.425
486.00,29.574
487.00,29.729
488.00,29.893
489.00,30.039
490.00,30.189
491.00,30.322
492.00,30.580
493.00,30.702
494.00,30.696
495.00,30.823
496.00,30.938
497.00,31.061
498.00,31.109
499.00,31.363
500.00,31.519
501.00,31.579
502.00,31.717
503.00,31.881
504.00,31.905
505.00,32.101
506.00,32.234
507.00,32.273
508.00,32.383
509.00,32.581
510.00,32.713
511.00,32.742
512.00,32.965
513.00,33.113
514.00,33.187
515.00,33.342
516.00,33.431
517.00,33.554
518.00,33.654
519.00,33.743
520.00,33.761
521.00,33.903
522.00,33.955
523.00,33.975
524.00,34.132
525.00,34.252
526.00,34.301
527.00,34.397
528.00,34.502
529.00,34.659
530.00,34.789
531.00,34.920
532.00,34.965
533.00,35.089
534.00,35.170
535.00,35.225
536.00,35.320
537.00,35.397
538.00,35.464
539.00,35.521
540.00,35.609
541.00,35.617
542.00,35.697
543.00,35.750
544.00,35.839
545.00,35.871
546.00,35.876
547.00,36.073
548.00,36.146
549.00,36.187
550.00,36.226
551.00,36.325
552.00,36.434
553.00,36.489
554.00,36.510
555.00,36.544
556.00,36.609
557.00,36.700
558.00,36.706
559.00,36.810
560.00,36.897
561.00,36.945
562.00,36.970
563.00,37.037
564.00,37.079
565.00,37.112
566.00,37.097
567.00,37.150
568.00,37.245
569.00,37.241
570.00,37.321
571.00,37.335
572.00,37.309
573.00,37.341
574.00,37.349
575.00,37.419
576.00,37.408
577.00,37.464
578.00,37.553
579.00,37.590
580.00,37.591
581.00,37.780
582.00,37.850
583.00,37.820
584.00,37.892
585.00,37.990
586.00,38.024
587.00,38.109
588.00,38.123
589.00,38.031
590.00,38.108
591.00,38.206
592.00,38.129
593.00,38.173
594.00,38.298
595.00,38.384
596.00,38.474
597.00,38.524
598.00,38.623
599.00,38.579
600.00,38.495
601.00,38.439
602.00,38.635
603.00,38.738
604.00,38.691
605.00,38.789
606.00,38.735
607.00,38.766
608.00,38.981
609.00,39.020
610.00,38.900
611.00,38.945
612.00,38.960
613.00,39.043
614.00,39.108
615.00,39.145
616.00,39.280
617.00,39.250
618.00,39.232
619.00,39.306
620.00,39.304
621.00,39.411
622.00,39.436
623.00,39.434
624.00,39.604
625.00,39.647
626.00,39.610
627.00,39.637
628.00,39.791
629.00,39.846
630.00,39.868
631.00,39.915
632.00,39.932
633.00,40.084
634.00,40.240
635.00,40.248
636.00,40.321
637.00,40.328
638.00,40.381
639.00,40.510
640.00,40.517
641.00,40.544
642.00,40.645
643.00,40.691
644.00,40.854
645.00,40.861
646.00,40.942
647.00,41.068
648.00,41.039
649.00,41.069
650.00,41.118
651.00,41.274
652.00,41.339
653.00,41.351
654.00,41.463
655.00,41.645
656.00,41.891
657.00,41.734
658.00,41.836
659.00,41.878
660.00,41.919
661.00,42.018
662.00,42.123
663.00,42.188
664.00,42.365
665.00,42.547
666.00,42.410
667.00,42.388
668.00,42.509
669.00,42.807
670.00,43.043
671.00,42.962
672.00,43.029
673.00,43.063
674.00,43.122
675.00,43.300
676.00,43.528
677.00,43.601
678.00,43.459
679.00,43.643
680.00,43.686
681.00,43.835
682.00,43.881
683.00,43.862
684.00,44.031
685.00,44.165
686.00,44.054
687.00,44.119
688.00,44.020
689.00,44.316
690.00,44.624
691.00,44.763
692.00,44.577
693.00,44.668
694.00,44.750
695.00,44.921
696.00,44.987
697.00,44.996
698.00,44.994
699.00,45.301
700.00,45.410
701.00,45.313
702.00,45.427
703.00,45.585
704.00,45.666
705.00,45.651
706.00,45.615
707.00,45.771
708.00,45.612
709.00,46.046
710.00,46.407
711.00,45.822
712.00,45.963
713.00,46.122
714.00,46.190
715.00,46.335
716.00,46.285
717.00,46.416
718.00,46.576
719.00,46.518
720.00,46.638
721.00,51.181
722.00,51.109
723.00,51.120
724.00,51.132
725.00,51.150
726.00,51.176
727.00,51.182
728.00,51.166
729.00,51.253
730.00,51.194
731.00,51.241
732.00,51.370
733.00,51.377
734.00,51.369
735.00,51.489
736.00,51.452
737.00,51.479
738.00,51.489
739.00,51.508
740.00,51.482
741.00,51.578
742.00,51.578
743.00,51.636
744.00,51.601
745.00,51.577
746.00,51.596
747.00,51.687
748.00,51.654
749.00,51.680
750.00,51.641
751.00,51.569
752.00,51.597
753.00,51.639
754.00,51.643
755.00,51.683
756.00,51.698
757.00,51.612
758.00,51.611
759.00,51.619
760.00,51.642
761.00,51.639
762.00,51.686
763.00,51.761
764.00,51.632
765.00,51.690
766.00,51.736
767.00,51.822
768.00,51.760
769.00,51.797
770.00,51.841
771.00,51.737
772.00,51.751
773.00,51.738
774.00,51.817
775.00,51.872
776.00,51.764
777.00,51.762
778.00,51.781
779.00,51.834
780.00,51.812
781.00,51.746
782.00,51.817
783.00,51.813
784.00,51.832
785.00,51.712
786.00,51.784
787.00,51.754
788.00,51.706
789.00,51.767
790.00,51.630
791.00,51.721
792.00,51.725
793.00,51.734
794.00,51.658
795.00,51.631
796.00,51.659
797.00,51.503
798.00,51.618
799.00,51.580
800.00,51.523
801.00,51.579
802.00,51.519
803.00,51.566
804.00,51.457
805.00,51.510
806.00,51.481
807.00,51.463
808.00,51.465
809.00,51.420
810.00,51.389
811.00,51.409
812.00,51.385
813.00,51.326
814.00,51.378
815.00,51.326
816.00,51.268
817.00,51.283
818.00,51.212
819.00,51.174
820.00,51.171
821.00,51.229
822.00,51.253
823.00,51.124
824.00,51.310
825.00,51.062
826.00,51.149
827.00,51.247
828.00,51.230
829.00,51.095
830.00,51.131
831.00,53.439
832.00,53.438
833.00,53.373
834.00,53.388
835.00,53.346
836.00,53.374
837.00,53.313
838.00,53.290
839.00,53.301
840.00,53.227
841.00,53.262
842.00,53.219
843.00,53.248
844.00,53.182
845.00,53.143
846.00,53.222
847.00,53.114
848.00,53.099
849.00,53.042
850.00,53.039
851.00,52.992
852.00,53.001
853.00,52.896
854.00,52.917
855.00,52.850
856.00,52.867
857.00,52.849
858.00,52.819
859.00,52.743
860.00,52.899
861.00,52.793
862.00,52.766
863.00,52.772
864.00,52.714
865.00,52.756
866.00,52.710
867.00,52.679
868.00,52.680
869.00,52.645
870.00,52.653
871.00,52.674
872.00,52.633
873.00,52.594
874.00,52.568
875.00,52.696
876.00,52.569
877.00,52.581
878.00,52.585
879.00,52.560
880.00,52.541
881.00,52.508
882.00,52.537
883.00,52.457
884.00,52.446
885.00,52.445
886.00,52.449
887.00,52.392
888.00,52.375
889.00,52.357
890.00,52.350
891.00,52.312
892.00,52.288
893.00,52.276
894.00,52.270
895.00,52.239
896.00,52.213
897.00,52.188
898.00,52.160
899.00,52.167
900.00,52.153
901.00,52.180
902.00,52.132
903.00,52.096
904.00,52.102
905.00,52.063
906.00,52.048
907.00,52.035
908.00,51.993
909.00,51.992
910.00,51.957
911.00,51.953
912.00,51.935
913.00,51.912
914.00,51.838
915.00,51.986
916.00,51.812
917.00,51.838
918.00,51.857
919.00,51.812
920.00,51.772
921.00,51.776
922.00,51.759
923.00,51.735
924.00,51.675
925.00,51.701
926.00,51.674
927.00,51.669
928.00,51.616
929.00,51.633
930.00,51.669
931.00,51.591
932.00,51.541
933.00,51.566
934.00,51.551
935.00,51.504
936.00,51.484
937.00,51.492
938.00,51.467
939.00,51.463
940.00,51.425
941.00,51.431
942.00,51.406
943.00,51.392
944.00,51.325
945.00,51.335
946.00,51.342
947.00,51.326
948.00,51.280
949.00,51.250
950.00,51.218
951.00,51.206
952.00,51.180
953.00,51.159
954.00,51.133
955.00,51.090
956.00,51.072
957.00,51.034
958.00,51.055
959.00,51.015
960.00,51.020
961.00,50.977
962.00,50.996
963.00,50.942
964.00,50.949
965.00,50.940
966.00,50.927
967.00,50.922
968.00,50.899
969.00,50.921
970.00,50.898
971.00,50.911
972.00,50.847
973.00,50.927
974.00,50.926
975.00,50.833
976.00,50.879
977.00,50.862
978.00,50.924
979.00,50.866
980.00,50.890
981.00,50.892
982.00,50.859
983.00,50.868
984.00,50.866
985.00,50.892
986.00,50.858
987.00,50.889
988.00,50.846
989.00,50.839
990.00,50.809
991.00,50.836
992.00,50.831
993.00,50.783
994.00,50.757
995.00,50.763
996.00,50.755
997.00,50.739
998.00,50.723
999.00,50.728
1000.00,50.686
1001.00,50.664
1002.00,50.662
1003.00,50.660
1004.00,50.636
1005.00,50.604
1006.00,50.708
1007.00,50.610
1008.00,50.602
1009.00,50.577
1010.00,50.579
1011.00,50.568
1012.00,50.532
1013.00,50.542
1014.00,50.512
1015.00,50.530
1016.00,50.491
1017.00,50.494
1018.00,50.479
1019.00,50.449
1020.00,50.441
1021.00,50.417
1022.00,50.411
1023.00,50.358
1024.00,50.367
1025.00,50.353
1026.00,50.338
1027.00,50.306
1028.00,50.312
1029.00,50.298
1030.00,50.268
1031.00,50.287
1032.00,50.245
1033.00,50.250
1034.00,50.222
1035.00,50.181
1036.00,50.177
1037.00,50.170
1038.00,50.117
1039.00,50.087
1040.00,50.084
1041.00,50.040
1042.00,50.051
1043.00,50.018
1044.00,50.049
1045.00,50.035
1046.00,50.031
1047.00,50.076
1048.00,50.084
1049.00,50.069
1050.00,50.090
1051.00,50.126
1052.00,50.137
1053.00,50.121
1054.00,50.108
1055.00,50.142
1056.00,50.141
1057.00,50.147
1058.00,50.115
1059.00,50.114
1060.00,50.118
1061.00,50.121
1062.00,50.103
1063.00,50.123
1064.00,50.114
1065.00,50.098
1066.00,50.080
1067.00,50.082
1068.00,50.095
1069.00,50.067
1070.00,50.051
1071.00,50.029
1072.00,50.054
1073.00,50.037
1074.00,50.020
1075.00,50.010
1076.00,50.027
1077.00,50.033
1078.00,49.988
1079.00,49.982
1080.00,50.013
1081.00,49.995
1082.00,49.998
1083.00,50.020
1084.00,49.976
1085.00,49.973
1086.00,49.949
1087.00,49.935
1088.00,49.926
1089.00,49.908
1090.00,49.912
1091.00,49.916
1092.00,49.906
1093.00,49.886
1094.00,49.890
1095.00,49.876
1096.00,49.855
1097.00,49.861
1098.00,49.854
1099.00,49.815
1100.00,49.804
1101.00,49.805
1102.00,49.807
1103.00,49.807
1104.00,49.785
1105.00,49.778
1106.00,49.770
1107.00,49.778
1108.00,49.765
1109.00,49.761
1110.00,49.764
1111.00,49.752
1112.00,49.746
1113.00,49.759
1114.00,49.728
1115.00,49.729
1116.00,49.723
1117.00,49.698
1118.00,49.681
1119.00,49.678
1120.00,49.669
1121.00,49.673
1122.00,49.643
1123.00,49.634
1124.00,49.643
1125.00,49.644
1126.00,49.615
1127.00,49.614
1128.00,49.593
1129.00,49.586
1130.00,49.562
1131.00,49.558
1132.00,49.555
1133.00,49.572
1134.00,49.568
1135.00,49.548
1136.00,49.561
1137.00,49.564
1138.00,49.582
1139.00,49.592
1140.00,49.583
1141.00,49.566
1142.00,49.548
1143.00,49.583
1144.00,49.554
1145.00,49.547
1146.00,49.561
1147.00,49.539
1148.00,49.511
1149.00,49.546
1150.00,49.537
1151.00,49.548
1152.00,49.526
1153.00,49.549
1154.00,49.525
1155.00,49.524
1156.00,49.535
1157.00,49.537
1158.00,49.530
1159.00,49.543
1160.00,49.515
1161.00,49.522
1162.00,49.516
1163.00,49.517
1164.00,49.525
1165.00,49.521
1166.00,49.518
1167.00,49.510
1168.00,49.536
1169.00,49.522
1170.00,49.513
1171.00,49.516
1172.00,49.510
1173.00,49.512
1174.00,49.529
1175.00,49.504
1176.00,49.505
1177.00,49.485
1178.00,49.479
1179.00,49.502
1180.00,49.476
1181.00,49.491
1182.00,49.481
1183.00,49.477
1184.00,49.478
1185.00,49.492
1186.00,49.472
1187.00,49.474
1188.00,49.473
1189.00,49.484
1190.00,49.481
1191.00,49.480
1192.00,49.498
1193.00,49.487
1194.00,49.497
1195.00,49.465
1196.00,49.499
1197.00,49.501
1198.00,49.489
1199.00,49.488
1200.00,49.502
1201.00,49.518
1202.00,49.489
1203.00,49.493
1204.00,49.491
1205.00,49.499
1206.00,49.479
1207.00,49.486
1208.00,49.472
1209.00,49.493
1210.00,49.479
1211.00,49.475
1212.00,49.509
1213.00,49.472
1214.00,49.511
1215.00,49.508
1216.00,49.523
1217.00,49.521
1218.00,49.503
1219.00,49.523
1220.00,49.501
1221.00,49.521
1222.00,49.499
1223.00,49.527
1224.00,49.514
1225.00,49.488
1226.00,49.502
1227.00,49.504
1228.00,49.522
1229.00,49.526
1230.00,49.568
1231.00,49.547
1232.00,49.572
1233.00,49.592
1234.00,49.588
1235.00,49.589
1236.00,49.591
1237.00,49.589
1238.00,49.586
1239.00,49.577
1240.00,49.564
1241.00,49.575
1242.00,49.575
1243.00,49.586
1244.00,49.555
1245.00,49.598
1246.00,49.605
1247.00,49.581
1248.00,49.595
1249.00,49.621
1250.00,49.654
1251.00,49.637
1252.00,49.622
1253.00,49.616
1254.00,49.641
1255.00,49.636
1256.00,49.626
1257.00,49.613
1258.00,49.663
1259.00,49.665
1260.00,49.679
1261.00,49.679
1262.00,49.669
1263.00,49.662
1264.00,49.682
1265.00,49.688
1266.00,49.675
1267.00,49.690
1268.00,49.718
1269.00,49.697
1270.00,49.715
1271.00,49.715
1272.00,49.721
1273.00,49.735
1274.00,49.736
1275.00,49.754
1276.00,49.748
1277.00,49.753
1278.00,49.775
1279.00,49.765
1280.00,49.740
1281.00,49.768
1282.00,49.780
1283.00,49.780
1284.00,49.797
1285.00,49.785
1286.00,49.802
1287.00,49.784
1288.00,49.791
1289.00,49.801
1290.00,49.838
1291.00,49.826
1292.00,49.839
1293.00,49.838
1294.00,49.850
1295.00,49.860
1296.00,49.858
1297.00,49.863
1298.00,49.871
1299.00,49.851
1300.00,49.875
1301.00,49.860
1302.00,49.883
1303.00,49.897
1304.00,49.879
1305.00,49.926
1306.00,49.934
1307.00,49.947
1308.00,49.961
1309.00,49.957
1310.00,49.961
1311.00,49.940
1312.00,49.963
1313.00,49.969
1314.00,49.983
1315.00,49.994
1316.00,49.998
1317.00,50.021
1318.00,50.023
1319.00,50.045
1320.00,50.043
1321.00,50.185
1322.00,50.187
1323.00,50.163
1324.00,50.194
1325.00,50.173
1326.00,50.177
1327.00,50.156
1328.00,50.171
1329.00,50.158
1330.00,50.190
1331.00,50.171
1332.00,50.166
1333.00,50.186
1334.00,50.188
1335.00,50.248
1336.00,50.264
1337.00,50.299
1338.00,50.355
1339.00,50.408
1340.00,50.476
1341.00,50.538
1342.00,50.592
1343.00,50.634
1344.00,50.698
1345.00,50.746
1346.00,50.770
1347.00,50.791
1348.00,50.801
1349.00,50.829
1350.00,50.849
1351.00,50.880
1352.00,50.876
1353.00,50.885
1354.00,50.881
1355.00,50.848
1356.00,50.957
1357.00,50.909
1358.00,50.940
1359.00,50.927
1360.00,50.944
1361.00,50.935
1362.00,50.901
1363.00,50.964
1364.00,51.068
1365.00,50.958
1366.00,50.986
1367.00,50.913
1368.00,50.967
1369.00,51.021
1370.00,50.951
1371.00,50.894
1372.00,50.946
1373.00,50.970
1374.00,51.006
1375.00,50.967
1376.00,50.930
1377.00,50.956
1378.00,51.047
1379.00,50.989
1380.00,50.976
1381.00,51.002
1382.00,50.821
1383.00,51.000
1384.00,50.884
1385.00,50.870
1386.00,50.746
1387.00,50.881
1388.00,50.936
1389.00,50.917
1390.00,50.870
1391.00,50.958
1392.00,50.957
1393.00,50.944
1394.00,50.997
1395.00,50.862
1396.00,50.935
1397.00,50.924
1398.00,50.967
1399.00,50.900
1400.00,50.770
1401.00,50.960
1402.00,51.083
1403.00,50.959
1404.00,50.993
1405.00,50.990
1406.00,51.037
1407.00,51.019
1408.00,51.051
1409.00,51.034
1410.00,51.073
1411.00,51.018
1412.00,51.140
1413.00,50.998
1414.00,51.026
1415.00,51.079
1416.00,51.134
1417.00,51.135
1418.00,51.105
1419.00,51.122
1420.00,51.150
1421.00,51.213
1422.00,51.197
1423.00,51.211
1424.00,51.215
1425.00,51.204
1426.00,51.198
1427.00,51.244
1428.00,51.233
1429.00,51.261
1430.00,51.271
1431.00,51.267
1432.00,51.312
1433.00,51.301
1434.00,51.317
1435.00,51.403
1436.00,51.395
1437.00,51.394
1438.00,51.409
1439.00,51.454
1440.00,51.473
1441.00,51.484
1442.00,51.471
1443.00,51.486
1444.00,51.551
1445.00,51.497
1446.00,51.545
1447.00,51.574
1448.00,51.628
1449.00,51.622
1450.00,51.632
1451.00,51.651
1452.00,51.671
1453.00,51.681
1454.00,51.727
1455.00,51.736
1456.00,51.742
1457.00,51.785
1458.00,51.780
1459.00,51.813
1460.00,51.843
1461.00,51.837
1462.00,51.871
1463.00,51.862
1464.00,51.876
1465.00,51.890
1466.00,51.872
1467.00,51.914
1468.00,51.992
1469.00,51.952
1470.00,51.973
1471.00,52.009
1472.00,52.013
1473.00,52.044
1474.00,52.071
1475.00,52.064
1476.00,52.099
1477.00,52.073
1478.00,52.087
1479.00,52.117
1480.00,52.106
1481.00,52.115
1482.00,52.141
1483.00,52.143
1484.00,52.175
1485.00,52.168
1486.00,52.174
1487.00,52.210
1488.00,52.225
1489.00,52.233
1490.00,52.245
1491.00,52.261
1492.00,52.308
1493.00,52.280
1494.00,52.324
1495.00,52.317
1496.00,52.352
1497.00,52.320
1498.00,52.375
1499.00,52.383
1500.00,52.388
1501.00, 
1502.00, 
1503.00, 
1504.00, 
1505.00, 
1506.00, 
1507.00, 
1508.00, 
1509.00, 
1510.00, 
1511.00, 
1512.00, 
1513.00, 
1514.00, 
1515.00, 
1516.00, 
1517.00, 
1518.00, 
1519.00, 
1520.00, 
1521.00, 
1522.00, 
1523.00, 
1524.00, 
1525.00, 
1526.00, 
1527.00, 
1528.00, 
1529.00, 
1530.00, 
1531.00, 
1532.00, 
1533.00, 
1534.00, 
1535.00, 
1536.00, 
1537.00, 
1538.00, 
1539.00, 
1540.00, 
1541.00, 
1542.00, 
1543.00, 
1544.00, 
1545.00, 
1546.00, 
1547.00, 
1548.00, 
1549.00, 
1550.00, 
1551.00, 
1552.00, 
1553.00, 
1554.00, 
1555.00, 
1556.00, 
1557.00, 
1558.00, 
1559.00, 
1560.00, 
1561.00, 
1562.00, 
1563.00, 
1564.00, 
1565.00, 
1566.00, 
1567.00, 
1568.00, 
1569.00, 
1570.00, 
1571.00, 
1572.00, 
1573.00, 
1574.00, 
1575.00, 
1576.00, 
1577.00, 
1578.00, 
1579.00, 
1580.00, 
1581.00, 
1582.00, 
1583.00, 
1584.00, 
1585.00, 
1586.00, 
1587.00, 
1588.00, 
1589.00, 
1590.00, 
1591.00, 
1592.00, 
1593.00, 
1594.00, 
1595.00, 
1596.00, 
1597.00, 
1598.00, 
1599.00, 
1600.00, 
1601.00, 
1602.00, 
1603.00, 
1604.00, 
1605.00, 
1606.00, 
1607.00, 
1608.00, 
1609.00, 
1610.00, 
1611.00, 
1612.00, 
1613.00, 
1614.00, 
1615.00, 
1616.00, 
1617.00, 
1618.00, 
1619.00, 
1620.00, 
1621.00, 
1622.00, 
1623.00, 
1624.00, 
1625.00, 
1626.00, 
1627.00, 
1628.00, 
1629.00, 
1630.00, 
1631.00, 
1632.00, 
1633.00, 
1634.00, 
1635.00, 
1636.00, 
1637.00, 
1638.00, 
1639.00, 
1640.00, 
1641.00, 
1642.00, 
1643.00, 
1644.00, 
1645.00, 
1646.00, 
1647.00, 
1648.00, 
1649.00, 
1650.00, 
1651.00, 
1652.00, 
1653.00, 
1654.00, 
1655.00, 
1656.00, 
1657.00, 
1658.00, 
1659.00, 
1660.00, 
1661.00, 
1662.00, 
1663.00, 
1664.00, 
1665.00, 
1666.00, 
1667.00, 
1668.00, 
1669.00, 
1670.00, 
1671.00, 
1672.00, 
1673.00, 
1674.00, 
1675.00, 
1676.00, 
1677.00, 
1678.00, 
1679.00, 
1680.00, 
1681.00, 
1682.00, 
1683.00, 
1684.00, 
1685.00, 
1686.00, 
1687.00, 
1688.00, 
1689.00, 
1690.00, 
1691.00, 
1692.00, 
1693.00, 
1694.00, 
1695.00, 
1696.00, 
1697.00, 
1698.00, 
1699.00, 
1700.00, 
1701.00, 
1702.00, 
1703.00, 
1704.00, 
1705.00, 
1706.00, 
1707.00, 
1708.00, 
1709.00, 
1710.00, 
1711.00, 
1712.00, 
1713.00, 
1714.00, 
1715.00, 
1716.00, 
1717.00, 
1718.00, 
1719.00, 
1720.00, 
1721.00, 
1722.00, 
1723.00, 
1724.00, 
1725.00, 
1726.00, 
1727.00, 
1728.00, 
1729.00, 
1730.00, 
1731.00, 
1732.00, 
1733.00, 
1734.00, 
1735.00, 
1736.00, 
1737.00, 
1738.00, 
1739.00, 
1740.00, 
1741.00, 
1742.00, 
1743.00, 
1744.00, 
1745.00, 
1746.00, 
1747.00, 
1748.00, 
1749.00, 
1750.00, 
1751.00, 
1752.00, 
1753.00, 
1754.00, 
1755.00, 
1756.00, 
1757.00, 
1758.00, 
1759.00, 
1760.00, 
1761.00, 
1762.00, 
1763.00, 
1764.00, 
1765.00, 
1766.00, 
1767.00, 
1768.00, 
1769.00, 
1770.00, 
1771.00, 
1772.00, 
1773.00, 
1774.00, 
1775.00, 
1776.00, 
1777.00, 
1778.00, 
1779.00, 
1780.00, 
1781.00, 
1782.00, 
1783.00, 
1784.00, 
1785.00, 
1786.00, 
1787.00, 
1788.00, 
1789.00, 
1790.00, 
1791.00, 
1792.00, 
1793.00, 
1794.00, 
1795.00, 
1796.00, 
1797.00, 
1798.00, 
1799.00, 
1800.00, 
1801.00, 
1802.00, 
1803.00, 
1804.00, 
1805.00, 
1806.00, 
1807.00, 
1808.00, 
1809.00, 
1810.00, 
1811.00, 
1812.00, 
1813.00, 
1814.00, 
1815.00, 
1816.00, 
1817.00, 
1818.00, 
1819.00, 
1820.00, 
1821.00, 
1822.00, 
1823.00, 
1824.00, 
1825.00, 
1826.00, 
1827.00, 
1828.00, 
1829.00, 
1830.00, 
1831.00, 
1832.00, 
1833.00, 
1834.00, 
1835.00, 
1836.00, 
1837.00, 
1838.00, 
1839.00, 
1840.00, 
1841.00, 
1842.00, 
1843.00, 
1844.00, 
1845.00, 
1846.00, 
1847.00, 
1848.00, 
1849.00, 
1850.00, 
1851.00, 
1852.00, 
1853.00, 
1854.00, 
1855.00, 
1856.00, 
1857.00, 
1858.00, 
1859.00, 
1860.00, 
1861.00, 
1862.00, 
1863.00, 
1864.00, 
1865.00, 
1866.00, 
1867.00, 
1868.00, 
1869.00, 
1870.00, 
1871.00, 
1872.00, 
1873.00, 
1874.00, 
1875.00, 
1876.00, 
1877.00, 
1878.00, 
1879.00, 
1880.00, 
1881.00, 
1882.00, 
1883.00, 
1884.00, 
1885.00, 
1886.00, 
1887.00, 
1888.00, 
1889.00, 
1890.00, 
1891.00, 
1892.00, 
1893.00, 
1894.00, 
1895.00, 
1896.00, 
1897.00, 
1898.00, 
1899.00, 
1900.00, 
1901.00, 
1902.00, 
1903.00, 
1904.00, 
1905.00, 
1906.00, 
1907.00, 
1908.00, 
1909.00, 
1910.00, 
1911.00, 
1912.00, 
1913.00, 
1914.00, 
1915.00, 
1916.00, 
1917.00, 
1918.00, 
1919.00, 
1920.00, 
1921.00, 
1922.00, 
1923.00, 
1924.00, 
1925.00, 
1926.00, 
1927.00, 
1928.00, 
1929.00, 
1930.00, 
1931.00, 
1932.00, 
1933.00, 
1934.00, 
1935.00, 
1936.00, 
1937.00, 
1938.00, 
1939.00, 
1940.00, 
1941.00, 
1942.00, 
1943.00, 
1944.00, 
1945.00, 
1946.00, 
1947.00, 
1948.00, 
1949.00, 
1950.00, 
1951.00, 
1952.00, 
1953.00, 
1954.00, 
1955.00, 
1956.00, 
1957.00, 
1958.00, 
1959.00, 
1960.00, 
1961.00, 
1962.00, 
1963.00, 
1964.00, 
1965.00, 
1966.00, 
1967.00, 
1968.00, 
1969.00, 
1970.00, 
1971.00, 
1972.00, 
1973.00, 
1974.00, 
1975.00, 
1976.00, 
1977.00, 
1978.00, 
1979.00, 
1980.00, 
1981.00, 
1982.00, 
1983.00, 
1984.00, 
1985.00, 
1986.00, 
1987.00, 
1988.00, 
1989.00, 
1990.00, 
1991.00, 
1992.00, 
1993.00, 
1994.00, 
1995.00, 
1996.00, 
1997.00, 
1998.00, 
1999.00, 
2000.00, 
2001.00, 
2002.00, 
2003.00, 
2004.00, 
2005.00, 
2006.00, 
2007.00, 
2008.00, 
2009.00, 
2010.00, 
2011.00, 
2012.00, 
2013.00, 
2014.00, 
2015.00, 
2016.00, 
2017.00, 
2018.00, 
2019.00, 
2020.00, 
2021.00, 
2022.00, 
2023.00, 
2024.00, 
2025.00, 
2026.00, 
2027.00, 
2028.00, 
2029.00, 
2030.00, 
2031.00, 
2032.00, 
2033.00, 
2034.00, 
2035.00, 
2036.00, 
2037.00, 
2038.00, 
2039.00, 
2040.00, 
2041.00, 
2042.00, 
2043.00, 
2044.00, 
2045.00, 
2046.00, 
2047.00, 
2048.00, 
2049.00, 
2050.00, 
2051.00, 
2052.00, 
2053.00, 
2054.00, 
2055.00, 
2056.00, 
2057.00, 
2058.00, 
2059.00, 
2060.00, 
2061.00, 
2062.00, 
2063.00, 
2064.00, 
2065.00, 
2066.00, 
2067.00, 
2068.00, 
2069.00, 
2070.00, 
2071.00, 
2072.00, 
2073.00, 
2074.00, 
2075.00, 
2076.00, 
2077.00, 
2078.00, 
2079.00, 
2080.00, 
2081.00, 
2082.00, 
2083.00, 
2084.00, 
2085.00, 
2086.00, 
2087.00, 
2088.00, 
2089.00, 
2090.00, 
2091.00, 
2092.00, 
2093.00, 
2094.00, 
2095.00, 
2096.00, 
2097.00, 
2098.00, 
2099.00, 
2100.00, 
2101.00, 
2102.00, 
2103.00, 
2104.00, 
2105.00, 
2106.00, 
2107.00, 
2108.00, 
2109.00, 
2110.00, 
2111.00, 
2112.00, 
2113.00, 
2114.00, 
2115.00, 
2116.00, 
2117.00, 
2118.00, 
2119.00, 
2120.00, 
2121.00, 
2122.00, 
2123.00, 
2124.00, 
2125.00, 
2126.00, 
2127.00, 
2128.00, 
2129.00, 
2130.00, 
2131.00, 
2132.00, 
2133.00, 
2134.00, 
2135.00, 
2136.00, 
2137.00, 
2138.00, 
2139.00, 
2140.00, 
2141.00, 
2142.00, 
2143.00, 
2144.00, 
2145.00, 
2146.00, 
2147.00, 
2148.00, 
2149.00, 
2150.00, 
2151.00, 
2152.00, 
2153.00, 
2154.00, 
2155.00, 
2156.00, 
2157.00, 
2158.00, 
2159.00, 
2160.00, 
2161.00, 
2162.00, 
2163.00, 
2164.00, 
2165.00, 
2166.00, 
2167.00, 
2168.00, 
2169.00, 
2170.00, 
2171.00, 
2172.00, 
2173.00, 
2174.00, 
2175.00, 
2176.00, 
2177.00, 
2178.00, 
2179.00, 
2180.00, 
2181.00, 
2182.00, 
2183.00, 
2184.00, 
2185.00, 
2186.00, 
2187.00, 
2188.00, 
2189.00, 
2190.00, 
2191.00, 
2192.00, 
2193.00, 
2194.00, 
2195.00, 
2196.00, 
2197.00, 
2198.00, 
2199.00, 
2200.00, 
2201.00, 
2202.00, 
2203.00, 
2204.00, 
2205.00, 
2206.00, 
2207.00, 
2208.00, 
2209.00, 
2210.00, 
2211.00, 
2212.00, 
2213.00, 
2214.00, 
2215.00, 
2216.00, 
2217.00, 
2218.00, 
2219.00, 
2220.00, 
2221.00, 
2222.00, 
2223.00, 
2224.00, 
2225.00, 
2226.00, 
2227.00, 
2228.00, 
2229.00, 
2230.00, 
2231.00, 
2232.00, 
2233.00, 
2234.00, 
2235.00, 
2236.00, 
2237.00, 
2238.00, 
2239.00, 
2240.00, 
2241.00, 
2242.00, 
2243.00, 
2244.00, 
2245.00, 
2246.00, 
2247.00, 
2248.00, 
2249.00, 
2250.00, 
2251.00, 
2252.00, 
2253.00, 
2254.00, 
2255.00, 
2256.00, 
2257.00, 
2258.00, 
2259.00, 
2260.00, 
2261.00, 
2262.00, 
2263.00, 
2264.00, 
2265.00, 
2266.00, 
2267.00, 
2268.00, 
2269.00, 
2270.00, 
2271.00, 
2272.00, 
2273.00, 
2274.00, 
2275.00, 
2276.00, 
2277.00, 
2278.00, 
2279.00, 
2280.00, 
2281.00, 
2282.00, 
2283.00, 
2284.00, 
2285.00, 
2286.00, 
2287.00, 
2288.00, 
2289.00, 
2290.00, 
2291.00, 
2292.00, 
2293.00, 
2294.00, 
2295.00, 
2296.00, 
2297.00, 
2298.00, 
2299.00, 
2300.00, 
2301.00, 
2302.00, 
2303.00, 
2304.00, 
2305.00, 
2306.00, 
2307.00, 
2308.00, 
2309.00, 
2310.00, 
2311.00, 
2312.00, 
2313.00, 
2314.00, 
2315.00, 
2316.00, 
2317.00, 
2318.00, 
2319.00, 
2320.00, 
2321.00, 
2322.00, 
2323.00, 
2324.00, 
2325.00, 
2326.00, 
2327.00, 
2328.00, 
2329.00, 
2330.00, 
2331.00, 
2332.00, 
2333.00, 
2334.00, 
2335.00, 
2336.00, 
2337.00, 
2338.00, 
2339.00, 
2340.00, 
2341.00, 
2342.00, 
2343.00, 
2344.00, 
2345.00, 
2346.00, 
2347.00, 
2348.00, 
2349.00, 
2350.00, 
2351.00, 
2352.00, 
2353.00, 
2354.00, 
2355.00, 
2356.00, 
2357.00, 
2358.00, 
2359.00, 
2360.00, 
2361.00, 
2362.00, 
2363.00, 
2364.00, 
2365.00, 
2366.00, 
2367.00, 
2368.00, 
2369.00, 
2370.00, 
2371.00, 
2372.00, 
2373.00, 
2374.00, 
2375.00, 
2376.00, 
2377.00, 
2378.00, 
2379.00, 
2380.00, 
2381.00, 
2382.00, 
2383.00, 
2384.00, 
2385.00, 
2386.00, 
2387.00, 
2388.00, 
2389.00, 
2390.00, 
2391.00, 
2392.00, 
2393.00, 
2394.00, 
2395.00, 
2396.00, 
2397.00, 
2398.00, 
2399.00, 
2400.00, 
2401.00, 
2402.00, 
2403.00, 
2404.00, 
2405.00, 
2406.00, 
2407.00, 
2408.00, 
2409.00, 
2410.00, 
2411.00, 
2412.00, 
2413.00, 
2414.00, 
2415.00, 
2416.00, 
2417.00, 
2418.00, 
2419.00, 
2420.00, 
2421.00, 
2422.00, 
2423.00, 
2424.00, 
2425.00, 
2426.00, 
2427.00, 
2428.00, 
2429.00, 
2430.00, 
2431.00, 
2432.00, 
2433.00, 
2434.00, 
2435.00, 
2436.00, 
2437.00, 
2438.00, 
2439.00, 
2440.00, 
2441.00, 
2442.00, 
2443.00, 
2444.00, 
2445.00, 
2446.00, 
2447.00, 
2448.00, 
2449.00, 
2450.00, 
2451.00, 
2452.00, 
2453.00, 
2454.00, 
2455.00, 
2456.00, 
2457.00, 
2458.00, 
2459.00, 
2460.00, 
2461.00, 
2462.00, 
2463.00, 
2464.00, 
2465.00, 
2466.00, 
2467.00, 
2468.00, 
2469.00, 
2470.00, 
2471.00, 
2472.00, 
2473.00, 
2474.00, 
2475.00, 
2476.00, 
2477.00, 
2478.00, 
2479.00, 
2480.00, 
2481.00, 
2482.00, 
2483.00, 
2484.00, 
2485.00, 
2486.00, 
2487.00, 
2488.00, 
2489.00, 
2490.00, 
2491.00, 
2492.00, 
2493.00, 
2494.00, 
2495.00, 
2496.00, 
2497.00, 
2498.00, 
2499.00, 
2500.00, 
2501.00, 
2502.00, 
2503.00, 
2504.00, 
2505.00, 
2506.00, 
2507.00, 
2508.00, 
2509.00, 
2510.00, 
2511.00, 
2512.00, 
2513.00, 
2514.00, 
2515.00, 
2516.00, 
2517.00, 
2518.00, 
2519.00, 
2520.00, 
2521.00, 
2522.00, 
2523.00, 
2524.00, 
2525.00, 
2526.00, 
2527.00, 
2528.00, 
2529.00, 
2530.00, 
2531.00, 
2532.00, 
2533.00, 
2534.00, 
2535.00, 
2536.00, 
2537.00, 
2538.00, 
2539.00, 
2540.00, 
2541.00, 
2542.00, 
2543.00, 
2544.00, 
2545.00, 
2546.00, 
2547.00, 
2548.00, 
2549.00, 
2550.00, 
2551.00, 
2552.00, 
2553.00, 
2554.00, 
2555.00, 
2556.00, 
2557.00, 
2558.00, 
2559.00, 
2560.00, 
2561.00, 
2562.00, 
2563.00, 
2564.00, 
2565.00, 
2566.00, 
2567.00, 
2568.00, 
2569.00, 
2570.00, 
2571.00, 
2572.00, 
2573.00, 
2574.00, 
2575.00, 
2576.00, 
2577.00, 
2578.00, 
2579.00, 
2580.00, 
2581.00, 
2582.00, 
2583.00, 
2584.00, 
2585.00, 
2586.00, 
2587.00, 
2588.00, 
2589.00, 
2590.00, 
2591.00, 
2592.00, 
2593.00, 
2594.00, 
2595.00, 
2596.00, 
2597.00, 
2598.00, 
2599.00, 
2600.00, 
