"2bP2 - RawData"
"Wavelength nm.","T%"
200.00,-0.000
201.00,-0.000
202.00,0.003
203.00,0.001
204.00,0.001
205.00,0.003
206.00,0.000
207.00,0.001
208.00,0.003
209.00,0.001
210.00,-0.001
211.00,0.001
212.00,0.001
213.00,0.001
214.00,0.002
215.00,0.001
216.00,0.002
217.00,0.002
218.00,0.003
219.00,0.003
220.00,-0.000
221.00,-0.000
222.00,0.001
223.00,0.002
224.00,-0.001
225.00,0.000
226.00,0.001
227.00,-0.000
228.00,0.001
229.00,-0.000
230.00,0.001
231.00,-0.000
232.00,0.001
233.00,-0.000
234.00,-0.000
235.00,0.001
236.00,0.000
237.00,-0.002
238.00,0.001
239.00,0.000
240.00,0.001
241.00,-0.002
242.00,0.002
243.00,-0.001
244.00,-0.001
245.00,0.003
246.00,0.000
247.00,0.000
248.00,0.000
249.00,0.000
250.00,0.000
251.00,-0.000
252.00,0.000
253.00,0.003
254.00,0.000
255.00,-0.000
256.00,-0.000
257.00,0.001
258.00,0.001
259.00,-0.002
260.00,0.001
261.00,0.001
262.00,-0.001
263.00,-0.001
264.00,0.000
265.00,-0.001
266.00,0.001
267.00,0.001
268.00,0.001
269.00,0.001
270.00,0.001
271.00,0.000
272.00,0.000
273.00,0.000
274.00,0.001
275.00,0.001
276.00,0.002
277.00,0.000
278.00,0.002
279.00,-0.000
280.00,-0.001
281.00,0.001
282.00,-0.001
283.00,0.002
284.00,0.001
285.00,0.001
286.00,0.000
287.00,0.000
288.00,0.001
289.00,0.002
290.00,-0.000
291.00,0.002
292.00,0.002
293.00,0.001
294.00,0.000
295.00,0.002
296.00,0.001
297.00,0.001
298.00,0.001
299.00,0.002
300.00,0.003
301.00,0.004
302.00,0.007
303.00,0.011
304.00,0.013
305.00,0.024
306.00,0.039
307.00,0.053
308.00,0.083
309.00,0.127
310.00,0.180
311.00,0.238
312.00,0.326
313.00,0.440
314.00,0.567
315.00,0.725
316.00,0.927
317.00,1.166
318.00,1.435
319.00,1.747
320.00,2.105
321.00,2.506
322.00,2.969
323.00,3.474
324.00,4.006
325.00,4.554
326.00,5.102
327.00,5.737
328.00,6.405
329.00,7.057
330.00,7.754
331.00,8.455
332.00,9.160
333.00,9.867
334.00,10.590
335.00,11.313
336.00,11.997
337.00,12.737
338.00,13.455
339.00,14.088
340.00,14.736
341.00,15.415
342.00,16.013
343.00,16.583
344.00,17.127
345.00,17.698
346.00,18.188
347.00,18.627
348.00,19.094
349.00,19.489
350.00,19.922
351.00,20.286
352.00,20.596
353.00,20.907
354.00,21.233
355.00,21.533
356.00,21.763
357.00,21.983
358.00,22.245
359.00,22.474
360.00,22.734
361.00,22.815
362.00,23.089
363.00,23.215
364.00,23.301
365.00,23.407
366.00,23.535
367.00,23.601
368.00,23.603
369.00,23.705
370.00,23.779
371.00,23.785
372.00,23.769
373.00,23.760
374.00,23.800
375.00,23.801
376.00,23.740
377.00,23.723
378.00,23.646
379.00,23.573
380.00,23.576
381.00,23.566
382.00,23.516
383.00,23.537
384.00,23.555
385.00,23.607
386.00,23.632
387.00,23.703
388.00,23.755
389.00,23.735
390.00,23.747
391.00,23.785
392.00,23.823
393.00,23.799
394.00,23.857
395.00,23.869
396.00,23.847
397.00,23.859
398.00,23.850
399.00,23.863
400.00,23.857
401.00,23.854
402.00,23.856
403.00,23.835
404.00,23.848
405.00,23.837
406.00,23.810
407.00,23.786
408.00,23.799
409.00,23.731
410.00,23.695
411.00,23.671
412.00,23.608
413.00,23.647
414.00,23.635
415.00,23.674
416.00,23.712
417.00,23.687
418.00,23.728
419.00,23.785
420.00,23.846
421.00,23.872
422.00,23.844
423.00,23.918
424.00,23.992
425.00,23.954
426.00,23.980
427.00,24.081
428.00,24.075
429.00,24.154
430.00,24.224
431.00,24.263
432.00,24.309
433.00,24.373
434.00,24.426
435.00,24.482
436.00,24.547
437.00,24.615
438.00,24.676
439.00,24.754
440.00,24.833
441.00,24.889
442.00,24.974
443.00,25.059
444.00,25.187
445.00,25.255
446.00,25.333
447.00,25.444
448.00,25.525
449.00,25.648
450.00,25.741
451.00,25.820
452.00,25.931
453.00,26.023
454.00,26.117
455.00,26.232
456.00,26.393
457.00,26.496
458.00,26.564
459.00,26.745
460.00,26.865
461.00,26.990
462.00,27.065
463.00,27.241
464.00,27.362
465.00,27.502
466.00,27.605
467.00,27.736
468.00,27.859
469.00,27.947
470.00,28.052
471.00,28.171
472.00,28.277
473.00,28.357
474.00,28.476
475.00,28.602
476.00,28.702
477.00,28.805
478.00,28.940
479.00,29.098
480.00,29.239
481.00,29.356
482.00,29.502
483.00,29.636
484.00,29.803
485.00,29.952
486.00,30.126
487.00,30.225
488.00,30.380
489.00,30.515
490.00,30.690
491.00,30.845
492.00,31.068
493.00,31.230
494.00,31.220
495.00,31.356
496.00,31.434
497.00,31.554
498.00,31.647
499.00,31.881
500.00,32.032
501.00,32.122
502.00,32.255
503.00,32.398
504.00,32.429
505.00,32.596
506.00,32.741
507.00,32.781
508.00,32.934
509.00,33.097
510.00,33.233
511.00,33.259
512.00,33.449
513.00,33.578
514.00,33.701
515.00,33.846
516.00,33.947
517.00,34.043
518.00,34.167
519.00,34.236
520.00,34.259
521.00,34.333
522.00,34.438
523.00,34.478
524.00,34.611
525.00,34.700
526.00,34.781
527.00,34.903
528.00,34.944
529.00,35.101
530.00,35.249
531.00,35.355
532.00,35.473
533.00,35.542
534.00,35.617
535.00,35.703
536.00,35.791
537.00,35.846
538.00,35.893
539.00,35.975
540.00,36.109
541.00,36.099
542.00,36.157
543.00,36.184
544.00,36.250
545.00,36.377
546.00,36.390
547.00,36.536
548.00,36.615
549.00,36.647
550.00,36.720
551.00,36.840
552.00,36.860
553.00,36.943
554.00,36.978
555.00,37.068
556.00,37.117
557.00,37.152
558.00,37.224
559.00,37.286
560.00,37.354
561.00,37.376
562.00,37.432
563.00,37.477
564.00,37.569
565.00,37.556
566.00,37.579
567.00,37.624
568.00,37.676
569.00,37.731
570.00,37.802
571.00,37.807
572.00,37.855
573.00,37.846
574.00,37.865
575.00,37.924
576.00,37.899
577.00,37.996
578.00,38.088
579.00,38.088
580.00,38.135
581.00,38.309
582.00,38.394
583.00,38.391
584.00,38.434
585.00,38.608
586.00,38.640
587.00,38.563
588.00,38.592
589.00,38.594
590.00,38.743
591.00,38.813
592.00,38.745
593.00,38.813
594.00,38.937
595.00,39.002
596.00,39.117
597.00,39.159
598.00,39.281
599.00,39.281
600.00,39.241
601.00,39.268
602.00,39.248
603.00,39.283
604.00,39.330
605.00,39.418
606.00,39.402
607.00,39.402
608.00,39.601
609.00,39.641
610.00,39.548
611.00,39.624
612.00,39.696
613.00,39.717
614.00,39.785
615.00,39.900
616.00,39.938
617.00,39.982
618.00,39.950
619.00,39.985
620.00,40.090
621.00,40.106
622.00,40.195
623.00,40.222
624.00,40.277
625.00,40.330
626.00,40.402
627.00,40.438
628.00,40.528
629.00,40.549
630.00,40.536
631.00,40.549
632.00,40.717
633.00,40.903
634.00,40.981
635.00,40.976
636.00,41.045
637.00,41.087
638.00,41.203
639.00,41.253
640.00,41.322
641.00,41.382
642.00,41.379
643.00,41.528
644.00,41.634
645.00,41.561
646.00,41.660
647.00,41.846
648.00,41.836
649.00,41.814
650.00,41.939
651.00,42.083
652.00,42.163
653.00,42.105
654.00,42.218
655.00,42.377
656.00,42.701
657.00,42.492
658.00,42.271
659.00,42.681
660.00,42.686
661.00,42.839
662.00,42.968
663.00,43.041
664.00,43.207
665.00,43.460
666.00,43.375
667.00,43.427
668.00,43.493
669.00,43.668
670.00,43.925
671.00,43.826
672.00,43.912
673.00,44.044
674.00,44.063
675.00,44.103
676.00,44.287
677.00,44.451
678.00,44.298
679.00,44.540
680.00,44.607
681.00,44.809
682.00,44.754
683.00,44.729
684.00,44.922
685.00,45.051
686.00,45.047
687.00,45.147
688.00,45.172
689.00,45.210
690.00,45.454
691.00,45.749
692.00,45.415
693.00,45.562
694.00,45.752
695.00,45.848
696.00,45.933
697.00,45.925
698.00,45.901
699.00,46.277
700.00,46.367
701.00,46.267
702.00,46.445
703.00,46.589
704.00,46.527
705.00,46.581
706.00,46.648
707.00,46.710
708.00,46.647
709.00,46.958
710.00,47.380
711.00,46.859
712.00,46.890
713.00,47.114
714.00,47.221
715.00,47.282
716.00,47.348
717.00,47.511
718.00,47.661
719.00,47.522
720.00,47.654
721.00,52.156
722.00,52.175
723.00,52.135
724.00,52.123
725.00,52.199
726.00,52.241
727.00,52.277
728.00,52.224
729.00,52.306
730.00,52.262
731.00,52.310
732.00,52.336
733.00,52.381
734.00,52.428
735.00,52.538
736.00,52.545
737.00,52.508
738.00,52.601
739.00,52.640
740.00,52.579
741.00,52.637
742.00,52.681
743.00,52.720
744.00,52.694
745.00,52.682
746.00,52.682
747.00,52.737
748.00,52.659
749.00,52.800
750.00,52.740
751.00,52.761
752.00,52.706
753.00,52.780
754.00,52.762
755.00,52.800
756.00,52.789
757.00,52.731
758.00,52.776
759.00,52.751
760.00,52.828
761.00,52.692
762.00,52.820
763.00,52.875
764.00,52.806
765.00,52.803
766.00,52.849
767.00,52.967
768.00,52.826
769.00,52.921
770.00,52.964
771.00,52.877
772.00,52.934
773.00,52.944
774.00,52.950
775.00,53.066
776.00,52.969
777.00,52.988
778.00,52.920
779.00,52.998
780.00,52.997
781.00,52.936
782.00,52.989
783.00,53.010
784.00,52.936
785.00,52.920
786.00,52.969
787.00,52.980
788.00,52.926
789.00,52.908
790.00,52.809
791.00,52.948
792.00,52.927
793.00,52.896
794.00,52.853
795.00,52.874
796.00,52.869
797.00,52.876
798.00,52.861
799.00,52.809
800.00,52.740
801.00,52.822
802.00,52.769
803.00,52.781
804.00,52.748
805.00,52.803
806.00,52.738
807.00,52.682
808.00,52.705
809.00,52.699
810.00,52.674
811.00,52.692
812.00,52.620
813.00,52.722
814.00,52.619
815.00,52.590
816.00,52.645
817.00,52.569
818.00,52.526
819.00,52.526
820.00,52.550
821.00,52.590
822.00,52.612
823.00,52.422
824.00,52.556
825.00,52.437
826.00,52.473
827.00,52.546
828.00,52.513
829.00,52.429
830.00,52.412
831.00,54.881
832.00,54.902
833.00,54.835
834.00,54.846
835.00,54.790
836.00,54.801
837.00,54.782
838.00,54.724
839.00,54.687
840.00,54.656
841.00,54.703
842.00,54.640
843.00,54.663
844.00,54.624
845.00,54.605
846.00,54.610
847.00,54.587
848.00,54.671
849.00,54.547
850.00,54.498
851.00,54.453
852.00,54.480
853.00,54.357
854.00,54.357
855.00,54.322
856.00,54.346
857.00,54.320
858.00,54.304
859.00,54.272
860.00,54.287
861.00,54.273
862.00,54.169
863.00,54.284
864.00,54.175
865.00,54.231
866.00,54.161
867.00,54.155
868.00,54.147
869.00,54.133
870.00,54.130
871.00,54.135
872.00,54.124
873.00,54.103
874.00,54.101
875.00,54.125
876.00,54.145
877.00,54.271
878.00,54.044
879.00,54.049
880.00,54.030
881.00,53.980
882.00,54.032
883.00,53.961
884.00,53.974
885.00,53.950
886.00,53.955
887.00,53.909
888.00,53.907
889.00,53.880
890.00,53.897
891.00,53.863
892.00,53.847
893.00,53.822
894.00,53.816
895.00,53.772
896.00,53.751
897.00,53.709
898.00,53.685
899.00,53.680
900.00,53.669
901.00,53.670
902.00,53.654
903.00,53.610
904.00,53.657
905.00,53.602
906.00,53.565
907.00,53.688
908.00,53.523
909.00,53.527
910.00,53.498
911.00,53.501
912.00,53.506
913.00,53.424
914.00,53.428
915.00,53.419
916.00,53.339
917.00,53.356
918.00,53.368
919.00,53.320
920.00,53.297
921.00,53.310
922.00,53.302
923.00,53.262
924.00,53.217
925.00,53.215
926.00,53.207
927.00,53.204
928.00,53.171
929.00,53.172
930.00,53.136
931.00,53.142
932.00,53.095
933.00,53.113
934.00,53.072
935.00,53.053
936.00,53.007
937.00,53.008
938.00,52.995
939.00,53.007
940.00,52.974
941.00,52.969
942.00,52.935
943.00,52.915
944.00,52.847
945.00,52.864
946.00,52.882
947.00,52.874
948.00,52.796
949.00,52.874
950.00,52.761
951.00,52.750
952.00,52.731
953.00,52.699
954.00,52.694
955.00,52.646
956.00,52.638
957.00,52.603
958.00,52.618
959.00,52.563
960.00,52.584
961.00,52.554
962.00,52.560
963.00,52.482
964.00,52.511
965.00,52.490
966.00,52.481
967.00,52.482
968.00,52.443
969.00,52.473
970.00,52.448
971.00,52.459
972.00,52.415
973.00,52.478
974.00,52.503
975.00,52.444
976.00,52.466
977.00,52.452
978.00,52.503
979.00,52.450
980.00,52.454
981.00,52.452
982.00,52.434
983.00,52.434
984.00,52.423
985.00,52.434
986.00,52.386
987.00,52.433
988.00,52.399
989.00,52.395
990.00,52.389
991.00,52.366
992.00,52.387
993.00,52.330
994.00,52.311
995.00,52.305
996.00,52.305
997.00,52.282
998.00,52.266
999.00,52.294
1000.00,52.252
1001.00,52.250
1002.00,52.226
1003.00,52.238
1004.00,52.213
1005.00,52.170
1006.00,52.207
1007.00,52.175
1008.00,52.140
1009.00,52.119
1010.00,52.156
1011.00,52.114
1012.00,52.087
1013.00,52.094
1014.00,52.058
1015.00,52.083
1016.00,52.044
1017.00,52.048
1018.00,52.031
1019.00,51.986
1020.00,51.998
1021.00,51.966
1022.00,51.974
1023.00,51.927
1024.00,51.938
1025.00,51.950
1026.00,51.889
1027.00,51.865
1028.00,51.859
1029.00,51.848
1030.00,51.823
1031.00,51.835
1032.00,51.785
1033.00,51.794
1034.00,51.774
1035.00,51.740
1036.00,51.716
1037.00,51.731
1038.00,51.714
1039.00,51.671
1040.00,51.662
1041.00,51.609
1042.00,51.618
1043.00,51.592
1044.00,51.624
1045.00,51.607
1046.00,51.584
1047.00,51.618
1048.00,51.632
1049.00,51.630
1050.00,51.641
1051.00,51.674
1052.00,51.663
1053.00,51.676
1054.00,51.661
1055.00,51.683
1056.00,51.690
1057.00,51.704
1058.00,51.680
1059.00,51.671
1060.00,51.679
1061.00,51.665
1062.00,51.655
1063.00,51.660
1064.00,51.665
1065.00,51.636
1066.00,51.628
1067.00,51.623
1068.00,51.644
1069.00,51.596
1070.00,51.593
1071.00,51.601
1072.00,51.595
1073.00,51.573
1074.00,51.562
1075.00,51.551
1076.00,51.555
1077.00,51.541
1078.00,51.517
1079.00,51.519
1080.00,51.522
1081.00,51.497
1082.00,51.481
1083.00,51.472
1084.00,51.478
1085.00,51.470
1086.00,51.469
1087.00,51.486
1088.00,51.449
1089.00,51.443
1090.00,51.435
1091.00,51.417
1092.00,51.397
1093.00,51.385
1094.00,51.380
1095.00,51.376
1096.00,51.357
1097.00,51.360
1098.00,51.349
1099.00,51.343
1100.00,51.324
1101.00,51.307
1102.00,51.308
1103.00,51.308
1104.00,51.298
1105.00,51.280
1106.00,51.272
1107.00,51.268
1108.00,51.252
1109.00,51.249
1110.00,51.236
1111.00,51.223
1112.00,51.200
1113.00,51.194
1114.00,51.179
1115.00,51.183
1116.00,51.193
1117.00,51.177
1118.00,51.168
1119.00,51.163
1120.00,51.164
1121.00,51.167
1122.00,51.135
1123.00,51.142
1124.00,51.132
1125.00,51.136
1126.00,51.134
1127.00,51.144
1128.00,51.121
1129.00,51.109
1130.00,51.099
1131.00,51.089
1132.00,51.108
1133.00,51.024
1134.00,51.067
1135.00,51.043
1136.00,51.048
1137.00,51.050
1138.00,51.046
1139.00,51.054
1140.00,51.052
1141.00,51.059
1142.00,51.037
1143.00,51.054
1144.00,51.014
1145.00,51.012
1146.00,51.018
1147.00,50.999
1148.00,50.996
1149.00,51.000
1150.00,50.996
1151.00,50.996
1152.00,50.970
1153.00,50.980
1154.00,50.979
1155.00,50.975
1156.00,50.958
1157.00,50.968
1158.00,50.957
1159.00,50.948
1160.00,50.957
1161.00,50.962
1162.00,50.960
1163.00,50.977
1164.00,50.970
1165.00,50.956
1166.00,50.959
1167.00,50.956
1168.00,50.966
1169.00,50.946
1170.00,50.939
1171.00,50.923
1172.00,50.924
1173.00,50.911
1174.00,50.922
1175.00,50.916
1176.00,50.909
1177.00,50.902
1178.00,50.908
1179.00,50.922
1180.00,50.891
1181.00,50.909
1182.00,50.897
1183.00,50.887
1184.00,50.882
1185.00,50.911
1186.00,50.890
1187.00,50.889
1188.00,50.899
1189.00,50.895
1190.00,50.893
1191.00,50.884
1192.00,50.896
1193.00,50.891
1194.00,50.897
1195.00,50.865
1196.00,50.905
1197.00,50.897
1198.00,50.894
1199.00,50.892
1200.00,50.895
1201.00,50.911
1202.00,50.889
1203.00,50.878
1204.00,50.871
1205.00,50.890
1206.00,50.890
1207.00,50.897
1208.00,50.883
1209.00,50.906
1210.00,50.883
1211.00,50.877
1212.00,50.906
1213.00,50.854
1214.00,50.879
1215.00,50.858
1216.00,50.871
1217.00,50.867
1218.00,50.853
1219.00,50.868
1220.00,50.847
1221.00,50.863
1222.00,50.846
1223.00,50.883
1224.00,50.879
1225.00,50.848
1226.00,50.867
1227.00,50.860
1228.00,50.870
1229.00,50.879
1230.00,50.912
1231.00,50.897
1232.00,50.913
1233.00,50.919
1234.00,50.912
1235.00,50.922
1236.00,50.903
1237.00,50.914
1238.00,50.913
1239.00,50.911
1240.00,50.899
1241.00,50.902
1242.00,50.909
1243.00,50.924
1244.00,50.898
1245.00,50.935
1246.00,50.939
1247.00,50.912
1248.00,50.920
1249.00,50.934
1250.00,50.938
1251.00,50.930
1252.00,50.931
1253.00,50.924
1254.00,50.964
1255.00,50.947
1256.00,50.919
1257.00,50.910
1258.00,50.958
1259.00,50.961
1260.00,50.966
1261.00,50.962
1262.00,50.960
1263.00,50.953
1264.00,50.961
1265.00,50.958
1266.00,50.983
1267.00,50.972
1268.00,51.021
1269.00,51.015
1270.00,51.004
1271.00,50.995
1272.00,50.994
1273.00,51.018
1274.00,51.008
1275.00,51.026
1276.00,51.014
1277.00,51.027
1278.00,51.032
1279.00,51.025
1280.00,51.022
1281.00,51.036
1282.00,51.045
1283.00,51.042
1284.00,51.059
1285.00,51.035
1286.00,51.058
1287.00,51.049
1288.00,51.048
1289.00,51.051
1290.00,51.076
1291.00,51.067
1292.00,51.068
1293.00,51.063
1294.00,51.083
1295.00,51.099
1296.00,51.091
1297.00,51.108
1298.00,51.131
1299.00,51.106
1300.00,51.113
1301.00,51.110
1302.00,51.136
1303.00,51.146
1304.00,51.124
1305.00,51.145
1306.00,51.160
1307.00,51.150
1308.00,51.156
1309.00,51.155
1310.00,51.156
1311.00,51.147
1312.00,51.164
1313.00,51.177
1314.00,51.189
1315.00,51.196
1316.00,51.188
1317.00,51.213
1318.00,51.190
1319.00,51.195
1320.00,51.212
1321.00,51.367
1322.00,51.369
1323.00,51.347
1324.00,51.339
1325.00,51.342
1326.00,51.350
1327.00,51.338
1328.00,51.338
1329.00,51.338
1330.00,51.357
1331.00,51.356
1332.00,51.319
1333.00,51.334
1334.00,51.345
1335.00,51.357
1336.00,51.393
1337.00,51.419
1338.00,51.484
1339.00,51.537
1340.00,51.584
1341.00,51.670
1342.00,51.720
1343.00,51.751
1344.00,51.822
1345.00,51.871
1346.00,51.911
1347.00,51.939
1348.00,51.952
1349.00,51.961
1350.00,51.992
1351.00,52.000
1352.00,52.003
1353.00,52.078
1354.00,52.008
1355.00,51.975
1356.00,52.087
1357.00,52.080
1358.00,52.041
1359.00,52.202
1360.00,52.495
1361.00,52.084
1362.00,52.034
1363.00,52.092
1364.00,52.167
1365.00,52.070
1366.00,52.058
1367.00,52.029
1368.00,52.036
1369.00,52.072
1370.00,52.042
1371.00,52.018
1372.00,52.055
1373.00,52.048
1374.00,52.089
1375.00,52.037
1376.00,52.018
1377.00,52.031
1378.00,52.101
1379.00,52.059
1380.00,52.027
1381.00,52.088
1382.00,51.909
1383.00,52.074
1384.00,51.985
1385.00,51.929
1386.00,52.071
1387.00,51.959
1388.00,51.956
1389.00,51.909
1390.00,51.984
1391.00,51.997
1392.00,52.006
1393.00,51.994
1394.00,52.032
1395.00,51.998
1396.00,51.962
1397.00,51.951
1398.00,52.076
1399.00,52.015
1400.00,51.930
1401.00,52.004
1402.00,52.134
1403.00,52.011
1404.00,52.044
1405.00,52.035
1406.00,52.076
1407.00,52.086
1408.00,52.129
1409.00,52.045
1410.00,52.079
1411.00,52.145
1412.00,52.091
1413.00,51.895
1414.00,51.997
1415.00,52.109
1416.00,52.143
1417.00,52.145
1418.00,52.105
1419.00,52.145
1420.00,52.157
1421.00,52.176
1422.00,52.196
1423.00,52.201
1424.00,52.206
1425.00,52.218
1426.00,52.226
1427.00,52.261
1428.00,52.244
1429.00,52.242
1430.00,52.279
1431.00,52.265
1432.00,52.320
1433.00,52.330
1434.00,52.319
1435.00,52.377
1436.00,52.343
1437.00,52.348
1438.00,52.385
1439.00,52.403
1440.00,52.417
1441.00,52.419
1442.00,52.421
1443.00,52.466
1444.00,52.509
1445.00,52.460
1446.00,52.485
1447.00,52.507
1448.00,52.566
1449.00,52.563
1450.00,52.552
1451.00,52.567
1452.00,52.584
1453.00,52.584
1454.00,52.617
1455.00,52.628
1456.00,52.648
1457.00,52.644
1458.00,52.660
1459.00,52.685
1460.00,52.691
1461.00,52.710
1462.00,52.746
1463.00,52.762
1464.00,52.767
1465.00,52.790
1466.00,52.792
1467.00,52.782
1468.00,52.859
1469.00,52.824
1470.00,52.848
1471.00,52.857
1472.00,52.864
1473.00,52.882
1474.00,52.906
1475.00,52.883
1476.00,52.924
1477.00,52.912
1478.00,52.904
1479.00,52.955
1480.00,52.931
1481.00,52.945
1482.00,52.979
1483.00,52.976
1484.00,53.008
1485.00,52.994
1486.00,52.991
1487.00,53.040
1488.00,53.039
1489.00,53.041
1490.00,53.041
1491.00,53.056
1492.00,53.079
1493.00,53.066
1494.00,53.103
1495.00,53.107
1496.00,53.131
1497.00,53.099
1498.00,53.133
1499.00,53.149
1500.00,53.167
1501.00, 
1502.00, 
1503.00, 
1504.00, 
1505.00, 
1506.00, 
1507.00, 
1508.00, 
1509.00, 
1510.00, 
1511.00, 
1512.00, 
1513.00, 
1514.00, 
1515.00, 
1516.00, 
1517.00, 
1518.00, 
1519.00, 
1520.00, 
1521.00, 
1522.00, 
1523.00, 
1524.00, 
1525.00, 
1526.00, 
1527.00, 
1528.00, 
1529.00, 
1530.00, 
1531.00, 
1532.00, 
1533.00, 
1534.00, 
1535.00, 
1536.00, 
1537.00, 
1538.00, 
1539.00, 
1540.00, 
1541.00, 
1542.00, 
1543.00, 
1544.00, 
1545.00, 
1546.00, 
1547.00, 
1548.00, 
1549.00, 
1550.00, 
1551.00, 
1552.00, 
1553.00, 
1554.00, 
1555.00, 
1556.00, 
1557.00, 
1558.00, 
1559.00, 
1560.00, 
1561.00, 
1562.00, 
1563.00, 
1564.00, 
1565.00, 
1566.00, 
1567.00, 
1568.00, 
1569.00, 
1570.00, 
1571.00, 
1572.00, 
1573.00, 
1574.00, 
1575.00, 
1576.00, 
1577.00, 
1578.00, 
1579.00, 
1580.00, 
1581.00, 
1582.00, 
1583.00, 
1584.00, 
1585.00, 
1586.00, 
1587.00, 
1588.00, 
1589.00, 
1590.00, 
1591.00, 
1592.00, 
1593.00, 
1594.00, 
1595.00, 
1596.00, 
1597.00, 
1598.00, 
1599.00, 
1600.00, 
1601.00, 
1602.00, 
1603.00, 
1604.00, 
1605.00, 
1606.00, 
1607.00, 
1608.00, 
1609.00, 
1610.00, 
1611.00, 
1612.00, 
1613.00, 
1614.00, 
1615.00, 
1616.00, 
1617.00, 
1618.00, 
1619.00, 
1620.00, 
1621.00, 
1622.00, 
1623.00, 
1624.00, 
1625.00, 
1626.00, 
1627.00, 
1628.00, 
1629.00, 
1630.00, 
1631.00, 
1632.00, 
1633.00, 
1634.00, 
1635.00, 
1636.00, 
1637.00, 
1638.00, 
1639.00, 
1640.00, 
1641.00, 
1642.00, 
1643.00, 
1644.00, 
1645.00, 
1646.00, 
1647.00, 
1648.00, 
1649.00, 
1650.00, 
1651.00, 
1652.00, 
1653.00, 
1654.00, 
1655.00, 
1656.00, 
1657.00, 
1658.00, 
1659.00, 
1660.00, 
1661.00, 
1662.00, 
1663.00, 
1664.00, 
1665.00, 
1666.00, 
1667.00, 
1668.00, 
1669.00, 
1670.00, 
1671.00, 
1672.00, 
1673.00, 
1674.00, 
1675.00, 
1676.00, 
1677.00, 
1678.00, 
1679.00, 
1680.00, 
1681.00, 
1682.00, 
1683.00, 
1684.00, 
1685.00, 
1686.00, 
1687.00, 
1688.00, 
1689.00, 
1690.00, 
1691.00, 
1692.00, 
1693.00, 
1694.00, 
1695.00, 
1696.00, 
1697.00, 
1698.00, 
1699.00, 
1700.00, 
1701.00, 
1702.00, 
1703.00, 
1704.00, 
1705.00, 
1706.00, 
1707.00, 
1708.00, 
1709.00, 
1710.00, 
1711.00, 
1712.00, 
1713.00, 
1714.00, 
1715.00, 
1716.00, 
1717.00, 
1718.00, 
1719.00, 
1720.00, 
1721.00, 
1722.00, 
1723.00, 
1724.00, 
1725.00, 
1726.00, 
1727.00, 
1728.00, 
1729.00, 
1730.00, 
1731.00, 
1732.00, 
1733.00, 
1734.00, 
1735.00, 
1736.00, 
1737.00, 
1738.00, 
1739.00, 
1740.00, 
1741.00, 
1742.00, 
1743.00, 
1744.00, 
1745.00, 
1746.00, 
1747.00, 
1748.00, 
1749.00, 
1750.00, 
1751.00, 
1752.00, 
1753.00, 
1754.00, 
1755.00, 
1756.00, 
1757.00, 
1758.00, 
1759.00, 
1760.00, 
1761.00, 
1762.00, 
1763.00, 
1764.00, 
1765.00, 
1766.00, 
1767.00, 
1768.00, 
1769.00, 
1770.00, 
1771.00, 
1772.00, 
1773.00, 
1774.00, 
1775.00, 
1776.00, 
1777.00, 
1778.00, 
1779.00, 
1780.00, 
1781.00, 
1782.00, 
1783.00, 
1784.00, 
1785.00, 
1786.00, 
1787.00, 
1788.00, 
1789.00, 
1790.00, 
1791.00, 
1792.00, 
1793.00, 
1794.00, 
1795.00, 
1796.00, 
1797.00, 
1798.00, 
1799.00, 
1800.00, 
1801.00, 
1802.00, 
1803.00, 
1804.00, 
1805.00, 
1806.00, 
1807.00, 
1808.00, 
1809.00, 
1810.00, 
1811.00, 
1812.00, 
1813.00, 
1814.00, 
1815.00, 
1816.00, 
1817.00, 
1818.00, 
1819.00, 
1820.00, 
1821.00, 
1822.00, 
1823.00, 
1824.00, 
1825.00, 
1826.00, 
1827.00, 
1828.00, 
1829.00, 
1830.00, 
1831.00, 
1832.00, 
1833.00, 
1834.00, 
1835.00, 
1836.00, 
1837.00, 
1838.00, 
1839.00, 
1840.00, 
1841.00, 
1842.00, 
1843.00, 
1844.00, 
1845.00, 
1846.00, 
1847.00, 
1848.00, 
1849.00, 
1850.00, 
1851.00, 
1852.00, 
1853.00, 
1854.00, 
1855.00, 
1856.00, 
1857.00, 
1858.00, 
1859.00, 
1860.00, 
1861.00, 
1862.00, 
1863.00, 
1864.00, 
1865.00, 
1866.00, 
1867.00, 
1868.00, 
1869.00, 
1870.00, 
1871.00, 
1872.00, 
1873.00, 
1874.00, 
1875.00, 
1876.00, 
1877.00, 
1878.00, 
1879.00, 
1880.00, 
1881.00, 
1882.00, 
1883.00, 
1884.00, 
1885.00, 
1886.00, 
1887.00, 
1888.00, 
1889.00, 
1890.00, 
1891.00, 
1892.00, 
1893.00, 
1894.00, 
1895.00, 
1896.00, 
1897.00, 
1898.00, 
1899.00, 
1900.00, 
1901.00, 
1902.00, 
1903.00, 
1904.00, 
1905.00, 
1906.00, 
1907.00, 
1908.00, 
1909.00, 
1910.00, 
1911.00, 
1912.00, 
1913.00, 
1914.00, 
1915.00, 
1916.00, 
1917.00, 
1918.00, 
1919.00, 
1920.00, 
1921.00, 
1922.00, 
1923.00, 
1924.00, 
1925.00, 
1926.00, 
1927.00, 
1928.00, 
1929.00, 
1930.00, 
1931.00, 
1932.00, 
1933.00, 
1934.00, 
1935.00, 
1936.00, 
1937.00, 
1938.00, 
1939.00, 
1940.00, 
1941.00, 
1942.00, 
1943.00, 
1944.00, 
1945.00, 
1946.00, 
1947.00, 
1948.00, 
1949.00, 
1950.00, 
1951.00, 
1952.00, 
1953.00, 
1954.00, 
1955.00, 
1956.00, 
1957.00, 
1958.00, 
1959.00, 
1960.00, 
1961.00, 
1962.00, 
1963.00, 
1964.00, 
1965.00, 
1966.00, 
1967.00, 
1968.00, 
1969.00, 
1970.00, 
1971.00, 
1972.00, 
1973.00, 
1974.00, 
1975.00, 
1976.00, 
1977.00, 
1978.00, 
1979.00, 
1980.00, 
1981.00, 
1982.00, 
1983.00, 
1984.00, 
1985.00, 
1986.00, 
1987.00, 
1988.00, 
1989.00, 
1990.00, 
1991.00, 
1992.00, 
1993.00, 
1994.00, 
1995.00, 
1996.00, 
1997.00, 
1998.00, 
1999.00, 
2000.00, 
2001.00, 
2002.00, 
2003.00, 
2004.00, 
2005.00, 
2006.00, 
2007.00, 
2008.00, 
2009.00, 
2010.00, 
2011.00, 
2012.00, 
2013.00, 
2014.00, 
2015.00, 
2016.00, 
2017.00, 
2018.00, 
2019.00, 
2020.00, 
2021.00, 
2022.00, 
2023.00, 
2024.00, 
2025.00, 
2026.00, 
2027.00, 
2028.00, 
2029.00, 
2030.00, 
2031.00, 
2032.00, 
2033.00, 
2034.00, 
2035.00, 
2036.00, 
2037.00, 
2038.00, 
2039.00, 
2040.00, 
2041.00, 
2042.00, 
2043.00, 
2044.00, 
2045.00, 
2046.00, 
2047.00, 
2048.00, 
2049.00, 
2050.00, 
2051.00, 
2052.00, 
2053.00, 
2054.00, 
2055.00, 
2056.00, 
2057.00, 
2058.00, 
2059.00, 
2060.00, 
2061.00, 
2062.00, 
2063.00, 
2064.00, 
2065.00, 
2066.00, 
2067.00, 
2068.00, 
2069.00, 
2070.00, 
2071.00, 
2072.00, 
2073.00, 
2074.00, 
2075.00, 
2076.00, 
2077.00, 
2078.00, 
2079.00, 
2080.00, 
2081.00, 
2082.00, 
2083.00, 
2084.00, 
2085.00, 
2086.00, 
2087.00, 
2088.00, 
2089.00, 
2090.00, 
2091.00, 
2092.00, 
2093.00, 
2094.00, 
2095.00, 
2096.00, 
2097.00, 
2098.00, 
2099.00, 
2100.00, 
2101.00, 
2102.00, 
2103.00, 
2104.00, 
2105.00, 
2106.00, 
2107.00, 
2108.00, 
2109.00, 
2110.00, 
2111.00, 
2112.00, 
2113.00, 
2114.00, 
2115.00, 
2116.00, 
2117.00, 
2118.00, 
2119.00, 
2120.00, 
2121.00, 
2122.00, 
2123.00, 
2124.00, 
2125.00, 
2126.00, 
2127.00, 
2128.00, 
2129.00, 
2130.00, 
2131.00, 
2132.00, 
2133.00, 
2134.00, 
2135.00, 
2136.00, 
2137.00, 
2138.00, 
2139.00, 
2140.00, 
2141.00, 
2142.00, 
2143.00, 
2144.00, 
2145.00, 
2146.00, 
2147.00, 
2148.00, 
2149.00, 
2150.00, 
2151.00, 
2152.00, 
2153.00, 
2154.00, 
2155.00, 
2156.00, 
2157.00, 
2158.00, 
2159.00, 
2160.00, 
2161.00, 
2162.00, 
2163.00, 
2164.00, 
2165.00, 
2166.00, 
2167.00, 
2168.00, 
2169.00, 
2170.00, 
2171.00, 
2172.00, 
2173.00, 
2174.00, 
2175.00, 
2176.00, 
2177.00, 
2178.00, 
2179.00, 
2180.00, 
2181.00, 
2182.00, 
2183.00, 
2184.00, 
2185.00, 
2186.00, 
2187.00, 
2188.00, 
2189.00, 
2190.00, 
2191.00, 
2192.00, 
2193.00, 
2194.00, 
2195.00, 
2196.00, 
2197.00, 
2198.00, 
2199.00, 
2200.00, 
2201.00, 
2202.00, 
2203.00, 
2204.00, 
2205.00, 
2206.00, 
2207.00, 
2208.00, 
2209.00, 
2210.00, 
2211.00, 
2212.00, 
2213.00, 
2214.00, 
2215.00, 
2216.00, 
2217.00, 
2218.00, 
2219.00, 
2220.00, 
2221.00, 
2222.00, 
2223.00, 
2224.00, 
2225.00, 
2226.00, 
2227.00, 
2228.00, 
2229.00, 
2230.00, 
2231.00, 
2232.00, 
2233.00, 
2234.00, 
2235.00, 
2236.00, 
2237.00, 
2238.00, 
2239.00, 
2240.00, 
2241.00, 
2242.00, 
2243.00, 
2244.00, 
2245.00, 
2246.00, 
2247.00, 
2248.00, 
2249.00, 
2250.00, 
2251.00, 
2252.00, 
2253.00, 
2254.00, 
2255.00, 
2256.00, 
2257.00, 
2258.00, 
2259.00, 
2260.00, 
2261.00, 
2262.00, 
2263.00, 
2264.00, 
2265.00, 
2266.00, 
2267.00, 
2268.00, 
2269.00, 
2270.00, 
2271.00, 
2272.00, 
2273.00, 
2274.00, 
2275.00, 
2276.00, 
2277.00, 
2278.00, 
2279.00, 
2280.00, 
2281.00, 
2282.00, 
2283.00, 
2284.00, 
2285.00, 
2286.00, 
2287.00, 
2288.00, 
2289.00, 
2290.00, 
2291.00, 
2292.00, 
2293.00, 
2294.00, 
2295.00, 
2296.00, 
2297.00, 
2298.00, 
2299.00, 
2300.00, 
2301.00, 
2302.00, 
2303.00, 
2304.00, 
2305.00, 
2306.00, 
2307.00, 
2308.00, 
2309.00, 
2310.00, 
2311.00, 
2312.00, 
2313.00, 
2314.00, 
2315.00, 
2316.00, 
2317.00, 
2318.00, 
2319.00, 
2320.00, 
2321.00, 
2322.00, 
2323.00, 
2324.00, 
2325.00, 
2326.00, 
2327.00, 
2328.00, 
2329.00, 
2330.00, 
2331.00, 
2332.00, 
2333.00, 
2334.00, 
2335.00, 
2336.00, 
2337.00, 
2338.00, 
2339.00, 
2340.00, 
2341.00, 
2342.00, 
2343.00, 
2344.00, 
2345.00, 
2346.00, 
2347.00, 
2348.00, 
2349.00, 
2350.00, 
2351.00, 
2352.00, 
2353.00, 
2354.00, 
2355.00, 
2356.00, 
2357.00, 
2358.00, 
2359.00, 
2360.00, 
2361.00, 
2362.00, 
2363.00, 
2364.00, 
2365.00, 
2366.00, 
2367.00, 
2368.00, 
2369.00, 
2370.00, 
2371.00, 
2372.00, 
2373.00, 
2374.00, 
2375.00, 
2376.00, 
2377.00, 
2378.00, 
2379.00, 
2380.00, 
2381.00, 
2382.00, 
2383.00, 
2384.00, 
2385.00, 
2386.00, 
2387.00, 
2388.00, 
2389.00, 
2390.00, 
2391.00, 
2392.00, 
2393.00, 
2394.00, 
2395.00, 
2396.00, 
2397.00, 
2398.00, 
2399.00, 
2400.00, 
2401.00, 
2402.00, 
2403.00, 
2404.00, 
2405.00, 
2406.00, 
2407.00, 
2408.00, 
2409.00, 
2410.00, 
2411.00, 
2412.00, 
2413.00, 
2414.00, 
2415.00, 
2416.00, 
2417.00, 
2418.00, 
2419.00, 
2420.00, 
2421.00, 
2422.00, 
2423.00, 
2424.00, 
2425.00, 
2426.00, 
2427.00, 
2428.00, 
2429.00, 
2430.00, 
2431.00, 
2432.00, 
2433.00, 
2434.00, 
2435.00, 
2436.00, 
2437.00, 
2438.00, 
2439.00, 
2440.00, 
2441.00, 
2442.00, 
2443.00, 
2444.00, 
2445.00, 
2446.00, 
2447.00, 
2448.00, 
2449.00, 
2450.00, 
2451.00, 
2452.00, 
2453.00, 
2454.00, 
2455.00, 
2456.00, 
2457.00, 
2458.00, 
2459.00, 
2460.00, 
2461.00, 
2462.00, 
2463.00, 
2464.00, 
2465.00, 
2466.00, 
2467.00, 
2468.00, 
2469.00, 
2470.00, 
2471.00, 
2472.00, 
2473.00, 
2474.00, 
2475.00, 
2476.00, 
2477.00, 
2478.00, 
2479.00, 
2480.00, 
2481.00, 
2482.00, 
2483.00, 
2484.00, 
2485.00, 
2486.00, 
2487.00, 
2488.00, 
2489.00, 
2490.00, 
2491.00, 
2492.00, 
2493.00, 
2494.00, 
2495.00, 
2496.00, 
2497.00, 
2498.00, 
2499.00, 
2500.00, 
2501.00, 
2502.00, 
2503.00, 
2504.00, 
2505.00, 
2506.00, 
2507.00, 
2508.00, 
2509.00, 
2510.00, 
2511.00, 
2512.00, 
2513.00, 
2514.00, 
2515.00, 
2516.00, 
2517.00, 
2518.00, 
2519.00, 
2520.00, 
2521.00, 
2522.00, 
2523.00, 
2524.00, 
2525.00, 
2526.00, 
2527.00, 
2528.00, 
2529.00, 
2530.00, 
2531.00, 
2532.00, 
2533.00, 
2534.00, 
2535.00, 
2536.00, 
2537.00, 
2538.00, 
2539.00, 
2540.00, 
2541.00, 
2542.00, 
2543.00, 
2544.00, 
2545.00, 
2546.00, 
2547.00, 
2548.00, 
2549.00, 
2550.00, 
2551.00, 
2552.00, 
2553.00, 
2554.00, 
2555.00, 
2556.00, 
2557.00, 
2558.00, 
2559.00, 
2560.00, 
2561.00, 
2562.00, 
2563.00, 
2564.00, 
2565.00, 
2566.00, 
2567.00, 
2568.00, 
2569.00, 
2570.00, 
2571.00, 
2572.00, 
2573.00, 
2574.00, 
2575.00, 
2576.00, 
2577.00, 
2578.00, 
2579.00, 
2580.00, 
2581.00, 
2582.00, 
2583.00, 
2584.00, 
2585.00, 
2586.00, 
2587.00, 
2588.00, 
2589.00, 
2590.00, 
2591.00, 
2592.00, 
2593.00, 
2594.00, 
2595.00, 
2596.00, 
2597.00, 
2598.00, 
2599.00, 
2600.00, 
