"2cP2 - RawData"
"Wavelength nm.","T%"
200.00,0.000
201.00,0.004
202.00,0.005
203.00,0.006
204.00,0.005
205.00,-0.000
206.00,0.000
207.00,0.001
208.00,0.003
209.00,-0.000
210.00,0.002
211.00,0.001
212.00,0.002
213.00,0.003
214.00,0.001
215.00,0.002
216.00,0.003
217.00,0.003
218.00,0.003
219.00,0.000
220.00,0.001
221.00,0.003
222.00,0.002
223.00,0.002
224.00,0.001
225.00,0.001
226.00,0.001
227.00,0.001
228.00,0.003
229.00,0.003
230.00,-0.001
231.00,0.001
232.00,0.000
233.00,0.002
234.00,-0.001
235.00,0.001
236.00,0.001
237.00,0.001
238.00,0.001
239.00,0.002
240.00,0.001
241.00,0.002
242.00,-0.000
243.00,0.001
244.00,-0.001
245.00,-0.000
246.00,0.001
247.00,0.000
248.00,-0.000
249.00,0.000
250.00,0.000
251.00,0.001
252.00,0.001
253.00,-0.000
254.00,0.002
255.00,0.001
256.00,-0.001
257.00,-0.000
258.00,-0.001
259.00,0.000
260.00,0.001
261.00,-0.000
262.00,-0.000
263.00,0.002
264.00,0.001
265.00,0.001
266.00,0.001
267.00,0.001
268.00,0.001
269.00,0.000
270.00,-0.001
271.00,-0.000
272.00,0.000
273.00,-0.000
274.00,0.001
275.00,-0.001
276.00,0.002
277.00,0.000
278.00,0.002
279.00,0.002
280.00,0.001
281.00,-0.001
282.00,-0.002
283.00,0.000
284.00,-0.001
285.00,0.001
286.00,0.002
287.00,0.000
288.00,0.000
289.00,0.002
290.00,-0.001
291.00,0.001
292.00,0.001
293.00,-0.002
294.00,-0.001
295.00,0.002
296.00,0.001
297.00,0.000
298.00,0.001
299.00,0.003
300.00,0.005
301.00,0.004
302.00,0.010
303.00,0.014
304.00,0.020
305.00,0.034
306.00,0.053
307.00,0.078
308.00,0.122
309.00,0.195
310.00,0.273
311.00,0.373
312.00,0.505
313.00,0.688
314.00,0.910
315.00,1.185
316.00,1.493
317.00,1.902
318.00,2.353
319.00,2.896
320.00,3.535
321.00,4.225
322.00,4.990
323.00,5.844
324.00,6.808
325.00,7.747
326.00,8.736
327.00,9.847
328.00,11.032
329.00,12.201
330.00,13.440
331.00,14.689
332.00,16.026
333.00,17.291
334.00,18.560
335.00,19.882
336.00,21.185
337.00,22.497
338.00,23.770
339.00,25.002
340.00,26.230
341.00,27.393
342.00,28.549
343.00,29.629
344.00,30.714
345.00,31.675
346.00,32.591
347.00,33.500
348.00,34.412
349.00,35.215
350.00,35.942
351.00,36.748
352.00,37.407
353.00,38.085
354.00,38.666
355.00,39.232
356.00,39.843
357.00,40.363
358.00,40.936
359.00,41.369
360.00,41.766
361.00,42.214
362.00,42.632
363.00,42.944
364.00,43.365
365.00,43.725
366.00,43.904
367.00,44.107
368.00,44.219
369.00,44.514
370.00,44.653
371.00,44.799
372.00,44.954
373.00,45.002
374.00,45.115
375.00,45.117
376.00,45.149
377.00,45.196
378.00,45.157
379.00,45.139
380.00,45.198
381.00,45.216
382.00,45.326
383.00,45.411
384.00,45.588
385.00,45.729
386.00,45.856
387.00,46.099
388.00,46.208
389.00,46.309
390.00,46.471
391.00,46.605
392.00,46.734
393.00,46.783
394.00,46.940
395.00,47.033
396.00,47.071
397.00,47.188
398.00,47.237
399.00,47.277
400.00,47.345
401.00,47.393
402.00,47.469
403.00,47.501
404.00,47.590
405.00,47.402
406.00,47.546
407.00,47.482
408.00,47.572
409.00,47.487
410.00,47.464
411.00,47.422
412.00,47.372
413.00,47.419
414.00,47.416
415.00,47.414
416.00,47.412
417.00,47.422
418.00,47.460
419.00,47.517
420.00,47.534
421.00,47.644
422.00,47.660
423.00,47.697
424.00,47.714
425.00,47.700
426.00,47.712
427.00,47.743
428.00,47.777
429.00,47.740
430.00,47.844
431.00,47.784
432.00,47.815
433.00,47.871
434.00,47.709
435.00,47.919
436.00,47.920
437.00,47.982
438.00,48.020
439.00,48.012
440.00,48.051
441.00,48.080
442.00,48.121
443.00,48.165
444.00,48.224
445.00,48.248
446.00,48.283
447.00,48.360
448.00,48.420
449.00,48.509
450.00,48.560
451.00,48.532
452.00,48.597
453.00,48.579
454.00,48.651
455.00,48.685
456.00,48.854
457.00,48.875
458.00,48.856
459.00,48.931
460.00,49.005
461.00,49.005
462.00,49.057
463.00,49.116
464.00,49.182
465.00,49.234
466.00,49.212
467.00,49.303
468.00,49.293
469.00,49.323
470.00,49.288
471.00,49.366
472.00,49.345
473.00,49.304
474.00,49.322
475.00,49.405
476.00,49.359
477.00,49.389
478.00,49.402
479.00,49.466
480.00,49.601
481.00,49.642
482.00,49.681
483.00,49.714
484.00,49.774
485.00,49.972
486.00,49.926
487.00,49.983
488.00,50.044
489.00,50.150
490.00,50.177
491.00,50.246
492.00,50.367
493.00,50.350
494.00,50.278
495.00,50.406
496.00,50.374
497.00,50.388
498.00,50.472
499.00,50.574
500.00,50.533
501.00,50.583
502.00,50.653
503.00,50.690
504.00,50.626
505.00,50.664
506.00,50.758
507.00,50.829
508.00,50.847
509.00,50.917
510.00,50.982
511.00,50.945
512.00,51.027
513.00,51.090
514.00,51.146
515.00,51.157
516.00,51.227
517.00,51.286
518.00,51.240
519.00,51.270
520.00,51.246
521.00,51.219
522.00,51.284
523.00,51.289
524.00,51.312
525.00,51.348
526.00,51.370
527.00,51.428
528.00,51.402
529.00,51.451
530.00,51.444
531.00,51.609
532.00,51.675
533.00,51.737
534.00,51.713
535.00,51.736
536.00,51.793
537.00,51.793
538.00,51.839
539.00,51.837
540.00,51.893
541.00,51.917
542.00,51.867
543.00,51.913
544.00,51.929
545.00,51.960
546.00,51.931
547.00,52.109
548.00,52.070
549.00,52.076
550.00,52.177
551.00,52.127
552.00,52.149
553.00,52.190
554.00,52.245
555.00,52.293
556.00,52.269
557.00,52.264
558.00,52.299
559.00,52.293
560.00,52.359
561.00,52.324
562.00,52.376
563.00,52.395
564.00,52.388
565.00,52.418
566.00,52.359
567.00,52.352
568.00,52.314
569.00,52.342
570.00,52.280
571.00,52.342
572.00,52.347
573.00,52.331
574.00,52.303
575.00,52.372
576.00,52.366
577.00,52.445
578.00,52.482
579.00,52.455
580.00,52.505
581.00,52.541
582.00,52.602
583.00,52.654
584.00,52.706
585.00,52.773
586.00,52.728
587.00,52.739
588.00,52.833
589.00,52.697
590.00,52.766
591.00,52.830
592.00,52.824
593.00,52.816
594.00,52.831
595.00,52.845
596.00,52.935
597.00,52.915
598.00,53.143
599.00,53.036
600.00,53.024
601.00,53.012
602.00,52.945
603.00,52.950
604.00,52.955
605.00,53.000
606.00,53.005
607.00,52.951
608.00,53.009
609.00,52.937
610.00,52.903
611.00,52.996
612.00,53.034
613.00,52.923
614.00,52.959
615.00,52.967
616.00,53.004
617.00,53.001
618.00,52.962
619.00,53.027
620.00,53.013
621.00,52.967
622.00,53.037
623.00,52.964
624.00,52.993
625.00,52.990
626.00,52.946
627.00,52.998
628.00,52.957
629.00,53.067
630.00,52.977
631.00,52.892
632.00,52.933
633.00,53.010
634.00,52.930
635.00,52.967
636.00,52.972
637.00,53.004
638.00,53.069
639.00,53.072
640.00,53.032
641.00,52.988
642.00,52.989
643.00,52.964
644.00,53.000
645.00,53.003
646.00,53.015
647.00,52.938
648.00,52.950
649.00,53.036
650.00,52.948
651.00,53.000
652.00,52.916
653.00,52.901
654.00,53.085
655.00,52.981
656.00,53.028
657.00,53.041
658.00,52.813
659.00,52.874
660.00,52.944
661.00,52.958
662.00,53.086
663.00,52.989
664.00,53.004
665.00,52.991
666.00,53.035
667.00,52.954
668.00,52.955
669.00,53.074
670.00,53.033
671.00,53.006
672.00,52.991
673.00,53.052
674.00,52.898
675.00,53.024
676.00,53.025
677.00,52.937
678.00,52.924
679.00,52.945
680.00,52.993
681.00,52.884
682.00,52.893
683.00,52.861
684.00,52.989
685.00,52.948
686.00,52.838
687.00,52.909
688.00,52.761
689.00,52.620
690.00,52.769
691.00,52.814
692.00,52.479
693.00,52.685
694.00,52.789
695.00,52.699
696.00,52.669
697.00,52.748
698.00,52.685
699.00,52.813
700.00,52.877
701.00,52.676
702.00,52.729
703.00,52.713
704.00,52.573
705.00,52.601
706.00,52.503
707.00,52.699
708.00,52.470
709.00,52.561
710.00,52.757
711.00,52.322
712.00,52.410
713.00,52.528
714.00,52.430
715.00,52.480
716.00,52.491
717.00,52.401
718.00,52.324
719.00,52.355
720.00,52.356
721.00,56.739
722.00,56.627
723.00,56.604
724.00,56.490
725.00,56.401
726.00,56.426
727.00,56.295
728.00,56.200
729.00,56.175
730.00,56.033
731.00,56.046
732.00,55.997
733.00,55.971
734.00,55.990
735.00,55.915
736.00,55.909
737.00,55.855
738.00,55.751
739.00,55.775
740.00,55.662
741.00,55.706
742.00,55.548
743.00,55.554
744.00,55.540
745.00,55.357
746.00,55.370
747.00,55.358
748.00,55.267
749.00,55.206
750.00,55.101
751.00,55.074
752.00,54.984
753.00,54.959
754.00,54.935
755.00,54.850
756.00,54.819
757.00,54.692
758.00,54.709
759.00,54.696
760.00,54.664
761.00,54.488
762.00,54.571
763.00,54.571
764.00,54.420
765.00,54.413
766.00,54.458
767.00,54.442
768.00,54.338
769.00,54.349
770.00,54.357
771.00,54.201
772.00,54.181
773.00,54.164
774.00,54.123
775.00,54.199
776.00,54.079
777.00,54.119
778.00,53.944
779.00,54.010
780.00,53.939
781.00,53.865
782.00,53.867
783.00,53.819
784.00,53.847
785.00,53.687
786.00,53.750
787.00,53.691
788.00,53.571
789.00,53.539
790.00,53.415
791.00,53.507
792.00,53.462
793.00,53.359
794.00,53.304
795.00,53.302
796.00,53.316
797.00,53.248
798.00,53.168
799.00,53.184
800.00,52.998
801.00,53.029
802.00,52.978
803.00,53.008
804.00,53.002
805.00,52.886
806.00,52.842
807.00,52.836
808.00,52.742
809.00,52.812
810.00,52.694
811.00,52.669
812.00,52.684
813.00,52.686
814.00,52.670
815.00,52.622
816.00,52.594
817.00,52.404
818.00,52.338
819.00,52.389
820.00,52.439
821.00,52.357
822.00,52.453
823.00,52.267
824.00,52.359
825.00,52.177
826.00,52.299
827.00,52.262
828.00,52.316
829.00,52.172
830.00,52.176
831.00,54.706
832.00,54.736
833.00,54.660
834.00,54.624
835.00,54.547
836.00,54.547
837.00,54.515
838.00,54.486
839.00,54.424
840.00,54.403
841.00,54.388
842.00,54.329
843.00,54.329
844.00,54.311
845.00,54.251
846.00,54.276
847.00,54.241
848.00,54.138
849.00,54.122
850.00,54.079
851.00,54.020
852.00,54.009
853.00,53.922
854.00,53.883
855.00,53.840
856.00,53.839
857.00,53.785
858.00,53.781
859.00,53.728
860.00,53.693
861.00,53.681
862.00,53.640
863.00,53.629
864.00,53.592
865.00,53.632
866.00,53.533
867.00,53.554
868.00,53.521
869.00,53.517
870.00,53.478
871.00,53.485
872.00,53.425
873.00,53.399
874.00,53.369
875.00,53.398
876.00,53.350
877.00,53.357
878.00,53.320
879.00,53.313
880.00,53.302
881.00,53.223
882.00,53.258
883.00,53.338
884.00,53.195
885.00,53.185
886.00,53.177
887.00,53.118
888.00,53.108
889.00,53.085
890.00,53.061
891.00,53.010
892.00,52.999
893.00,52.959
894.00,52.956
895.00,52.918
896.00,52.889
897.00,52.863
898.00,52.823
899.00,52.811
900.00,52.826
901.00,52.814
902.00,52.777
903.00,52.753
904.00,52.751
905.00,52.669
906.00,52.743
907.00,52.655
908.00,52.616
909.00,52.615
910.00,52.555
911.00,52.584
912.00,52.574
913.00,52.525
914.00,52.481
915.00,52.516
916.00,52.407
917.00,52.445
918.00,52.439
919.00,52.397
920.00,52.377
921.00,52.356
922.00,52.244
923.00,52.377
924.00,52.284
925.00,52.256
926.00,52.237
927.00,52.213
928.00,52.197
929.00,52.169
930.00,52.142
931.00,52.143
932.00,52.091
933.00,52.101
934.00,52.072
935.00,52.061
936.00,52.022
937.00,52.001
938.00,51.978
939.00,51.978
940.00,51.947
941.00,51.936
942.00,51.891
943.00,51.897
944.00,51.835
945.00,51.842
946.00,51.851
947.00,51.836
948.00,51.764
949.00,51.742
950.00,51.721
951.00,51.719
952.00,51.681
953.00,51.648
954.00,51.638
955.00,51.584
956.00,51.578
957.00,51.548
958.00,51.549
959.00,51.514
960.00,51.500
961.00,51.452
962.00,51.480
963.00,51.418
964.00,51.424
965.00,51.399
966.00,51.401
967.00,51.391
968.00,51.358
969.00,51.454
970.00,51.358
971.00,51.365
972.00,51.327
973.00,51.377
974.00,51.391
975.00,51.328
976.00,51.375
977.00,51.337
978.00,51.380
979.00,51.337
980.00,51.352
981.00,51.347
982.00,51.331
983.00,51.322
984.00,51.394
985.00,51.348
986.00,51.283
987.00,51.335
988.00,51.292
989.00,51.262
990.00,51.267
991.00,51.227
992.00,51.263
993.00,51.216
994.00,51.196
995.00,51.182
996.00,51.160
997.00,51.164
998.00,51.148
999.00,51.165
1000.00,51.121
1001.00,51.120
1002.00,51.096
1003.00,51.103
1004.00,51.085
1005.00,51.046
1006.00,51.081
1007.00,51.036
1008.00,51.027
1009.00,51.017
1010.00,50.999
1011.00,50.994
1012.00,50.963
1013.00,50.969
1014.00,50.932
1015.00,50.945
1016.00,50.902
1017.00,50.909
1018.00,50.888
1019.00,50.846
1020.00,50.847
1021.00,50.810
1022.00,50.811
1023.00,50.778
1024.00,50.790
1025.00,50.780
1026.00,50.770
1027.00,50.733
1028.00,50.736
1029.00,50.713
1030.00,50.679
1031.00,50.691
1032.00,50.643
1033.00,50.643
1034.00,50.615
1035.00,50.570
1036.00,50.565
1037.00,50.545
1038.00,50.511
1039.00,50.493
1040.00,50.491
1041.00,50.444
1042.00,50.461
1043.00,50.436
1044.00,50.463
1045.00,50.447
1046.00,50.432
1047.00,50.450
1048.00,50.458
1049.00,50.455
1050.00,50.482
1051.00,50.489
1052.00,50.494
1053.00,50.528
1054.00,50.512
1055.00,50.525
1056.00,50.534
1057.00,50.538
1058.00,50.534
1059.00,50.521
1060.00,50.546
1061.00,50.524
1062.00,50.496
1063.00,50.497
1064.00,50.492
1065.00,50.484
1066.00,50.465
1067.00,50.471
1068.00,50.468
1069.00,50.441
1070.00,50.427
1071.00,50.406
1072.00,50.424
1073.00,50.405
1074.00,50.411
1075.00,50.417
1076.00,50.367
1077.00,50.361
1078.00,50.359
1079.00,50.328
1080.00,50.340
1081.00,50.322
1082.00,50.310
1083.00,50.313
1084.00,50.305
1085.00,50.280
1086.00,50.293
1087.00,50.279
1088.00,50.267
1089.00,50.266
1090.00,50.253
1091.00,50.250
1092.00,50.243
1093.00,50.207
1094.00,50.216
1095.00,50.200
1096.00,50.185
1097.00,50.185
1098.00,50.173
1099.00,50.152
1100.00,50.156
1101.00,50.126
1102.00,50.146
1103.00,50.132
1104.00,50.104
1105.00,50.100
1106.00,50.101
1107.00,50.080
1108.00,50.091
1109.00,50.077
1110.00,50.073
1111.00,50.070
1112.00,50.045
1113.00,50.042
1114.00,50.043
1115.00,50.024
1116.00,50.049
1117.00,50.025
1118.00,50.003
1119.00,49.993
1120.00,49.991
1121.00,49.992
1122.00,49.983
1123.00,49.963
1124.00,49.968
1125.00,49.952
1126.00,49.944
1127.00,49.953
1128.00,49.934
1129.00,49.913
1130.00,49.922
1131.00,49.904
1132.00,49.895
1133.00,49.898
1134.00,49.884
1135.00,49.868
1136.00,49.899
1137.00,49.865
1138.00,49.879
1139.00,49.880
1140.00,49.875
1141.00,49.876
1142.00,49.858
1143.00,49.865
1144.00,49.848
1145.00,49.826
1146.00,49.846
1147.00,49.836
1148.00,49.811
1149.00,49.829
1150.00,49.825
1151.00,49.826
1152.00,49.826
1153.00,49.819
1154.00,49.813
1155.00,49.822
1156.00,49.800
1157.00,49.810
1158.00,49.800
1159.00,49.780
1160.00,49.797
1161.00,49.795
1162.00,49.772
1163.00,49.786
1164.00,49.766
1165.00,49.769
1166.00,49.774
1167.00,49.755
1168.00,49.783
1169.00,49.776
1170.00,49.766
1171.00,49.754
1172.00,49.761
1173.00,49.759
1174.00,49.767
1175.00,49.760
1176.00,49.763
1177.00,49.754
1178.00,49.743
1179.00,49.765
1180.00,49.748
1181.00,49.757
1182.00,49.761
1183.00,49.738
1184.00,49.724
1185.00,49.761
1186.00,49.736
1187.00,49.742
1188.00,49.737
1189.00,49.733
1190.00,49.727
1191.00,49.733
1192.00,49.728
1193.00,49.732
1194.00,49.743
1195.00,49.702
1196.00,49.747
1197.00,49.737
1198.00,49.723
1199.00,49.722
1200.00,49.717
1201.00,49.731
1202.00,49.706
1203.00,49.710
1204.00,49.708
1205.00,49.713
1206.00,49.707
1207.00,49.733
1208.00,49.705
1209.00,49.701
1210.00,49.714
1211.00,49.703
1212.00,49.732
1213.00,49.708
1214.00,49.692
1215.00,49.693
1216.00,49.697
1217.00,49.697
1218.00,49.700
1219.00,49.704
1220.00,49.689
1221.00,49.707
1222.00,49.684
1223.00,49.716
1224.00,49.700
1225.00,49.688
1226.00,49.699
1227.00,49.690
1228.00,49.705
1229.00,49.722
1230.00,49.755
1231.00,49.742
1232.00,49.762
1233.00,49.750
1234.00,49.761
1235.00,49.760
1236.00,49.747
1237.00,49.751
1238.00,49.754
1239.00,49.742
1240.00,49.750
1241.00,49.745
1242.00,49.748
1243.00,49.784
1244.00,49.742
1245.00,49.779
1246.00,49.799
1247.00,49.777
1248.00,49.786
1249.00,49.777
1250.00,49.774
1251.00,49.788
1252.00,49.795
1253.00,49.788
1254.00,49.812
1255.00,49.798
1256.00,49.773
1257.00,49.766
1258.00,49.805
1259.00,49.804
1260.00,49.827
1261.00,49.808
1262.00,49.824
1263.00,49.811
1264.00,49.834
1265.00,49.844
1266.00,49.831
1267.00,49.837
1268.00,49.863
1269.00,49.831
1270.00,49.864
1271.00,49.852
1272.00,49.859
1273.00,49.878
1274.00,49.873
1275.00,49.884
1276.00,49.881
1277.00,49.868
1278.00,49.901
1279.00,49.890
1280.00,49.883
1281.00,49.905
1282.00,49.912
1283.00,49.891
1284.00,49.912
1285.00,49.892
1286.00,49.911
1287.00,49.906
1288.00,49.900
1289.00,49.912
1290.00,49.941
1291.00,49.918
1292.00,49.943
1293.00,49.926
1294.00,49.933
1295.00,49.962
1296.00,49.949
1297.00,49.968
1298.00,49.985
1299.00,49.957
1300.00,49.976
1301.00,49.976
1302.00,49.973
1303.00,49.996
1304.00,49.981
1305.00,50.033
1306.00,50.021
1307.00,50.018
1308.00,50.020
1309.00,50.020
1310.00,50.016
1311.00,50.018
1312.00,50.034
1313.00,50.020
1314.00,50.056
1315.00,50.054
1316.00,50.052
1317.00,50.076
1318.00,50.065
1319.00,50.071
1320.00,50.103
1321.00,50.238
1322.00,50.254
1323.00,50.238
1324.00,50.228
1325.00,50.231
1326.00,50.251
1327.00,50.229
1328.00,50.229
1329.00,50.225
1330.00,50.244
1331.00,50.254
1332.00,50.227
1333.00,50.242
1334.00,50.271
1335.00,50.270
1336.00,50.303
1337.00,50.333
1338.00,50.388
1339.00,50.452
1340.00,50.508
1341.00,50.577
1342.00,50.655
1343.00,50.678
1344.00,50.737
1345.00,50.805
1346.00,50.834
1347.00,50.855
1348.00,50.865
1349.00,50.886
1350.00,50.929
1351.00,50.944
1352.00,50.932
1353.00,50.985
1354.00,50.941
1355.00,50.900
1356.00,50.963
1357.00,50.960
1358.00,51.007
1359.00,51.033
1360.00,51.036
1361.00,50.880
1362.00,50.929
1363.00,50.989
1364.00,51.009
1365.00,50.985
1366.00,51.002
1367.00,50.911
1368.00,50.918
1369.00,50.983
1370.00,50.932
1371.00,50.864
1372.00,50.928
1373.00,50.947
1374.00,50.956
1375.00,50.954
1376.00,50.906
1377.00,50.927
1378.00,51.030
1379.00,50.969
1380.00,50.964
1381.00,50.996
1382.00,50.783
1383.00,50.969
1384.00,50.867
1385.00,50.851
1386.00,50.969
1387.00,50.849
1388.00,50.869
1389.00,50.892
1390.00,50.921
1391.00,50.865
1392.00,50.937
1393.00,51.009
1394.00,50.891
1395.00,50.886
1396.00,50.905
1397.00,50.961
1398.00,51.038
1399.00,50.940
1400.00,50.837
1401.00,50.946
1402.00,51.036
1403.00,50.882
1404.00,50.912
1405.00,50.965
1406.00,50.953
1407.00,50.990
1408.00,51.009
1409.00,50.949
1410.00,51.021
1411.00,50.637
1412.00,51.027
1413.00,50.933
1414.00,50.955
1415.00,51.013
1416.00,51.068
1417.00,51.077
1418.00,51.032
1419.00,51.050
1420.00,51.075
1421.00,51.123
1422.00,51.108
1423.00,51.083
1424.00,51.131
1425.00,51.114
1426.00,51.132
1427.00,51.168
1428.00,51.158
1429.00,51.179
1430.00,51.201
1431.00,51.202
1432.00,51.226
1433.00,51.256
1434.00,51.233
1435.00,51.293
1436.00,51.286
1437.00,51.280
1438.00,51.311
1439.00,51.335
1440.00,51.345
1441.00,51.375
1442.00,51.353
1443.00,51.407
1444.00,51.411
1445.00,51.376
1446.00,51.396
1447.00,51.445
1448.00,51.478
1449.00,51.492
1450.00,51.467
1451.00,51.497
1452.00,51.514
1453.00,51.513
1454.00,51.535
1455.00,51.554
1456.00,51.578
1457.00,51.569
1458.00,51.588
1459.00,51.606
1460.00,51.617
1461.00,51.635
1462.00,51.658
1463.00,51.701
1464.00,51.689
1465.00,51.699
1466.00,51.699
1467.00,51.717
1468.00,51.772
1469.00,51.751
1470.00,51.747
1471.00,51.789
1472.00,51.781
1473.00,51.802
1474.00,51.836
1475.00,51.816
1476.00,51.851
1477.00,51.861
1478.00,51.851
1479.00,51.881
1480.00,51.885
1481.00,51.888
1482.00,51.932
1483.00,51.935
1484.00,51.935
1485.00,51.949
1486.00,51.937
1487.00,51.973
1488.00,51.987
1489.00,51.979
1490.00,51.999
1491.00,51.996
1492.00,52.007
1493.00,52.029
1494.00,52.036
1495.00,52.047
1496.00,52.068
1497.00,52.056
1498.00,52.068
1499.00,52.093
1500.00,52.099
1501.00, 
1502.00, 
1503.00, 
1504.00, 
1505.00, 
1506.00, 
1507.00, 
1508.00, 
1509.00, 
1510.00, 
1511.00, 
1512.00, 
1513.00, 
1514.00, 
1515.00, 
1516.00, 
1517.00, 
1518.00, 
1519.00, 
1520.00, 
1521.00, 
1522.00, 
1523.00, 
1524.00, 
1525.00, 
1526.00, 
1527.00, 
1528.00, 
1529.00, 
1530.00, 
1531.00, 
1532.00, 
1533.00, 
1534.00, 
1535.00, 
1536.00, 
1537.00, 
1538.00, 
1539.00, 
1540.00, 
1541.00, 
1542.00, 
1543.00, 
1544.00, 
1545.00, 
1546.00, 
1547.00, 
1548.00, 
1549.00, 
1550.00, 
1551.00, 
1552.00, 
1553.00, 
1554.00, 
1555.00, 
1556.00, 
1557.00, 
1558.00, 
1559.00, 
1560.00, 
1561.00, 
1562.00, 
1563.00, 
1564.00, 
1565.00, 
1566.00, 
1567.00, 
1568.00, 
1569.00, 
1570.00, 
1571.00, 
1572.00, 
1573.00, 
1574.00, 
1575.00, 
1576.00, 
1577.00, 
1578.00, 
1579.00, 
1580.00, 
1581.00, 
1582.00, 
1583.00, 
1584.00, 
1585.00, 
1586.00, 
1587.00, 
1588.00, 
1589.00, 
1590.00, 
1591.00, 
1592.00, 
1593.00, 
1594.00, 
1595.00, 
1596.00, 
1597.00, 
1598.00, 
1599.00, 
1600.00, 
1601.00, 
1602.00, 
1603.00, 
1604.00, 
1605.00, 
1606.00, 
1607.00, 
1608.00, 
1609.00, 
1610.00, 
1611.00, 
1612.00, 
1613.00, 
1614.00, 
1615.00, 
1616.00, 
1617.00, 
1618.00, 
1619.00, 
1620.00, 
1621.00, 
1622.00, 
1623.00, 
1624.00, 
1625.00, 
1626.00, 
1627.00, 
1628.00, 
1629.00, 
1630.00, 
1631.00, 
1632.00, 
1633.00, 
1634.00, 
1635.00, 
1636.00, 
1637.00, 
1638.00, 
1639.00, 
1640.00, 
1641.00, 
1642.00, 
1643.00, 
1644.00, 
1645.00, 
1646.00, 
1647.00, 
1648.00, 
1649.00, 
1650.00, 
1651.00, 
1652.00, 
1653.00, 
1654.00, 
1655.00, 
1656.00, 
1657.00, 
1658.00, 
1659.00, 
1660.00, 
1661.00, 
1662.00, 
1663.00, 
1664.00, 
1665.00, 
1666.00, 
1667.00, 
1668.00, 
1669.00, 
1670.00, 
1671.00, 
1672.00, 
1673.00, 
1674.00, 
1675.00, 
1676.00, 
1677.00, 
1678.00, 
1679.00, 
1680.00, 
1681.00, 
1682.00, 
1683.00, 
1684.00, 
1685.00, 
1686.00, 
1687.00, 
1688.00, 
1689.00, 
1690.00, 
1691.00, 
1692.00, 
1693.00, 
1694.00, 
1695.00, 
1696.00, 
1697.00, 
1698.00, 
1699.00, 
1700.00, 
1701.00, 
1702.00, 
1703.00, 
1704.00, 
1705.00, 
1706.00, 
1707.00, 
1708.00, 
1709.00, 
1710.00, 
1711.00, 
1712.00, 
1713.00, 
1714.00, 
1715.00, 
1716.00, 
1717.00, 
1718.00, 
1719.00, 
1720.00, 
1721.00, 
1722.00, 
1723.00, 
1724.00, 
1725.00, 
1726.00, 
1727.00, 
1728.00, 
1729.00, 
1730.00, 
1731.00, 
1732.00, 
1733.00, 
1734.00, 
1735.00, 
1736.00, 
1737.00, 
1738.00, 
1739.00, 
1740.00, 
1741.00, 
1742.00, 
1743.00, 
1744.00, 
1745.00, 
1746.00, 
1747.00, 
1748.00, 
1749.00, 
1750.00, 
1751.00, 
1752.00, 
1753.00, 
1754.00, 
1755.00, 
1756.00, 
1757.00, 
1758.00, 
1759.00, 
1760.00, 
1761.00, 
1762.00, 
1763.00, 
1764.00, 
1765.00, 
1766.00, 
1767.00, 
1768.00, 
1769.00, 
1770.00, 
1771.00, 
1772.00, 
1773.00, 
1774.00, 
1775.00, 
1776.00, 
1777.00, 
1778.00, 
1779.00, 
1780.00, 
1781.00, 
1782.00, 
1783.00, 
1784.00, 
1785.00, 
1786.00, 
1787.00, 
1788.00, 
1789.00, 
1790.00, 
1791.00, 
1792.00, 
1793.00, 
1794.00, 
1795.00, 
1796.00, 
1797.00, 
1798.00, 
1799.00, 
1800.00, 
1801.00, 
1802.00, 
1803.00, 
1804.00, 
1805.00, 
1806.00, 
1807.00, 
1808.00, 
1809.00, 
1810.00, 
1811.00, 
1812.00, 
1813.00, 
1814.00, 
1815.00, 
1816.00, 
1817.00, 
1818.00, 
1819.00, 
1820.00, 
1821.00, 
1822.00, 
1823.00, 
1824.00, 
1825.00, 
1826.00, 
1827.00, 
1828.00, 
1829.00, 
1830.00, 
1831.00, 
1832.00, 
1833.00, 
1834.00, 
1835.00, 
1836.00, 
1837.00, 
1838.00, 
1839.00, 
1840.00, 
1841.00, 
1842.00, 
1843.00, 
1844.00, 
1845.00, 
1846.00, 
1847.00, 
1848.00, 
1849.00, 
1850.00, 
1851.00, 
1852.00, 
1853.00, 
1854.00, 
1855.00, 
1856.00, 
1857.00, 
1858.00, 
1859.00, 
1860.00, 
1861.00, 
1862.00, 
1863.00, 
1864.00, 
1865.00, 
1866.00, 
1867.00, 
1868.00, 
1869.00, 
1870.00, 
1871.00, 
1872.00, 
1873.00, 
1874.00, 
1875.00, 
1876.00, 
1877.00, 
1878.00, 
1879.00, 
1880.00, 
1881.00, 
1882.00, 
1883.00, 
1884.00, 
1885.00, 
1886.00, 
1887.00, 
1888.00, 
1889.00, 
1890.00, 
1891.00, 
1892.00, 
1893.00, 
1894.00, 
1895.00, 
1896.00, 
1897.00, 
1898.00, 
1899.00, 
1900.00, 
1901.00, 
1902.00, 
1903.00, 
1904.00, 
1905.00, 
1906.00, 
1907.00, 
1908.00, 
1909.00, 
1910.00, 
1911.00, 
1912.00, 
1913.00, 
1914.00, 
1915.00, 
1916.00, 
1917.00, 
1918.00, 
1919.00, 
1920.00, 
1921.00, 
1922.00, 
1923.00, 
1924.00, 
1925.00, 
1926.00, 
1927.00, 
1928.00, 
1929.00, 
1930.00, 
1931.00, 
1932.00, 
1933.00, 
1934.00, 
1935.00, 
1936.00, 
1937.00, 
1938.00, 
1939.00, 
1940.00, 
1941.00, 
1942.00, 
1943.00, 
1944.00, 
1945.00, 
1946.00, 
1947.00, 
1948.00, 
1949.00, 
1950.00, 
1951.00, 
1952.00, 
1953.00, 
1954.00, 
1955.00, 
1956.00, 
1957.00, 
1958.00, 
1959.00, 
1960.00, 
1961.00, 
1962.00, 
1963.00, 
1964.00, 
1965.00, 
1966.00, 
1967.00, 
1968.00, 
1969.00, 
1970.00, 
1971.00, 
1972.00, 
1973.00, 
1974.00, 
1975.00, 
1976.00, 
1977.00, 
1978.00, 
1979.00, 
1980.00, 
1981.00, 
1982.00, 
1983.00, 
1984.00, 
1985.00, 
1986.00, 
1987.00, 
1988.00, 
1989.00, 
1990.00, 
1991.00, 
1992.00, 
1993.00, 
1994.00, 
1995.00, 
1996.00, 
1997.00, 
1998.00, 
1999.00, 
2000.00, 
2001.00, 
2002.00, 
2003.00, 
2004.00, 
2005.00, 
2006.00, 
2007.00, 
2008.00, 
2009.00, 
2010.00, 
2011.00, 
2012.00, 
2013.00, 
2014.00, 
2015.00, 
2016.00, 
2017.00, 
2018.00, 
2019.00, 
2020.00, 
2021.00, 
2022.00, 
2023.00, 
2024.00, 
2025.00, 
2026.00, 
2027.00, 
2028.00, 
2029.00, 
2030.00, 
2031.00, 
2032.00, 
2033.00, 
2034.00, 
2035.00, 
2036.00, 
2037.00, 
2038.00, 
2039.00, 
2040.00, 
2041.00, 
2042.00, 
2043.00, 
2044.00, 
2045.00, 
2046.00, 
2047.00, 
2048.00, 
2049.00, 
2050.00, 
2051.00, 
2052.00, 
2053.00, 
2054.00, 
2055.00, 
2056.00, 
2057.00, 
2058.00, 
2059.00, 
2060.00, 
2061.00, 
2062.00, 
2063.00, 
2064.00, 
2065.00, 
2066.00, 
2067.00, 
2068.00, 
2069.00, 
2070.00, 
2071.00, 
2072.00, 
2073.00, 
2074.00, 
2075.00, 
2076.00, 
2077.00, 
2078.00, 
2079.00, 
2080.00, 
2081.00, 
2082.00, 
2083.00, 
2084.00, 
2085.00, 
2086.00, 
2087.00, 
2088.00, 
2089.00, 
2090.00, 
2091.00, 
2092.00, 
2093.00, 
2094.00, 
2095.00, 
2096.00, 
2097.00, 
2098.00, 
2099.00, 
2100.00, 
2101.00, 
2102.00, 
2103.00, 
2104.00, 
2105.00, 
2106.00, 
2107.00, 
2108.00, 
2109.00, 
2110.00, 
2111.00, 
2112.00, 
2113.00, 
2114.00, 
2115.00, 
2116.00, 
2117.00, 
2118.00, 
2119.00, 
2120.00, 
2121.00, 
2122.00, 
2123.00, 
2124.00, 
2125.00, 
2126.00, 
2127.00, 
2128.00, 
2129.00, 
2130.00, 
2131.00, 
2132.00, 
2133.00, 
2134.00, 
2135.00, 
2136.00, 
2137.00, 
2138.00, 
2139.00, 
2140.00, 
2141.00, 
2142.00, 
2143.00, 
2144.00, 
2145.00, 
2146.00, 
2147.00, 
2148.00, 
2149.00, 
2150.00, 
2151.00, 
2152.00, 
2153.00, 
2154.00, 
2155.00, 
2156.00, 
2157.00, 
2158.00, 
2159.00, 
2160.00, 
2161.00, 
2162.00, 
2163.00, 
2164.00, 
2165.00, 
2166.00, 
2167.00, 
2168.00, 
2169.00, 
2170.00, 
2171.00, 
2172.00, 
2173.00, 
2174.00, 
2175.00, 
2176.00, 
2177.00, 
2178.00, 
2179.00, 
2180.00, 
2181.00, 
2182.00, 
2183.00, 
2184.00, 
2185.00, 
2186.00, 
2187.00, 
2188.00, 
2189.00, 
2190.00, 
2191.00, 
2192.00, 
2193.00, 
2194.00, 
2195.00, 
2196.00, 
2197.00, 
2198.00, 
2199.00, 
2200.00, 
2201.00, 
2202.00, 
2203.00, 
2204.00, 
2205.00, 
2206.00, 
2207.00, 
2208.00, 
2209.00, 
2210.00, 
2211.00, 
2212.00, 
2213.00, 
2214.00, 
2215.00, 
2216.00, 
2217.00, 
2218.00, 
2219.00, 
2220.00, 
2221.00, 
2222.00, 
2223.00, 
2224.00, 
2225.00, 
2226.00, 
2227.00, 
2228.00, 
2229.00, 
2230.00, 
2231.00, 
2232.00, 
2233.00, 
2234.00, 
2235.00, 
2236.00, 
2237.00, 
2238.00, 
2239.00, 
2240.00, 
2241.00, 
2242.00, 
2243.00, 
2244.00, 
2245.00, 
2246.00, 
2247.00, 
2248.00, 
2249.00, 
2250.00, 
2251.00, 
2252.00, 
2253.00, 
2254.00, 
2255.00, 
2256.00, 
2257.00, 
2258.00, 
2259.00, 
2260.00, 
2261.00, 
2262.00, 
2263.00, 
2264.00, 
2265.00, 
2266.00, 
2267.00, 
2268.00, 
2269.00, 
2270.00, 
2271.00, 
2272.00, 
2273.00, 
2274.00, 
2275.00, 
2276.00, 
2277.00, 
2278.00, 
2279.00, 
2280.00, 
2281.00, 
2282.00, 
2283.00, 
2284.00, 
2285.00, 
2286.00, 
2287.00, 
2288.00, 
2289.00, 
2290.00, 
2291.00, 
2292.00, 
2293.00, 
2294.00, 
2295.00, 
2296.00, 
2297.00, 
2298.00, 
2299.00, 
2300.00, 
2301.00, 
2302.00, 
2303.00, 
2304.00, 
2305.00, 
2306.00, 
2307.00, 
2308.00, 
2309.00, 
2310.00, 
2311.00, 
2312.00, 
2313.00, 
2314.00, 
2315.00, 
2316.00, 
2317.00, 
2318.00, 
2319.00, 
2320.00, 
2321.00, 
2322.00, 
2323.00, 
2324.00, 
2325.00, 
2326.00, 
2327.00, 
2328.00, 
2329.00, 
2330.00, 
2331.00, 
2332.00, 
2333.00, 
2334.00, 
2335.00, 
2336.00, 
2337.00, 
2338.00, 
2339.00, 
2340.00, 
2341.00, 
2342.00, 
2343.00, 
2344.00, 
2345.00, 
2346.00, 
2347.00, 
2348.00, 
2349.00, 
2350.00, 
2351.00, 
2352.00, 
2353.00, 
2354.00, 
2355.00, 
2356.00, 
2357.00, 
2358.00, 
2359.00, 
2360.00, 
2361.00, 
2362.00, 
2363.00, 
2364.00, 
2365.00, 
2366.00, 
2367.00, 
2368.00, 
2369.00, 
2370.00, 
2371.00, 
2372.00, 
2373.00, 
2374.00, 
2375.00, 
2376.00, 
2377.00, 
2378.00, 
2379.00, 
2380.00, 
2381.00, 
2382.00, 
2383.00, 
2384.00, 
2385.00, 
2386.00, 
2387.00, 
2388.00, 
2389.00, 
2390.00, 
2391.00, 
2392.00, 
2393.00, 
2394.00, 
2395.00, 
2396.00, 
2397.00, 
2398.00, 
2399.00, 
2400.00, 
2401.00, 
2402.00, 
2403.00, 
2404.00, 
2405.00, 
2406.00, 
2407.00, 
2408.00, 
2409.00, 
2410.00, 
2411.00, 
2412.00, 
2413.00, 
2414.00, 
2415.00, 
2416.00, 
2417.00, 
2418.00, 
2419.00, 
2420.00, 
2421.00, 
2422.00, 
2423.00, 
2424.00, 
2425.00, 
2426.00, 
2427.00, 
2428.00, 
2429.00, 
2430.00, 
2431.00, 
2432.00, 
2433.00, 
2434.00, 
2435.00, 
2436.00, 
2437.00, 
2438.00, 
2439.00, 
2440.00, 
2441.00, 
2442.00, 
2443.00, 
2444.00, 
2445.00, 
2446.00, 
2447.00, 
2448.00, 
2449.00, 
2450.00, 
2451.00, 
2452.00, 
2453.00, 
2454.00, 
2455.00, 
2456.00, 
2457.00, 
2458.00, 
2459.00, 
2460.00, 
2461.00, 
2462.00, 
2463.00, 
2464.00, 
2465.00, 
2466.00, 
2467.00, 
2468.00, 
2469.00, 
2470.00, 
2471.00, 
2472.00, 
2473.00, 
2474.00, 
2475.00, 
2476.00, 
2477.00, 
2478.00, 
2479.00, 
2480.00, 
2481.00, 
2482.00, 
2483.00, 
2484.00, 
2485.00, 
2486.00, 
2487.00, 
2488.00, 
2489.00, 
2490.00, 
2491.00, 
2492.00, 
2493.00, 
2494.00, 
2495.00, 
2496.00, 
2497.00, 
2498.00, 
2499.00, 
2500.00, 
2501.00, 
2502.00, 
2503.00, 
2504.00, 
2505.00, 
2506.00, 
2507.00, 
2508.00, 
2509.00, 
2510.00, 
2511.00, 
2512.00, 
2513.00, 
2514.00, 
2515.00, 
2516.00, 
2517.00, 
2518.00, 
2519.00, 
2520.00, 
2521.00, 
2522.00, 
2523.00, 
2524.00, 
2525.00, 
2526.00, 
2527.00, 
2528.00, 
2529.00, 
2530.00, 
2531.00, 
2532.00, 
2533.00, 
2534.00, 
2535.00, 
2536.00, 
2537.00, 
2538.00, 
2539.00, 
2540.00, 
2541.00, 
2542.00, 
2543.00, 
2544.00, 
2545.00, 
2546.00, 
2547.00, 
2548.00, 
2549.00, 
2550.00, 
2551.00, 
2552.00, 
2553.00, 
2554.00, 
2555.00, 
2556.00, 
2557.00, 
2558.00, 
2559.00, 
2560.00, 
2561.00, 
2562.00, 
2563.00, 
2564.00, 
2565.00, 
2566.00, 
2567.00, 
2568.00, 
2569.00, 
2570.00, 
2571.00, 
2572.00, 
2573.00, 
2574.00, 
2575.00, 
2576.00, 
2577.00, 
2578.00, 
2579.00, 
2580.00, 
2581.00, 
2582.00, 
2583.00, 
2584.00, 
2585.00, 
2586.00, 
2587.00, 
2588.00, 
2589.00, 
2590.00, 
2591.00, 
2592.00, 
2593.00, 
2594.00, 
2595.00, 
2596.00, 
2597.00, 
2598.00, 
2599.00, 
2600.00, 
