"2cP4 - RawData"
"Wavelength nm.","T%"
200.00,0.002
201.00,-0.000
202.00,-0.002
203.00,0.003
204.00,-0.000
205.00,0.000
206.00,0.002
207.00,-0.000
208.00,-0.001
209.00,-0.000
210.00,-0.000
211.00,0.002
212.00,-0.001
213.00,0.001
214.00,0.003
215.00,0.000
216.00,-0.000
217.00,0.001
218.00,0.001
219.00,0.001
220.00,0.000
221.00,0.003
222.00,0.003
223.00,0.002
224.00,0.001
225.00,0.003
226.00,0.001
227.00,0.002
228.00,-0.001
229.00,-0.001
230.00,0.002
231.00,0.002
232.00,0.002
233.00,-0.001
234.00,0.000
235.00,-0.001
236.00,-0.000
237.00,0.000
238.00,-0.001
239.00,0.001
240.00,0.001
241.00,0.002
242.00,0.000
243.00,0.000
244.00,0.002
245.00,0.000
246.00,-0.002
247.00,0.000
248.00,-0.000
249.00,0.001
250.00,-0.001
251.00,0.000
252.00,0.001
253.00,0.002
254.00,0.002
255.00,0.002
256.00,-0.000
257.00,0.003
258.00,0.002
259.00,0.001
260.00,0.000
261.00,0.001
262.00,0.001
263.00,0.001
264.00,0.001
265.00,0.002
266.00,0.000
267.00,-0.001
268.00,0.001
269.00,-0.000
270.00,0.000
271.00,-0.000
272.00,0.001
273.00,0.001
274.00,-0.001
275.00,0.002
276.00,-0.001
277.00,0.000
278.00,0.000
279.00,0.001
280.00,0.001
281.00,-0.001
282.00,-0.000
283.00,-0.000
284.00,0.001
285.00,0.001
286.00,-0.001
287.00,0.001
288.00,0.001
289.00,-0.001
290.00,0.003
291.00,0.000
292.00,-0.001
293.00,-0.000
294.00,-0.001
295.00,0.000
296.00,-0.000
297.00,0.000
298.00,0.002
299.00,0.002
300.00,0.004
301.00,0.005
302.00,0.005
303.00,0.008
304.00,0.011
305.00,0.019
306.00,0.029
307.00,0.043
308.00,0.068
309.00,0.109
310.00,0.148
311.00,0.198
312.00,0.275
313.00,0.369
314.00,0.485
315.00,0.626
316.00,0.795
317.00,1.017
318.00,1.264
319.00,1.553
320.00,1.887
321.00,2.255
322.00,2.661
323.00,3.136
324.00,3.646
325.00,4.095
326.00,4.673
327.00,5.288
328.00,5.940
329.00,6.538
330.00,7.190
331.00,7.836
332.00,8.525
333.00,9.250
334.00,9.907
335.00,10.633
336.00,11.304
337.00,11.997
338.00,12.703
339.00,13.321
340.00,13.987
341.00,14.605
342.00,15.191
343.00,15.763
344.00,16.324
345.00,16.863
346.00,17.349
347.00,17.792
348.00,18.263
349.00,18.701
350.00,19.084
351.00,19.451
352.00,19.803
353.00,20.067
354.00,20.420
355.00,20.720
356.00,20.991
357.00,21.224
358.00,21.483
359.00,21.731
360.00,21.945
361.00,22.080
362.00,22.341
363.00,22.481
364.00,22.569
365.00,22.741
366.00,22.815
367.00,22.912
368.00,22.877
369.00,23.026
370.00,23.104
371.00,23.138
372.00,23.098
373.00,23.147
374.00,23.161
375.00,23.166
376.00,23.097
377.00,23.089
378.00,23.068
379.00,22.980
380.00,22.974
381.00,22.973
382.00,22.965
383.00,23.004
384.00,22.995
385.00,23.066
386.00,23.071
387.00,23.154
388.00,23.205
389.00,23.245
390.00,23.266
391.00,23.242
392.00,23.314
393.00,23.275
394.00,23.374
395.00,23.407
396.00,23.382
397.00,23.423
398.00,23.435
399.00,23.454
400.00,23.449
401.00,23.463
402.00,23.474
403.00,23.480
404.00,23.463
405.00,23.475
406.00,23.458
407.00,23.443
408.00,23.455
409.00,23.410
410.00,23.361
411.00,23.341
412.00,23.318
413.00,23.373
414.00,23.367
415.00,23.355
416.00,23.388
417.00,23.422
418.00,23.446
419.00,23.497
420.00,23.564
421.00,23.625
422.00,23.636
423.00,23.680
424.00,23.736
425.00,23.724
426.00,23.764
427.00,23.836
428.00,23.869
429.00,23.922
430.00,23.977
431.00,24.020
432.00,24.080
433.00,24.148
434.00,24.217
435.00,24.320
436.00,24.351
437.00,24.425
438.00,24.499
439.00,24.564
440.00,24.621
441.00,24.724
442.00,24.792
443.00,24.899
444.00,24.994
445.00,25.090
446.00,25.162
447.00,25.279
448.00,25.407
449.00,25.483
450.00,25.607
451.00,25.645
452.00,25.695
453.00,25.892
454.00,25.998
455.00,26.112
456.00,26.242
457.00,26.370
458.00,26.454
459.00,26.603
460.00,26.737
461.00,26.879
462.00,26.989
463.00,27.160
464.00,27.286
465.00,27.369
466.00,27.536
467.00,27.701
468.00,27.722
469.00,27.842
470.00,27.934
471.00,28.063
472.00,28.178
473.00,28.253
474.00,28.370
475.00,28.493
476.00,28.603
477.00,28.705
478.00,28.846
479.00,29.024
480.00,29.149
481.00,29.263
482.00,29.437
483.00,29.577
484.00,29.733
485.00,29.882
486.00,30.029
487.00,30.151
488.00,30.290
489.00,30.494
490.00,30.603
491.00,30.744
492.00,30.961
493.00,31.111
494.00,31.085
495.00,31.286
496.00,31.360
497.00,31.480
498.00,31.632
499.00,31.773
500.00,31.925
501.00,32.005
502.00,32.144
503.00,32.253
504.00,32.304
505.00,32.500
506.00,32.578
507.00,32.657
508.00,32.783
509.00,32.963
510.00,33.067
511.00,33.129
512.00,33.343
513.00,33.450
514.00,33.567
515.00,33.684
516.00,33.779
517.00,33.850
518.00,33.964
519.00,34.063
520.00,34.107
521.00,34.192
522.00,34.194
523.00,34.294
524.00,34.424
525.00,34.560
526.00,34.644
527.00,34.719
528.00,34.757
529.00,34.937
530.00,35.100
531.00,35.225
532.00,35.255
533.00,35.362
534.00,35.446
535.00,35.513
536.00,35.614
537.00,35.679
538.00,35.713
539.00,35.775
540.00,35.888
541.00,35.922
542.00,35.936
543.00,36.004
544.00,36.082
545.00,36.189
546.00,36.163
547.00,36.303
548.00,36.494
549.00,36.510
550.00,36.499
551.00,36.571
552.00,36.663
553.00,36.667
554.00,36.790
555.00,36.868
556.00,36.930
557.00,36.960
558.00,37.051
559.00,37.078
560.00,37.180
561.00,37.227
562.00,37.224
563.00,37.327
564.00,37.369
565.00,37.311
566.00,37.349
567.00,37.447
568.00,37.380
569.00,37.529
570.00,37.582
571.00,37.612
572.00,37.626
573.00,37.633
574.00,37.664
575.00,37.725
576.00,37.751
577.00,37.854
578.00,37.880
579.00,37.904
580.00,37.956
581.00,38.144
582.00,38.206
583.00,38.207
584.00,38.291
585.00,38.387
586.00,38.409
587.00,38.481
588.00,38.517
589.00,38.480
590.00,38.570
591.00,38.642
592.00,38.609
593.00,38.679
594.00,38.760
595.00,38.845
596.00,38.935
597.00,38.973
598.00,39.079
599.00,39.066
600.00,39.037
601.00,39.073
602.00,39.046
603.00,39.093
604.00,39.210
605.00,39.240
606.00,39.233
607.00,39.278
608.00,39.454
609.00,39.519
610.00,39.361
611.00,39.496
612.00,39.543
613.00,39.593
614.00,39.653
615.00,39.697
616.00,39.801
617.00,39.825
618.00,39.735
619.00,39.858
620.00,39.959
621.00,40.029
622.00,40.101
623.00,40.127
624.00,40.236
625.00,40.212
626.00,40.287
627.00,40.379
628.00,40.384
629.00,40.477
630.00,40.487
631.00,40.573
632.00,40.632
633.00,40.799
634.00,40.858
635.00,40.895
636.00,40.980
637.00,41.014
638.00,41.052
639.00,41.204
640.00,41.240
641.00,41.258
642.00,41.350
643.00,41.413
644.00,41.507
645.00,41.534
646.00,41.638
647.00,41.779
648.00,41.779
649.00,41.838
650.00,41.920
651.00,42.051
652.00,42.160
653.00,42.134
654.00,42.229
655.00,42.417
656.00,42.702
657.00,42.645
658.00,42.610
659.00,42.578
660.00,42.774
661.00,42.940
662.00,43.008
663.00,43.006
664.00,43.203
665.00,43.366
666.00,43.298
667.00,43.294
668.00,43.388
669.00,43.596
670.00,43.876
671.00,43.752
672.00,43.906
673.00,43.983
674.00,43.969
675.00,44.033
676.00,44.261
677.00,44.430
678.00,44.290
679.00,44.458
680.00,44.625
681.00,44.706
682.00,44.766
683.00,44.702
684.00,44.897
685.00,45.006
686.00,44.950
687.00,45.073
688.00,45.112
689.00,45.110
690.00,45.382
691.00,45.589
692.00,45.425
693.00,45.552
694.00,45.660
695.00,45.815
696.00,45.809
697.00,45.838
698.00,45.825
699.00,46.147
700.00,46.255
701.00,46.178
702.00,46.316
703.00,46.429
704.00,46.439
705.00,46.476
706.00,46.510
707.00,46.625
708.00,46.525
709.00,46.882
710.00,47.318
711.00,46.809
712.00,46.734
713.00,47.026
714.00,47.196
715.00,47.221
716.00,47.209
717.00,47.349
718.00,47.508
719.00,47.478
720.00,47.500
721.00,52.050
722.00,52.037
723.00,52.063
724.00,51.990
725.00,52.076
726.00,52.056
727.00,52.141
728.00,52.076
729.00,52.231
730.00,52.095
731.00,52.216
732.00,52.163
733.00,52.234
734.00,52.291
735.00,52.344
736.00,52.350
737.00,52.406
738.00,52.401
739.00,52.440
740.00,52.428
741.00,52.507
742.00,52.518
743.00,52.540
744.00,52.509
745.00,52.512
746.00,52.531
747.00,52.597
748.00,52.495
749.00,52.533
750.00,52.535
751.00,52.545
752.00,52.525
753.00,52.598
754.00,52.587
755.00,52.549
756.00,52.576
757.00,52.532
758.00,52.483
759.00,52.553
760.00,52.707
761.00,52.529
762.00,52.632
763.00,52.682
764.00,52.633
765.00,52.618
766.00,52.652
767.00,52.762
768.00,52.663
769.00,52.707
770.00,52.774
771.00,52.709
772.00,52.729
773.00,52.696
774.00,52.808
775.00,52.871
776.00,52.739
777.00,52.709
778.00,52.719
779.00,52.820
780.00,52.766
781.00,52.734
782.00,52.778
783.00,52.754
784.00,52.754
785.00,52.755
786.00,52.729
787.00,52.740
788.00,52.680
789.00,52.690
790.00,52.623
791.00,52.738
792.00,52.639
793.00,52.593
794.00,52.667
795.00,52.546
796.00,52.628
797.00,52.595
798.00,52.606
799.00,52.563
800.00,52.492
801.00,52.549
802.00,52.580
803.00,52.604
804.00,52.513
805.00,52.550
806.00,52.469
807.00,52.401
808.00,52.386
809.00,52.406
810.00,52.324
811.00,52.406
812.00,52.393
813.00,52.427
814.00,52.367
815.00,52.402
816.00,52.383
817.00,52.173
818.00,52.209
819.00,52.249
820.00,52.231
821.00,52.268
822.00,52.348
823.00,52.157
824.00,52.341
825.00,52.135
826.00,52.141
827.00,52.262
828.00,52.306
829.00,52.096
830.00,52.188
831.00,54.294
832.00,54.310
833.00,54.243
834.00,54.272
835.00,54.233
836.00,54.230
837.00,54.236
838.00,54.188
839.00,54.190
840.00,54.143
841.00,54.150
842.00,54.087
843.00,54.113
844.00,54.053
845.00,54.089
846.00,54.074
847.00,54.044
848.00,54.017
849.00,53.981
850.00,53.978
851.00,53.915
852.00,53.949
853.00,53.838
854.00,53.817
855.00,53.744
856.00,53.754
857.00,53.750
858.00,53.734
859.00,53.692
860.00,53.682
861.00,53.687
862.00,53.637
863.00,53.670
864.00,53.590
865.00,53.654
866.00,53.585
867.00,53.591
868.00,53.590
869.00,53.566
870.00,53.552
871.00,53.549
872.00,53.538
873.00,53.497
874.00,53.503
875.00,53.480
876.00,53.491
877.00,53.496
878.00,53.456
879.00,53.434
880.00,53.431
881.00,53.409
882.00,53.428
883.00,53.378
884.00,53.363
885.00,53.324
886.00,53.368
887.00,53.289
888.00,53.287
889.00,53.253
890.00,53.249
891.00,53.218
892.00,53.213
893.00,53.190
894.00,53.186
895.00,53.150
896.00,53.133
897.00,53.105
898.00,53.078
899.00,53.076
900.00,53.044
901.00,53.050
902.00,53.021
903.00,52.992
904.00,53.000
905.00,52.964
906.00,52.971
907.00,52.964
908.00,52.911
909.00,52.916
910.00,52.875
911.00,52.873
912.00,52.868
913.00,52.835
914.00,52.785
915.00,52.846
916.00,52.722
917.00,52.764
918.00,52.737
919.00,52.715
920.00,52.687
921.00,52.652
922.00,52.647
923.00,52.651
924.00,52.604
925.00,52.585
926.00,52.568
927.00,52.561
928.00,52.540
929.00,52.521
930.00,52.504
931.00,52.513
932.00,52.463
933.00,52.484
934.00,52.450
935.00,52.433
936.00,52.375
937.00,52.385
938.00,52.352
939.00,52.370
940.00,52.337
941.00,52.307
942.00,52.272
943.00,52.273
944.00,52.195
945.00,52.262
946.00,52.238
947.00,52.234
948.00,52.174
949.00,52.157
950.00,52.138
951.00,52.124
952.00,52.098
953.00,52.061
954.00,52.040
955.00,51.987
956.00,51.976
957.00,51.954
958.00,51.961
959.00,51.906
960.00,51.907
961.00,51.882
962.00,51.913
963.00,51.850
964.00,51.853
965.00,51.828
966.00,51.814
967.00,51.825
968.00,51.793
969.00,51.816
970.00,51.797
971.00,51.806
972.00,51.753
973.00,51.799
974.00,51.823
975.00,51.774
976.00,51.801
977.00,51.788
978.00,51.830
979.00,51.786
980.00,51.802
981.00,51.807
982.00,51.763
983.00,51.763
984.00,51.759
985.00,51.773
986.00,51.712
987.00,51.757
988.00,51.717
989.00,51.705
990.00,51.709
991.00,51.676
992.00,51.722
993.00,51.676
994.00,51.659
995.00,51.655
996.00,51.641
997.00,51.627
998.00,51.598
999.00,51.626
1000.00,51.587
1001.00,51.579
1002.00,51.564
1003.00,51.579
1004.00,51.555
1005.00,51.508
1006.00,51.546
1007.00,51.495
1008.00,51.480
1009.00,51.467
1010.00,51.458
1011.00,51.448
1012.00,51.417
1013.00,51.423
1014.00,51.392
1015.00,51.392
1016.00,51.356
1017.00,51.371
1018.00,51.352
1019.00,51.296
1020.00,51.321
1021.00,51.289
1022.00,51.285
1023.00,51.243
1024.00,51.251
1025.00,51.241
1026.00,51.216
1027.00,51.187
1028.00,51.188
1029.00,51.182
1030.00,51.158
1031.00,51.163
1032.00,51.106
1033.00,51.116
1034.00,51.090
1035.00,51.043
1036.00,51.056
1037.00,51.020
1038.00,51.006
1039.00,50.969
1040.00,50.955
1041.00,50.908
1042.00,50.901
1043.00,50.874
1044.00,50.916
1045.00,50.918
1046.00,50.897
1047.00,50.928
1048.00,50.947
1049.00,50.943
1050.00,50.950
1051.00,50.987
1052.00,50.968
1053.00,50.982
1054.00,50.965
1055.00,50.988
1056.00,51.011
1057.00,51.006
1058.00,51.004
1059.00,50.987
1060.00,50.988
1061.00,50.976
1062.00,50.963
1063.00,50.970
1064.00,50.961
1065.00,50.941
1066.00,50.941
1067.00,50.938
1068.00,50.938
1069.00,50.904
1070.00,50.889
1071.00,50.867
1072.00,50.893
1073.00,50.875
1074.00,50.853
1075.00,50.836
1076.00,50.852
1077.00,50.840
1078.00,50.812
1079.00,50.801
1080.00,50.822
1081.00,50.798
1082.00,50.781
1083.00,50.785
1084.00,50.775
1085.00,50.758
1086.00,50.755
1087.00,50.753
1088.00,50.733
1089.00,50.725
1090.00,50.729
1091.00,50.736
1092.00,50.724
1093.00,50.696
1094.00,50.701
1095.00,50.677
1096.00,50.653
1097.00,50.693
1098.00,50.640
1099.00,50.629
1100.00,50.620
1101.00,50.600
1102.00,50.614
1103.00,50.615
1104.00,50.590
1105.00,50.587
1106.00,50.577
1107.00,50.565
1108.00,50.552
1109.00,50.545
1110.00,50.538
1111.00,50.540
1112.00,50.523
1113.00,50.510
1114.00,50.510
1115.00,50.502
1116.00,50.501
1117.00,50.493
1118.00,50.468
1119.00,50.466
1120.00,50.452
1121.00,50.450
1122.00,50.447
1123.00,50.434
1124.00,50.459
1125.00,50.489
1126.00,50.439
1127.00,50.422
1128.00,50.398
1129.00,50.378
1130.00,50.369
1131.00,50.355
1132.00,50.341
1133.00,50.350
1134.00,50.341
1135.00,50.337
1136.00,50.346
1137.00,50.336
1138.00,50.344
1139.00,50.352
1140.00,50.335
1141.00,50.329
1142.00,50.322
1143.00,50.341
1144.00,50.307
1145.00,50.289
1146.00,50.307
1147.00,50.293
1148.00,50.266
1149.00,50.286
1150.00,50.277
1151.00,50.273
1152.00,50.259
1153.00,50.257
1154.00,50.260
1155.00,50.263
1156.00,50.247
1157.00,50.271
1158.00,50.267
1159.00,50.237
1160.00,50.245
1161.00,50.246
1162.00,50.230
1163.00,50.243
1164.00,50.238
1165.00,50.241
1166.00,50.235
1167.00,50.222
1168.00,50.253
1169.00,50.232
1170.00,50.224
1171.00,50.211
1172.00,50.219
1173.00,50.219
1174.00,50.209
1175.00,50.206
1176.00,50.209
1177.00,50.197
1178.00,50.193
1179.00,50.214
1180.00,50.197
1181.00,50.204
1182.00,50.209
1183.00,50.181
1184.00,50.179
1185.00,50.202
1186.00,50.186
1187.00,50.182
1188.00,50.173
1189.00,50.178
1190.00,50.180
1191.00,50.170
1192.00,50.174
1193.00,50.168
1194.00,50.166
1195.00,50.134
1196.00,50.173
1197.00,50.167
1198.00,50.156
1199.00,50.161
1200.00,50.159
1201.00,50.175
1202.00,50.151
1203.00,50.154
1204.00,50.153
1205.00,50.163
1206.00,50.150
1207.00,50.152
1208.00,50.132
1209.00,50.131
1210.00,50.136
1211.00,50.129
1212.00,50.152
1213.00,50.113
1214.00,50.137
1215.00,50.129
1216.00,50.151
1217.00,50.143
1218.00,50.126
1219.00,50.147
1220.00,50.114
1221.00,50.125
1222.00,50.126
1223.00,50.149
1224.00,50.135
1225.00,50.108
1226.00,50.118
1227.00,50.108
1228.00,50.118
1229.00,50.142
1230.00,50.168
1231.00,50.167
1232.00,50.180
1233.00,50.181
1234.00,50.205
1235.00,50.197
1236.00,50.178
1237.00,50.175
1238.00,50.169
1239.00,50.171
1240.00,50.167
1241.00,50.161
1242.00,50.174
1243.00,50.201
1244.00,50.175
1245.00,50.207
1246.00,50.224
1247.00,50.194
1248.00,50.203
1249.00,50.194
1250.00,50.204
1251.00,50.200
1252.00,50.203
1253.00,50.193
1254.00,50.219
1255.00,50.211
1256.00,50.188
1257.00,50.178
1258.00,50.229
1259.00,50.229
1260.00,50.237
1261.00,50.238
1262.00,50.229
1263.00,50.211
1264.00,50.229
1265.00,50.239
1266.00,50.229
1267.00,50.238
1268.00,50.265
1269.00,50.244
1270.00,50.268
1271.00,50.261
1272.00,50.269
1273.00,50.282
1274.00,50.265
1275.00,50.281
1276.00,50.280
1277.00,50.279
1278.00,50.294
1279.00,50.299
1280.00,50.292
1281.00,50.308
1282.00,50.312
1283.00,50.301
1284.00,50.321
1285.00,50.294
1286.00,50.306
1287.00,50.301
1288.00,50.295
1289.00,50.310
1290.00,50.336
1291.00,50.331
1292.00,50.324
1293.00,50.320
1294.00,50.362
1295.00,50.366
1296.00,50.348
1297.00,50.363
1298.00,50.389
1299.00,50.361
1300.00,50.384
1301.00,50.378
1302.00,50.378
1303.00,50.401
1304.00,50.396
1305.00,50.411
1306.00,50.420
1307.00,50.409
1308.00,50.424
1309.00,50.421
1310.00,50.426
1311.00,50.426
1312.00,50.429
1313.00,50.426
1314.00,50.455
1315.00,50.470
1316.00,50.454
1317.00,50.478
1318.00,50.475
1319.00,50.481
1320.00,50.500
1321.00,50.624
1322.00,50.647
1323.00,50.634
1324.00,50.625
1325.00,50.621
1326.00,50.639
1327.00,50.637
1328.00,50.630
1329.00,50.618
1330.00,50.634
1331.00,50.634
1332.00,50.606
1333.00,50.623
1334.00,50.651
1335.00,50.665
1336.00,50.694
1337.00,50.720
1338.00,50.786
1339.00,50.843
1340.00,50.888
1341.00,50.956
1342.00,51.018
1343.00,51.050
1344.00,51.109
1345.00,51.174
1346.00,51.201
1347.00,51.236
1348.00,51.241
1349.00,51.255
1350.00,51.273
1351.00,51.288
1352.00,51.263
1353.00,51.314
1354.00,51.282
1355.00,51.242
1356.00,51.335
1357.00,51.314
1358.00,51.291
1359.00,51.370
1360.00,51.375
1361.00,51.300
1362.00,51.290
1363.00,51.347
1364.00,51.417
1365.00,51.333
1366.00,51.320
1367.00,51.292
1368.00,51.299
1369.00,51.296
1370.00,51.307
1371.00,51.305
1372.00,51.310
1373.00,51.291
1374.00,51.328
1375.00,51.332
1376.00,51.272
1377.00,51.307
1378.00,51.368
1379.00,51.322
1380.00,51.297
1381.00,51.388
1382.00,51.200
1383.00,51.327
1384.00,51.184
1385.00,51.153
1386.00,51.321
1387.00,51.215
1388.00,51.236
1389.00,51.187
1390.00,51.245
1391.00,51.282
1392.00,51.283
1393.00,51.297
1394.00,51.295
1395.00,51.234
1396.00,51.246
1397.00,51.188
1398.00,51.294
1399.00,51.307
1400.00,51.440
1401.00,51.247
1402.00,51.361
1403.00,51.276
1404.00,51.258
1405.00,51.329
1406.00,51.298
1407.00,51.347
1408.00,51.367
1409.00,51.308
1410.00,51.357
1411.00,51.338
1412.00,51.362
1413.00,51.272
1414.00,51.364
1415.00,51.382
1416.00,51.401
1417.00,51.406
1418.00,51.410
1419.00,51.421
1420.00,51.424
1421.00,51.473
1422.00,51.469
1423.00,51.465
1424.00,51.503
1425.00,51.484
1426.00,51.510
1427.00,51.550
1428.00,51.527
1429.00,51.532
1430.00,51.571
1431.00,51.563
1432.00,51.600
1433.00,51.613
1434.00,51.590
1435.00,51.650
1436.00,51.649
1437.00,51.632
1438.00,51.662
1439.00,51.679
1440.00,51.700
1441.00,51.711
1442.00,51.701
1443.00,51.734
1444.00,51.761
1445.00,51.744
1446.00,51.775
1447.00,51.798
1448.00,51.823
1449.00,51.838
1450.00,51.832
1451.00,51.845
1452.00,51.848
1453.00,51.862
1454.00,51.891
1455.00,51.921
1456.00,51.927
1457.00,51.953
1458.00,51.946
1459.00,51.970
1460.00,51.994
1461.00,51.987
1462.00,52.028
1463.00,52.054
1464.00,52.048
1465.00,52.076
1466.00,52.068
1467.00,52.083
1468.00,52.144
1469.00,52.116
1470.00,52.122
1471.00,52.155
1472.00,52.149
1473.00,52.177
1474.00,52.205
1475.00,52.188
1476.00,52.229
1477.00,52.213
1478.00,52.206
1479.00,52.249
1480.00,52.239
1481.00,52.246
1482.00,52.272
1483.00,52.270
1484.00,52.279
1485.00,52.295
1486.00,52.283
1487.00,52.318
1488.00,52.336
1489.00,52.335
1490.00,52.369
1491.00,52.372
1492.00,52.382
1493.00,52.389
1494.00,52.406
1495.00,52.420
1496.00,52.432
1497.00,52.426
1498.00,52.451
1499.00,52.465
1500.00,52.471
1501.00, 
1502.00, 
1503.00, 
1504.00, 
1505.00, 
1506.00, 
1507.00, 
1508.00, 
1509.00, 
1510.00, 
1511.00, 
1512.00, 
1513.00, 
1514.00, 
1515.00, 
1516.00, 
1517.00, 
1518.00, 
1519.00, 
1520.00, 
1521.00, 
1522.00, 
1523.00, 
1524.00, 
1525.00, 
1526.00, 
1527.00, 
1528.00, 
1529.00, 
1530.00, 
1531.00, 
1532.00, 
1533.00, 
1534.00, 
1535.00, 
1536.00, 
1537.00, 
1538.00, 
1539.00, 
1540.00, 
1541.00, 
1542.00, 
1543.00, 
1544.00, 
1545.00, 
1546.00, 
1547.00, 
1548.00, 
1549.00, 
1550.00, 
1551.00, 
1552.00, 
1553.00, 
1554.00, 
1555.00, 
1556.00, 
1557.00, 
1558.00, 
1559.00, 
1560.00, 
1561.00, 
1562.00, 
1563.00, 
1564.00, 
1565.00, 
1566.00, 
1567.00, 
1568.00, 
1569.00, 
1570.00, 
1571.00, 
1572.00, 
1573.00, 
1574.00, 
1575.00, 
1576.00, 
1577.00, 
1578.00, 
1579.00, 
1580.00, 
1581.00, 
1582.00, 
1583.00, 
1584.00, 
1585.00, 
1586.00, 
1587.00, 
1588.00, 
1589.00, 
1590.00, 
1591.00, 
1592.00, 
1593.00, 
1594.00, 
1595.00, 
1596.00, 
1597.00, 
1598.00, 
1599.00, 
1600.00, 
1601.00, 
1602.00, 
1603.00, 
1604.00, 
1605.00, 
1606.00, 
1607.00, 
1608.00, 
1609.00, 
1610.00, 
1611.00, 
1612.00, 
1613.00, 
1614.00, 
1615.00, 
1616.00, 
1617.00, 
1618.00, 
1619.00, 
1620.00, 
1621.00, 
1622.00, 
1623.00, 
1624.00, 
1625.00, 
1626.00, 
1627.00, 
1628.00, 
1629.00, 
1630.00, 
1631.00, 
1632.00, 
1633.00, 
1634.00, 
1635.00, 
1636.00, 
1637.00, 
1638.00, 
1639.00, 
1640.00, 
1641.00, 
1642.00, 
1643.00, 
1644.00, 
1645.00, 
1646.00, 
1647.00, 
1648.00, 
1649.00, 
1650.00, 
1651.00, 
1652.00, 
1653.00, 
1654.00, 
1655.00, 
1656.00, 
1657.00, 
1658.00, 
1659.00, 
1660.00, 
1661.00, 
1662.00, 
1663.00, 
1664.00, 
1665.00, 
1666.00, 
1667.00, 
1668.00, 
1669.00, 
1670.00, 
1671.00, 
1672.00, 
1673.00, 
1674.00, 
1675.00, 
1676.00, 
1677.00, 
1678.00, 
1679.00, 
1680.00, 
1681.00, 
1682.00, 
1683.00, 
1684.00, 
1685.00, 
1686.00, 
1687.00, 
1688.00, 
1689.00, 
1690.00, 
1691.00, 
1692.00, 
1693.00, 
1694.00, 
1695.00, 
1696.00, 
1697.00, 
1698.00, 
1699.00, 
1700.00, 
1701.00, 
1702.00, 
1703.00, 
1704.00, 
1705.00, 
1706.00, 
1707.00, 
1708.00, 
1709.00, 
1710.00, 
1711.00, 
1712.00, 
1713.00, 
1714.00, 
1715.00, 
1716.00, 
1717.00, 
1718.00, 
1719.00, 
1720.00, 
1721.00, 
1722.00, 
1723.00, 
1724.00, 
1725.00, 
1726.00, 
1727.00, 
1728.00, 
1729.00, 
1730.00, 
1731.00, 
1732.00, 
1733.00, 
1734.00, 
1735.00, 
1736.00, 
1737.00, 
1738.00, 
1739.00, 
1740.00, 
1741.00, 
1742.00, 
1743.00, 
1744.00, 
1745.00, 
1746.00, 
1747.00, 
1748.00, 
1749.00, 
1750.00, 
1751.00, 
1752.00, 
1753.00, 
1754.00, 
1755.00, 
1756.00, 
1757.00, 
1758.00, 
1759.00, 
1760.00, 
1761.00, 
1762.00, 
1763.00, 
1764.00, 
1765.00, 
1766.00, 
1767.00, 
1768.00, 
1769.00, 
1770.00, 
1771.00, 
1772.00, 
1773.00, 
1774.00, 
1775.00, 
1776.00, 
1777.00, 
1778.00, 
1779.00, 
1780.00, 
1781.00, 
1782.00, 
1783.00, 
1784.00, 
1785.00, 
1786.00, 
1787.00, 
1788.00, 
1789.00, 
1790.00, 
1791.00, 
1792.00, 
1793.00, 
1794.00, 
1795.00, 
1796.00, 
1797.00, 
1798.00, 
1799.00, 
1800.00, 
1801.00, 
1802.00, 
1803.00, 
1804.00, 
1805.00, 
1806.00, 
1807.00, 
1808.00, 
1809.00, 
1810.00, 
1811.00, 
1812.00, 
1813.00, 
1814.00, 
1815.00, 
1816.00, 
1817.00, 
1818.00, 
1819.00, 
1820.00, 
1821.00, 
1822.00, 
1823.00, 
1824.00, 
1825.00, 
1826.00, 
1827.00, 
1828.00, 
1829.00, 
1830.00, 
1831.00, 
1832.00, 
1833.00, 
1834.00, 
1835.00, 
1836.00, 
1837.00, 
1838.00, 
1839.00, 
1840.00, 
1841.00, 
1842.00, 
1843.00, 
1844.00, 
1845.00, 
1846.00, 
1847.00, 
1848.00, 
1849.00, 
1850.00, 
1851.00, 
1852.00, 
1853.00, 
1854.00, 
1855.00, 
1856.00, 
1857.00, 
1858.00, 
1859.00, 
1860.00, 
1861.00, 
1862.00, 
1863.00, 
1864.00, 
1865.00, 
1866.00, 
1867.00, 
1868.00, 
1869.00, 
1870.00, 
1871.00, 
1872.00, 
1873.00, 
1874.00, 
1875.00, 
1876.00, 
1877.00, 
1878.00, 
1879.00, 
1880.00, 
1881.00, 
1882.00, 
1883.00, 
1884.00, 
1885.00, 
1886.00, 
1887.00, 
1888.00, 
1889.00, 
1890.00, 
1891.00, 
1892.00, 
1893.00, 
1894.00, 
1895.00, 
1896.00, 
1897.00, 
1898.00, 
1899.00, 
1900.00, 
1901.00, 
1902.00, 
1903.00, 
1904.00, 
1905.00, 
1906.00, 
1907.00, 
1908.00, 
1909.00, 
1910.00, 
1911.00, 
1912.00, 
1913.00, 
1914.00, 
1915.00, 
1916.00, 
1917.00, 
1918.00, 
1919.00, 
1920.00, 
1921.00, 
1922.00, 
1923.00, 
1924.00, 
1925.00, 
1926.00, 
1927.00, 
1928.00, 
1929.00, 
1930.00, 
1931.00, 
1932.00, 
1933.00, 
1934.00, 
1935.00, 
1936.00, 
1937.00, 
1938.00, 
1939.00, 
1940.00, 
1941.00, 
1942.00, 
1943.00, 
1944.00, 
1945.00, 
1946.00, 
1947.00, 
1948.00, 
1949.00, 
1950.00, 
1951.00, 
1952.00, 
1953.00, 
1954.00, 
1955.00, 
1956.00, 
1957.00, 
1958.00, 
1959.00, 
1960.00, 
1961.00, 
1962.00, 
1963.00, 
1964.00, 
1965.00, 
1966.00, 
1967.00, 
1968.00, 
1969.00, 
1970.00, 
1971.00, 
1972.00, 
1973.00, 
1974.00, 
1975.00, 
1976.00, 
1977.00, 
1978.00, 
1979.00, 
1980.00, 
1981.00, 
1982.00, 
1983.00, 
1984.00, 
1985.00, 
1986.00, 
1987.00, 
1988.00, 
1989.00, 
1990.00, 
1991.00, 
1992.00, 
1993.00, 
1994.00, 
1995.00, 
1996.00, 
1997.00, 
1998.00, 
1999.00, 
2000.00, 
2001.00, 
2002.00, 
2003.00, 
2004.00, 
2005.00, 
2006.00, 
2007.00, 
2008.00, 
2009.00, 
2010.00, 
2011.00, 
2012.00, 
2013.00, 
2014.00, 
2015.00, 
2016.00, 
2017.00, 
2018.00, 
2019.00, 
2020.00, 
2021.00, 
2022.00, 
2023.00, 
2024.00, 
2025.00, 
2026.00, 
2027.00, 
2028.00, 
2029.00, 
2030.00, 
2031.00, 
2032.00, 
2033.00, 
2034.00, 
2035.00, 
2036.00, 
2037.00, 
2038.00, 
2039.00, 
2040.00, 
2041.00, 
2042.00, 
2043.00, 
2044.00, 
2045.00, 
2046.00, 
2047.00, 
2048.00, 
2049.00, 
2050.00, 
2051.00, 
2052.00, 
2053.00, 
2054.00, 
2055.00, 
2056.00, 
2057.00, 
2058.00, 
2059.00, 
2060.00, 
2061.00, 
2062.00, 
2063.00, 
2064.00, 
2065.00, 
2066.00, 
2067.00, 
2068.00, 
2069.00, 
2070.00, 
2071.00, 
2072.00, 
2073.00, 
2074.00, 
2075.00, 
2076.00, 
2077.00, 
2078.00, 
2079.00, 
2080.00, 
2081.00, 
2082.00, 
2083.00, 
2084.00, 
2085.00, 
2086.00, 
2087.00, 
2088.00, 
2089.00, 
2090.00, 
2091.00, 
2092.00, 
2093.00, 
2094.00, 
2095.00, 
2096.00, 
2097.00, 
2098.00, 
2099.00, 
2100.00, 
2101.00, 
2102.00, 
2103.00, 
2104.00, 
2105.00, 
2106.00, 
2107.00, 
2108.00, 
2109.00, 
2110.00, 
2111.00, 
2112.00, 
2113.00, 
2114.00, 
2115.00, 
2116.00, 
2117.00, 
2118.00, 
2119.00, 
2120.00, 
2121.00, 
2122.00, 
2123.00, 
2124.00, 
2125.00, 
2126.00, 
2127.00, 
2128.00, 
2129.00, 
2130.00, 
2131.00, 
2132.00, 
2133.00, 
2134.00, 
2135.00, 
2136.00, 
2137.00, 
2138.00, 
2139.00, 
2140.00, 
2141.00, 
2142.00, 
2143.00, 
2144.00, 
2145.00, 
2146.00, 
2147.00, 
2148.00, 
2149.00, 
2150.00, 
2151.00, 
2152.00, 
2153.00, 
2154.00, 
2155.00, 
2156.00, 
2157.00, 
2158.00, 
2159.00, 
2160.00, 
2161.00, 
2162.00, 
2163.00, 
2164.00, 
2165.00, 
2166.00, 
2167.00, 
2168.00, 
2169.00, 
2170.00, 
2171.00, 
2172.00, 
2173.00, 
2174.00, 
2175.00, 
2176.00, 
2177.00, 
2178.00, 
2179.00, 
2180.00, 
2181.00, 
2182.00, 
2183.00, 
2184.00, 
2185.00, 
2186.00, 
2187.00, 
2188.00, 
2189.00, 
2190.00, 
2191.00, 
2192.00, 
2193.00, 
2194.00, 
2195.00, 
2196.00, 
2197.00, 
2198.00, 
2199.00, 
2200.00, 
2201.00, 
2202.00, 
2203.00, 
2204.00, 
2205.00, 
2206.00, 
2207.00, 
2208.00, 
2209.00, 
2210.00, 
2211.00, 
2212.00, 
2213.00, 
2214.00, 
2215.00, 
2216.00, 
2217.00, 
2218.00, 
2219.00, 
2220.00, 
2221.00, 
2222.00, 
2223.00, 
2224.00, 
2225.00, 
2226.00, 
2227.00, 
2228.00, 
2229.00, 
2230.00, 
2231.00, 
2232.00, 
2233.00, 
2234.00, 
2235.00, 
2236.00, 
2237.00, 
2238.00, 
2239.00, 
2240.00, 
2241.00, 
2242.00, 
2243.00, 
2244.00, 
2245.00, 
2246.00, 
2247.00, 
2248.00, 
2249.00, 
2250.00, 
2251.00, 
2252.00, 
2253.00, 
2254.00, 
2255.00, 
2256.00, 
2257.00, 
2258.00, 
2259.00, 
2260.00, 
2261.00, 
2262.00, 
2263.00, 
2264.00, 
2265.00, 
2266.00, 
2267.00, 
2268.00, 
2269.00, 
2270.00, 
2271.00, 
2272.00, 
2273.00, 
2274.00, 
2275.00, 
2276.00, 
2277.00, 
2278.00, 
2279.00, 
2280.00, 
2281.00, 
2282.00, 
2283.00, 
2284.00, 
2285.00, 
2286.00, 
2287.00, 
2288.00, 
2289.00, 
2290.00, 
2291.00, 
2292.00, 
2293.00, 
2294.00, 
2295.00, 
2296.00, 
2297.00, 
2298.00, 
2299.00, 
2300.00, 
2301.00, 
2302.00, 
2303.00, 
2304.00, 
2305.00, 
2306.00, 
2307.00, 
2308.00, 
2309.00, 
2310.00, 
2311.00, 
2312.00, 
2313.00, 
2314.00, 
2315.00, 
2316.00, 
2317.00, 
2318.00, 
2319.00, 
2320.00, 
2321.00, 
2322.00, 
2323.00, 
2324.00, 
2325.00, 
2326.00, 
2327.00, 
2328.00, 
2329.00, 
2330.00, 
2331.00, 
2332.00, 
2333.00, 
2334.00, 
2335.00, 
2336.00, 
2337.00, 
2338.00, 
2339.00, 
2340.00, 
2341.00, 
2342.00, 
2343.00, 
2344.00, 
2345.00, 
2346.00, 
2347.00, 
2348.00, 
2349.00, 
2350.00, 
2351.00, 
2352.00, 
2353.00, 
2354.00, 
2355.00, 
2356.00, 
2357.00, 
2358.00, 
2359.00, 
2360.00, 
2361.00, 
2362.00, 
2363.00, 
2364.00, 
2365.00, 
2366.00, 
2367.00, 
2368.00, 
2369.00, 
2370.00, 
2371.00, 
2372.00, 
2373.00, 
2374.00, 
2375.00, 
2376.00, 
2377.00, 
2378.00, 
2379.00, 
2380.00, 
2381.00, 
2382.00, 
2383.00, 
2384.00, 
2385.00, 
2386.00, 
2387.00, 
2388.00, 
2389.00, 
2390.00, 
2391.00, 
2392.00, 
2393.00, 
2394.00, 
2395.00, 
2396.00, 
2397.00, 
2398.00, 
2399.00, 
2400.00, 
2401.00, 
2402.00, 
2403.00, 
2404.00, 
2405.00, 
2406.00, 
2407.00, 
2408.00, 
2409.00, 
2410.00, 
2411.00, 
2412.00, 
2413.00, 
2414.00, 
2415.00, 
2416.00, 
2417.00, 
2418.00, 
2419.00, 
2420.00, 
2421.00, 
2422.00, 
2423.00, 
2424.00, 
2425.00, 
2426.00, 
2427.00, 
2428.00, 
2429.00, 
2430.00, 
2431.00, 
2432.00, 
2433.00, 
2434.00, 
2435.00, 
2436.00, 
2437.00, 
2438.00, 
2439.00, 
2440.00, 
2441.00, 
2442.00, 
2443.00, 
2444.00, 
2445.00, 
2446.00, 
2447.00, 
2448.00, 
2449.00, 
2450.00, 
2451.00, 
2452.00, 
2453.00, 
2454.00, 
2455.00, 
2456.00, 
2457.00, 
2458.00, 
2459.00, 
2460.00, 
2461.00, 
2462.00, 
2463.00, 
2464.00, 
2465.00, 
2466.00, 
2467.00, 
2468.00, 
2469.00, 
2470.00, 
2471.00, 
2472.00, 
2473.00, 
2474.00, 
2475.00, 
2476.00, 
2477.00, 
2478.00, 
2479.00, 
2480.00, 
2481.00, 
2482.00, 
2483.00, 
2484.00, 
2485.00, 
2486.00, 
2487.00, 
2488.00, 
2489.00, 
2490.00, 
2491.00, 
2492.00, 
2493.00, 
2494.00, 
2495.00, 
2496.00, 
2497.00, 
2498.00, 
2499.00, 
2500.00, 
2501.00, 
2502.00, 
2503.00, 
2504.00, 
2505.00, 
2506.00, 
2507.00, 
2508.00, 
2509.00, 
2510.00, 
2511.00, 
2512.00, 
2513.00, 
2514.00, 
2515.00, 
2516.00, 
2517.00, 
2518.00, 
2519.00, 
2520.00, 
2521.00, 
2522.00, 
2523.00, 
2524.00, 
2525.00, 
2526.00, 
2527.00, 
2528.00, 
2529.00, 
2530.00, 
2531.00, 
2532.00, 
2533.00, 
2534.00, 
2535.00, 
2536.00, 
2537.00, 
2538.00, 
2539.00, 
2540.00, 
2541.00, 
2542.00, 
2543.00, 
2544.00, 
2545.00, 
2546.00, 
2547.00, 
2548.00, 
2549.00, 
2550.00, 
2551.00, 
2552.00, 
2553.00, 
2554.00, 
2555.00, 
2556.00, 
2557.00, 
2558.00, 
2559.00, 
2560.00, 
2561.00, 
2562.00, 
2563.00, 
2564.00, 
2565.00, 
2566.00, 
2567.00, 
2568.00, 
2569.00, 
2570.00, 
2571.00, 
2572.00, 
2573.00, 
2574.00, 
2575.00, 
2576.00, 
2577.00, 
2578.00, 
2579.00, 
2580.00, 
2581.00, 
2582.00, 
2583.00, 
2584.00, 
2585.00, 
2586.00, 
2587.00, 
2588.00, 
2589.00, 
2590.00, 
2591.00, 
2592.00, 
2593.00, 
2594.00, 
2595.00, 
2596.00, 
2597.00, 
2598.00, 
2599.00, 
2600.00, 
