"1bP2 - RawData"
"Wavelength nm.","T%"
200.00,0.001
201.00,0.001
202.00,0.001
203.00,-0.001
204.00,0.001
205.00,-0.000
206.00,-0.001
207.00,0.003
208.00,0.003
209.00,0.003
210.00,0.001
211.00,0.001
212.00,-0.000
213.00,-0.001
214.00,0.001
215.00,0.000
216.00,0.000
217.00,0.002
218.00,0.001
219.00,0.003
220.00,-0.000
221.00,0.001
222.00,0.002
223.00,0.001
224.00,0.000
225.00,0.001
226.00,-0.003
227.00,0.001
228.00,0.000
229.00,0.002
230.00,-0.001
231.00,-0.001
232.00,0.001
233.00,-0.001
234.00,-0.000
235.00,0.002
236.00,-0.002
237.00,0.000
238.00,0.001
239.00,0.000
240.00,-0.000
241.00,-0.001
242.00,0.003
243.00,-0.002
244.00,0.001
245.00,-0.000
246.00,-0.000
247.00,0.001
248.00,-0.002
249.00,0.000
250.00,0.001
251.00,-0.000
252.00,-0.000
253.00,0.000
254.00,0.001
255.00,0.002
256.00,-0.000
257.00,-0.002
258.00,0.001
259.00,0.001
260.00,0.000
261.00,0.001
262.00,0.002
263.00,0.002
264.00,0.001
265.00,0.001
266.00,-0.000
267.00,0.000
268.00,-0.001
269.00,0.001
270.00,0.001
271.00,0.001
272.00,0.000
273.00,0.001
274.00,-0.001
275.00,0.000
276.00,-0.001
277.00,-0.000
278.00,0.000
279.00,0.001
280.00,-0.001
281.00,-0.000
282.00,0.001
283.00,-0.000
284.00,0.000
285.00,0.002
286.00,-0.001
287.00,0.001
288.00,-0.001
289.00,0.000
290.00,0.001
291.00,0.000
292.00,0.000
293.00,0.001
294.00,0.000
295.00,-0.000
296.00,0.001
297.00,0.002
298.00,0.001
299.00,0.001
300.00,0.005
301.00,0.004
302.00,0.008
303.00,0.010
304.00,0.015
305.00,0.023
306.00,0.038
307.00,0.054
308.00,0.084
309.00,0.128
310.00,0.176
311.00,0.237
312.00,0.315
313.00,0.429
314.00,0.556
315.00,0.720
316.00,0.902
317.00,1.135
318.00,1.383
319.00,1.668
320.00,2.003
321.00,2.374
322.00,2.809
323.00,3.259
324.00,3.733
325.00,4.220
326.00,4.719
327.00,5.268
328.00,5.826
329.00,6.363
330.00,6.963
331.00,7.540
332.00,8.136
333.00,8.767
334.00,9.307
335.00,9.878
336.00,10.495
337.00,11.026
338.00,11.591
339.00,12.107
340.00,12.644
341.00,13.120
342.00,13.563
343.00,14.022
344.00,14.506
345.00,14.865
346.00,15.200
347.00,15.534
348.00,15.838
349.00,16.183
350.00,16.479
351.00,16.692
352.00,16.895
353.00,17.122
354.00,17.337
355.00,17.551
356.00,17.684
357.00,17.848
358.00,17.973
359.00,18.161
360.00,18.293
361.00,18.349
362.00,18.415
363.00,18.483
364.00,18.516
365.00,18.544
366.00,18.614
367.00,18.625
368.00,18.641
369.00,18.714
370.00,18.657
371.00,18.689
372.00,18.616
373.00,18.677
374.00,18.658
375.00,18.524
376.00,18.454
377.00,18.428
378.00,18.315
379.00,18.222
380.00,18.207
381.00,18.168
382.00,18.133
383.00,18.122
384.00,18.091
385.00,18.097
386.00,18.073
387.00,18.114
388.00,18.151
389.00,18.094
390.00,18.090
391.00,18.063
392.00,18.067
393.00,18.076
394.00,18.021
395.00,18.042
396.00,18.004
397.00,18.036
398.00,18.003
399.00,18.016
400.00,17.986
401.00,17.950
402.00,18.020
403.00,17.990
404.00,17.923
405.00,17.905
406.00,17.875
407.00,17.838
408.00,17.843
409.00,17.802
410.00,17.744
411.00,17.745
412.00,17.736
413.00,17.724
414.00,17.664
415.00,17.692
416.00,17.741
417.00,17.683
418.00,17.722
419.00,17.813
420.00,17.821
421.00,17.773
422.00,17.781
423.00,17.798
424.00,17.837
425.00,17.861
426.00,17.888
427.00,17.943
428.00,17.980
429.00,18.010
430.00,18.049
431.00,18.095
432.00,18.142
433.00,18.183
434.00,18.229
435.00,18.283
436.00,18.350
437.00,18.421
438.00,18.485
439.00,18.552
440.00,18.625
441.00,18.729
442.00,18.774
443.00,18.831
444.00,18.944
445.00,18.956
446.00,19.077
447.00,19.155
448.00,19.260
449.00,19.361
450.00,19.486
451.00,19.508
452.00,19.674
453.00,19.779
454.00,19.860
455.00,19.943
456.00,20.053
457.00,20.167
458.00,20.264
459.00,20.436
460.00,20.546
461.00,20.671
462.00,20.774
463.00,20.918
464.00,21.046
465.00,21.213
466.00,21.319
467.00,21.474
468.00,21.533
469.00,21.654
470.00,21.753
471.00,21.866
472.00,22.002
473.00,22.095
474.00,22.217
475.00,22.360
476.00,22.470
477.00,22.610
478.00,22.732
479.00,22.939
480.00,23.058
481.00,23.152
482.00,23.338
483.00,23.481
484.00,23.642
485.00,23.814
486.00,23.956
487.00,24.121
488.00,24.224
489.00,24.397
490.00,24.569
491.00,24.696
492.00,24.866
493.00,25.114
494.00,25.252
495.00,25.272
496.00,25.383
497.00,25.515
498.00,25.670
499.00,25.870
500.00,25.983
501.00,26.091
502.00,26.255
503.00,26.367
504.00,26.432
505.00,26.589
506.00,26.758
507.00,26.850
508.00,26.970
509.00,27.153
510.00,27.292
511.00,27.357
512.00,27.586
513.00,27.721
514.00,27.789
515.00,27.984
516.00,28.085
517.00,28.149
518.00,28.347
519.00,28.423
520.00,28.485
521.00,28.568
522.00,28.685
523.00,28.742
524.00,28.876
525.00,29.012
526.00,29.113
527.00,29.179
528.00,29.296
529.00,29.491
530.00,29.643
531.00,29.714
532.00,29.789
533.00,29.889
534.00,29.967
535.00,30.072
536.00,30.211
537.00,30.234
538.00,30.400
539.00,30.445
540.00,30.506
541.00,30.606
542.00,30.614
543.00,30.671
544.00,30.782
545.00,30.854
546.00,30.880
547.00,31.044
548.00,31.122
549.00,31.151
550.00,31.173
551.00,31.383
552.00,31.471
553.00,31.470
554.00,31.579
555.00,31.609
556.00,31.680
557.00,31.763
558.00,31.785
559.00,31.894
560.00,31.960
561.00,32.005
562.00,32.127
563.00,32.148
564.00,32.197
565.00,32.250
566.00,32.262
567.00,32.331
568.00,32.364
569.00,32.430
570.00,32.506
571.00,32.535
572.00,32.578
573.00,32.569
574.00,32.601
575.00,32.600
576.00,32.620
577.00,32.678
578.00,32.802
579.00,32.881
580.00,32.914
581.00,33.072
582.00,33.139
583.00,33.120
584.00,33.231
585.00,33.314
586.00,33.335
587.00,33.401
588.00,33.425
589.00,33.357
590.00,33.518
591.00,33.571
592.00,33.526
593.00,33.599
594.00,33.675
595.00,33.754
596.00,33.846
597.00,33.897
598.00,34.006
599.00,33.994
600.00,34.040
601.00,34.087
602.00,34.060
603.00,34.139
604.00,34.229
605.00,34.218
606.00,34.355
607.00,34.439
608.00,34.478
609.00,34.441
610.00,34.556
611.00,34.779
612.00,34.590
613.00,34.699
614.00,34.774
615.00,34.817
616.00,34.904
617.00,34.898
618.00,34.872
619.00,34.955
620.00,34.998
621.00,35.062
622.00,35.057
623.00,35.297
624.00,35.474
625.00,35.472
626.00,35.476
627.00,35.597
628.00,35.590
629.00,35.682
630.00,35.752
631.00,35.830
632.00,35.930
633.00,36.047
634.00,36.123
635.00,36.188
636.00,36.291
637.00,36.327
638.00,36.421
639.00,36.504
640.00,36.593
641.00,36.653
642.00,36.749
643.00,36.814
644.00,36.916
645.00,37.002
646.00,37.212
647.00,37.241
648.00,37.327
649.00,37.380
650.00,37.415
651.00,37.632
652.00,37.708
653.00,37.727
654.00,37.834
655.00,38.033
656.00,38.281
657.00,38.167
658.00,38.273
659.00,38.316
660.00,38.427
661.00,38.537
662.00,38.651
663.00,38.763
664.00,39.066
665.00,39.220
666.00,39.220
667.00,39.345
668.00,39.403
669.00,39.613
670.00,39.863
671.00,39.832
672.00,39.964
673.00,40.043
674.00,40.150
675.00,40.265
676.00,40.400
677.00,40.606
678.00,40.430
679.00,40.668
680.00,40.828
681.00,40.983
682.00,41.024
683.00,41.041
684.00,41.297
685.00,41.454
686.00,41.472
687.00,41.601
688.00,41.598
689.00,41.612
690.00,41.952
691.00,42.166
692.00,41.944
693.00,42.037
694.00,42.145
695.00,42.489
696.00,42.666
697.00,42.560
698.00,42.564
699.00,42.900
700.00,43.170
701.00,43.132
702.00,43.256
703.00,43.559
704.00,43.581
705.00,43.460
706.00,43.527
707.00,43.751
708.00,43.664
709.00,44.128
710.00,44.483
711.00,44.112
712.00,44.221
713.00,44.346
714.00,44.440
715.00,44.501
716.00,44.628
717.00,44.651
718.00,44.841
719.00,44.964
720.00,45.007
721.00,49.239
722.00,49.345
723.00,49.295
724.00,49.343
725.00,49.476
726.00,49.493
727.00,49.551
728.00,49.628
729.00,49.637
730.00,49.820
731.00,49.785
732.00,49.880
733.00,49.924
734.00,49.954
735.00,50.040
736.00,50.106
737.00,50.221
738.00,50.273
739.00,50.278
740.00,50.428
741.00,50.371
742.00,50.496
743.00,50.453
744.00,50.515
745.00,50.597
746.00,50.579
747.00,50.618
748.00,50.625
749.00,50.705
750.00,50.736
751.00,50.671
752.00,50.761
753.00,50.782
754.00,50.803
755.00,50.892
756.00,50.870
757.00,50.896
758.00,50.990
759.00,50.985
760.00,51.059
761.00,51.031
762.00,51.094
763.00,51.129
764.00,51.144
765.00,51.145
766.00,51.212
767.00,51.252
768.00,51.259
769.00,51.288
770.00,51.383
771.00,51.309
772.00,51.422
773.00,51.430
774.00,51.492
775.00,51.555
776.00,51.474
777.00,51.533
778.00,51.567
779.00,51.607
780.00,51.568
781.00,51.662
782.00,51.652
783.00,51.580
784.00,51.675
785.00,51.609
786.00,51.680
787.00,51.620
788.00,51.649
789.00,51.731
790.00,51.646
791.00,51.804
792.00,51.626
793.00,51.667
794.00,51.712
795.00,51.747
796.00,51.802
797.00,51.657
798.00,51.715
799.00,51.669
800.00,51.647
801.00,51.729
802.00,51.627
803.00,51.729
804.00,51.659
805.00,51.774
806.00,51.658
807.00,51.734
808.00,51.708
809.00,51.709
810.00,51.702
811.00,51.737
812.00,51.688
813.00,51.622
814.00,51.771
815.00,51.685
816.00,51.641
817.00,51.642
818.00,51.638
819.00,51.680
820.00,51.636
821.00,51.626
822.00,51.714
823.00,51.616
824.00,51.704
825.00,51.629
826.00,51.650
827.00,51.554
828.00,51.675
829.00,51.643
830.00,51.756
831.00,54.464
832.00,54.472
833.00,54.405
834.00,54.437
835.00,54.467
836.00,54.437
837.00,54.434
838.00,54.408
839.00,54.432
840.00,54.351
841.00,54.396
842.00,54.327
843.00,54.408
844.00,54.477
845.00,54.309
846.00,54.368
847.00,54.358
848.00,54.348
849.00,54.239
850.00,54.243
851.00,54.199
852.00,54.285
853.00,54.192
854.00,54.159
855.00,54.111
856.00,54.163
857.00,54.152
858.00,54.090
859.00,54.080
860.00,54.072
861.00,54.129
862.00,54.039
863.00,54.113
864.00,54.082
865.00,54.061
866.00,54.037
867.00,54.040
868.00,54.038
869.00,54.008
870.00,54.004
871.00,54.110
872.00,54.045
873.00,54.003
874.00,54.079
875.00,54.015
876.00,54.057
877.00,53.998
878.00,54.059
879.00,53.994
880.00,53.993
881.00,53.970
882.00,54.058
883.00,53.966
884.00,53.914
885.00,53.870
886.00,54.048
887.00,53.889
888.00,53.854
889.00,53.872
890.00,53.873
891.00,53.847
892.00,53.828
893.00,53.784
894.00,53.818
895.00,53.803
896.00,53.759
897.00,53.752
898.00,53.730
899.00,53.741
900.00,53.716
901.00,53.698
902.00,53.737
903.00,53.694
904.00,53.669
905.00,53.665
906.00,53.675
907.00,53.651
908.00,53.534
909.00,53.670
910.00,53.556
911.00,53.581
912.00,53.557
913.00,53.550
914.00,53.527
915.00,53.534
916.00,53.521
917.00,53.508
918.00,53.502
919.00,53.457
920.00,53.379
921.00,53.384
922.00,53.397
923.00,53.389
924.00,53.314
925.00,53.346
926.00,53.569
927.00,53.350
928.00,53.273
929.00,53.342
930.00,53.254
931.00,53.265
932.00,53.214
933.00,53.273
934.00,53.242
935.00,53.211
936.00,53.158
937.00,53.180
938.00,53.183
939.00,53.169
940.00,53.073
941.00,53.158
942.00,53.109
943.00,53.095
944.00,53.046
945.00,53.051
946.00,53.085
947.00,53.010
948.00,53.012
949.00,52.984
950.00,52.981
951.00,52.944
952.00,52.945
953.00,52.907
954.00,52.891
955.00,52.842
956.00,52.855
957.00,52.804
958.00,52.829
959.00,52.767
960.00,52.776
961.00,52.771
962.00,52.765
963.00,52.722
964.00,52.714
965.00,52.740
966.00,52.697
967.00,52.718
968.00,52.665
969.00,52.717
970.00,52.679
971.00,52.684
972.00,52.630
973.00,52.689
974.00,52.714
975.00,52.650
976.00,52.700
977.00,52.698
978.00,52.740
979.00,52.655
980.00,52.692
981.00,52.730
982.00,52.645
983.00,52.703
984.00,52.692
985.00,52.678
986.00,52.633
987.00,52.732
988.00,52.628
989.00,52.625
990.00,52.635
991.00,52.622
992.00,52.631
993.00,52.588
994.00,52.572
995.00,52.580
996.00,52.561
997.00,52.552
998.00,52.515
999.00,52.525
1000.00,52.515
1001.00,52.488
1002.00,52.487
1003.00,52.477
1004.00,52.453
1005.00,52.412
1006.00,52.475
1007.00,52.427
1008.00,52.399
1009.00,52.401
1010.00,52.396
1011.00,52.396
1012.00,52.355
1013.00,52.359
1014.00,52.341
1015.00,52.341
1016.00,52.278
1017.00,52.303
1018.00,52.313
1019.00,52.280
1020.00,52.296
1021.00,52.259
1022.00,52.262
1023.00,52.207
1024.00,52.204
1025.00,52.184
1026.00,52.156
1027.00,52.141
1028.00,52.138
1029.00,52.123
1030.00,52.082
1031.00,52.118
1032.00,52.083
1033.00,52.093
1034.00,52.081
1035.00,52.034
1036.00,52.011
1037.00,51.999
1038.00,51.995
1039.00,51.965
1040.00,51.950
1041.00,51.918
1042.00,51.930
1043.00,51.894
1044.00,51.938
1045.00,51.916
1046.00,51.911
1047.00,51.936
1048.00,51.925
1049.00,51.953
1050.00,51.942
1051.00,51.988
1052.00,51.977
1053.00,51.984
1054.00,51.976
1055.00,52.011
1056.00,52.028
1057.00,52.008
1058.00,51.992
1059.00,51.987
1060.00,52.009
1061.00,51.986
1062.00,51.974
1063.00,51.987
1064.00,51.993
1065.00,51.940
1066.00,51.974
1067.00,51.969
1068.00,51.999
1069.00,51.958
1070.00,51.937
1071.00,51.918
1072.00,51.952
1073.00,51.919
1074.00,51.912
1075.00,51.912
1076.00,51.923
1077.00,51.908
1078.00,51.882
1079.00,51.889
1080.00,51.891
1081.00,51.881
1082.00,51.876
1083.00,51.873
1084.00,51.868
1085.00,51.887
1086.00,51.871
1087.00,51.863
1088.00,51.847
1089.00,51.851
1090.00,51.832
1091.00,51.857
1092.00,51.831
1093.00,51.833
1094.00,51.790
1095.00,51.798
1096.00,51.777
1097.00,51.785
1098.00,51.757
1099.00,51.760
1100.00,51.737
1101.00,51.742
1102.00,51.724
1103.00,51.735
1104.00,51.718
1105.00,51.728
1106.00,51.707
1107.00,51.715
1108.00,51.699
1109.00,51.690
1110.00,51.678
1111.00,51.674
1112.00,51.648
1113.00,51.660
1114.00,51.641
1115.00,51.647
1116.00,51.642
1117.00,51.628
1118.00,51.623
1119.00,51.637
1120.00,51.611
1121.00,51.611
1122.00,51.587
1123.00,51.573
1124.00,51.568
1125.00,51.579
1126.00,51.561
1127.00,51.576
1128.00,51.548
1129.00,51.545
1130.00,51.525
1131.00,51.531
1132.00,51.528
1133.00,51.549
1134.00,51.503
1135.00,51.524
1136.00,51.518
1137.00,51.525
1138.00,51.526
1139.00,51.541
1140.00,51.511
1141.00,51.515
1142.00,51.495
1143.00,51.542
1144.00,51.496
1145.00,51.496
1146.00,51.499
1147.00,51.492
1148.00,51.479
1149.00,51.504
1150.00,51.493
1151.00,51.496
1152.00,51.490
1153.00,51.490
1154.00,51.468
1155.00,51.469
1156.00,51.453
1157.00,51.481
1158.00,51.460
1159.00,51.460
1160.00,51.466
1161.00,51.475
1162.00,51.469
1163.00,51.461
1164.00,51.467
1165.00,51.460
1166.00,51.464
1167.00,51.447
1168.00,51.496
1169.00,51.466
1170.00,51.449
1171.00,51.443
1172.00,51.441
1173.00,51.443
1174.00,51.453
1175.00,51.440
1176.00,51.450
1177.00,51.437
1178.00,51.437
1179.00,51.453
1180.00,51.437
1181.00,51.463
1182.00,51.444
1183.00,51.447
1184.00,51.438
1185.00,51.443
1186.00,51.422
1187.00,51.427
1188.00,51.428
1189.00,51.413
1190.00,51.415
1191.00,51.402
1192.00,51.429
1193.00,51.418
1194.00,51.429
1195.00,51.413
1196.00,51.451
1197.00,51.449
1198.00,51.431
1199.00,51.443
1200.00,51.458
1201.00,51.479
1202.00,51.434
1203.00,51.432
1204.00,51.428
1205.00,51.448
1206.00,51.439
1207.00,51.424
1208.00,51.420
1209.00,51.445
1210.00,51.454
1211.00,51.448
1212.00,51.476
1213.00,51.428
1214.00,51.454
1215.00,51.442
1216.00,51.439
1217.00,51.433
1218.00,51.445
1219.00,51.451
1220.00,51.434
1221.00,51.462
1222.00,51.429
1223.00,51.463
1224.00,51.441
1225.00,51.435
1226.00,51.424
1227.00,51.420
1228.00,51.498
1229.00,51.488
1230.00,51.466
1231.00,51.462
1232.00,51.489
1233.00,51.490
1234.00,51.489
1235.00,51.486
1236.00,51.476
1237.00,51.497
1238.00,51.487
1239.00,51.499
1240.00,51.476
1241.00,51.482
1242.00,51.487
1243.00,51.489
1244.00,51.465
1245.00,51.511
1246.00,51.504
1247.00,51.492
1248.00,51.499
1249.00,51.517
1250.00,51.534
1251.00,51.506
1252.00,51.519
1253.00,51.522
1254.00,51.553
1255.00,51.518
1256.00,51.520
1257.00,51.512
1258.00,51.550
1259.00,51.551
1260.00,51.590
1261.00,51.590
1262.00,51.571
1263.00,51.572
1264.00,51.586
1265.00,51.596
1266.00,51.578
1267.00,51.612
1268.00,51.588
1269.00,51.592
1270.00,51.625
1271.00,51.617
1272.00,51.618
1273.00,51.651
1274.00,51.624
1275.00,51.650
1276.00,51.633
1277.00,51.627
1278.00,51.644
1279.00,51.652
1280.00,51.642
1281.00,51.675
1282.00,51.685
1283.00,51.672
1284.00,51.694
1285.00,51.675
1286.00,51.701
1287.00,51.694
1288.00,51.689
1289.00,51.696
1290.00,51.731
1291.00,51.709
1292.00,51.712
1293.00,51.719
1294.00,51.735
1295.00,51.753
1296.00,51.751
1297.00,51.744
1298.00,51.789
1299.00,51.743
1300.00,51.770
1301.00,51.743
1302.00,51.777
1303.00,51.774
1304.00,51.760
1305.00,51.796
1306.00,51.801
1307.00,51.792
1308.00,51.816
1309.00,51.814
1310.00,51.799
1311.00,51.795
1312.00,51.799
1313.00,51.822
1314.00,51.842
1315.00,51.846
1316.00,51.840
1317.00,51.866
1318.00,51.867
1319.00,51.891
1320.00,51.867
1321.00,52.048
1322.00,52.033
1323.00,52.039
1324.00,52.018
1325.00,52.021
1326.00,52.059
1327.00,52.030
1328.00,52.021
1329.00,52.024
1330.00,52.024
1331.00,52.021
1332.00,52.028
1333.00,52.028
1334.00,52.047
1335.00,52.053
1336.00,52.098
1337.00,52.114
1338.00,52.190
1339.00,52.231
1340.00,52.297
1341.00,52.368
1342.00,52.417
1343.00,52.456
1344.00,52.525
1345.00,52.576
1346.00,52.617
1347.00,52.623
1348.00,52.671
1349.00,52.672
1350.00,52.698
1351.00,52.714
1352.00,52.730
1353.00,52.729
1354.00,52.710
1355.00,52.650
1356.00,52.748
1357.00,52.699
1358.00,52.790
1359.00,52.779
1360.00,52.725
1361.00,52.765
1362.00,52.745
1363.00,52.864
1364.00,52.822
1365.00,52.803
1366.00,53.094
1367.00,52.759
1368.00,52.779
1369.00,52.825
1370.00,52.757
1371.00,52.832
1372.00,52.838
1373.00,52.767
1374.00,52.808
1375.00,52.778
1376.00,52.758
1377.00,52.747
1378.00,52.893
1379.00,52.779
1380.00,52.838
1381.00,52.821
1382.00,52.616
1383.00,52.819
1384.00,52.721
1385.00,52.728
1386.00,52.765
1387.00,52.782
1388.00,52.650
1389.00,52.722
1390.00,52.728
1391.00,52.820
1392.00,52.764
1393.00,52.898
1394.00,52.859
1395.00,52.593
1396.00,52.693
1397.00,52.734
1398.00,52.750
1399.00,52.735
1400.00,52.807
1401.00,52.728
1402.00,52.779
1403.00,52.741
1404.00,52.799
1405.00,52.807
1406.00,52.845
1407.00,52.803
1408.00,52.819
1409.00,52.815
1410.00,52.860
1411.00,52.797
1412.00,52.939
1413.00,52.861
1414.00,52.823
1415.00,52.853
1416.00,52.879
1417.00,52.942
1418.00,52.872
1419.00,52.874
1420.00,52.917
1421.00,52.989
1422.00,52.953
1423.00,52.972
1424.00,52.962
1425.00,52.977
1426.00,53.002
1427.00,53.046
1428.00,53.018
1429.00,53.024
1430.00,53.052
1431.00,53.072
1432.00,53.076
1433.00,53.100
1434.00,53.059
1435.00,53.165
1436.00,53.152
1437.00,53.127
1438.00,53.149
1439.00,53.171
1440.00,53.194
1441.00,53.195
1442.00,53.213
1443.00,53.211
1444.00,53.319
1445.00,53.249
1446.00,53.273
1447.00,53.286
1448.00,53.349
1449.00,53.339
1450.00,53.353
1451.00,53.358
1452.00,53.395
1453.00,53.380
1454.00,53.405
1455.00,53.423
1456.00,53.433
1457.00,53.416
1458.00,53.464
1459.00,53.472
1460.00,53.492
1461.00,53.488
1462.00,53.546
1463.00,53.522
1464.00,53.528
1465.00,53.569
1466.00,53.558
1467.00,53.591
1468.00,53.633
1469.00,53.597
1470.00,53.622
1471.00,53.631
1472.00,53.648
1473.00,53.656
1474.00,53.673
1475.00,53.692
1476.00,53.716
1477.00,53.691
1478.00,53.721
1479.00,53.745
1480.00,53.748
1481.00,53.756
1482.00,53.785
1483.00,53.795
1484.00,53.798
1485.00,53.802
1486.00,53.809
1487.00,53.842
1488.00,53.866
1489.00,53.835
1490.00,53.867
1491.00,53.881
1492.00,53.903
1493.00,53.882
1494.00,53.930
1495.00,53.903
1496.00,53.944
1497.00,53.907
1498.00,53.922
1499.00,53.914
1500.00,53.921
1501.00, 
1502.00, 
1503.00, 
1504.00, 
1505.00, 
1506.00, 
1507.00, 
1508.00, 
1509.00, 
1510.00, 
1511.00, 
1512.00, 
1513.00, 
1514.00, 
1515.00, 
1516.00, 
1517.00, 
1518.00, 
1519.00, 
1520.00, 
1521.00, 
1522.00, 
1523.00, 
1524.00, 
1525.00, 
1526.00, 
1527.00, 
1528.00, 
1529.00, 
1530.00, 
1531.00, 
1532.00, 
1533.00, 
1534.00, 
1535.00, 
1536.00, 
1537.00, 
1538.00, 
1539.00, 
1540.00, 
1541.00, 
1542.00, 
1543.00, 
1544.00, 
1545.00, 
1546.00, 
1547.00, 
1548.00, 
1549.00, 
1550.00, 
1551.00, 
1552.00, 
1553.00, 
1554.00, 
1555.00, 
1556.00, 
1557.00, 
1558.00, 
1559.00, 
1560.00, 
1561.00, 
1562.00, 
1563.00, 
1564.00, 
1565.00, 
1566.00, 
1567.00, 
1568.00, 
1569.00, 
1570.00, 
1571.00, 
1572.00, 
1573.00, 
1574.00, 
1575.00, 
1576.00, 
1577.00, 
1578.00, 
1579.00, 
1580.00, 
1581.00, 
1582.00, 
1583.00, 
1584.00, 
1585.00, 
1586.00, 
1587.00, 
1588.00, 
1589.00, 
1590.00, 
1591.00, 
1592.00, 
1593.00, 
1594.00, 
1595.00, 
1596.00, 
1597.00, 
1598.00, 
1599.00, 
1600.00, 
1601.00, 
1602.00, 
1603.00, 
1604.00, 
1605.00, 
1606.00, 
1607.00, 
1608.00, 
1609.00, 
1610.00, 
1611.00, 
1612.00, 
1613.00, 
1614.00, 
1615.00, 
1616.00, 
1617.00, 
1618.00, 
1619.00, 
1620.00, 
1621.00, 
1622.00, 
1623.00, 
1624.00, 
1625.00, 
1626.00, 
1627.00, 
1628.00, 
1629.00, 
1630.00, 
1631.00, 
1632.00, 
1633.00, 
1634.00, 
1635.00, 
1636.00, 
1637.00, 
1638.00, 
1639.00, 
1640.00, 
1641.00, 
1642.00, 
1643.00, 
1644.00, 
1645.00, 
1646.00, 
1647.00, 
1648.00, 
1649.00, 
1650.00, 
1651.00, 
1652.00, 
1653.00, 
1654.00, 
1655.00, 
1656.00, 
1657.00, 
1658.00, 
1659.00, 
1660.00, 
1661.00, 
1662.00, 
1663.00, 
1664.00, 
1665.00, 
1666.00, 
1667.00, 
1668.00, 
1669.00, 
1670.00, 
1671.00, 
1672.00, 
1673.00, 
1674.00, 
1675.00, 
1676.00, 
1677.00, 
1678.00, 
1679.00, 
1680.00, 
1681.00, 
1682.00, 
1683.00, 
1684.00, 
1685.00, 
1686.00, 
1687.00, 
1688.00, 
1689.00, 
1690.00, 
1691.00, 
1692.00, 
1693.00, 
1694.00, 
1695.00, 
1696.00, 
1697.00, 
1698.00, 
1699.00, 
1700.00, 
1701.00, 
1702.00, 
1703.00, 
1704.00, 
1705.00, 
1706.00, 
1707.00, 
1708.00, 
1709.00, 
1710.00, 
1711.00, 
1712.00, 
1713.00, 
1714.00, 
1715.00, 
1716.00, 
1717.00, 
1718.00, 
1719.00, 
1720.00, 
1721.00, 
1722.00, 
1723.00, 
1724.00, 
1725.00, 
1726.00, 
1727.00, 
1728.00, 
1729.00, 
1730.00, 
1731.00, 
1732.00, 
1733.00, 
1734.00, 
1735.00, 
1736.00, 
1737.00, 
1738.00, 
1739.00, 
1740.00, 
1741.00, 
1742.00, 
1743.00, 
1744.00, 
1745.00, 
1746.00, 
1747.00, 
1748.00, 
1749.00, 
1750.00, 
1751.00, 
1752.00, 
1753.00, 
1754.00, 
1755.00, 
1756.00, 
1757.00, 
1758.00, 
1759.00, 
1760.00, 
1761.00, 
1762.00, 
1763.00, 
1764.00, 
1765.00, 
1766.00, 
1767.00, 
1768.00, 
1769.00, 
1770.00, 
1771.00, 
1772.00, 
1773.00, 
1774.00, 
1775.00, 
1776.00, 
1777.00, 
1778.00, 
1779.00, 
1780.00, 
1781.00, 
1782.00, 
1783.00, 
1784.00, 
1785.00, 
1786.00, 
1787.00, 
1788.00, 
1789.00, 
1790.00, 
1791.00, 
1792.00, 
1793.00, 
1794.00, 
1795.00, 
1796.00, 
1797.00, 
1798.00, 
1799.00, 
1800.00, 
1801.00, 
1802.00, 
1803.00, 
1804.00, 
1805.00, 
1806.00, 
1807.00, 
1808.00, 
1809.00, 
1810.00, 
1811.00, 
1812.00, 
1813.00, 
1814.00, 
1815.00, 
1816.00, 
1817.00, 
1818.00, 
1819.00, 
1820.00, 
1821.00, 
1822.00, 
1823.00, 
1824.00, 
1825.00, 
1826.00, 
1827.00, 
1828.00, 
1829.00, 
1830.00, 
1831.00, 
1832.00, 
1833.00, 
1834.00, 
1835.00, 
1836.00, 
1837.00, 
1838.00, 
1839.00, 
1840.00, 
1841.00, 
1842.00, 
1843.00, 
1844.00, 
1845.00, 
1846.00, 
1847.00, 
1848.00, 
1849.00, 
1850.00, 
1851.00, 
1852.00, 
1853.00, 
1854.00, 
1855.00, 
1856.00, 
1857.00, 
1858.00, 
1859.00, 
1860.00, 
1861.00, 
1862.00, 
1863.00, 
1864.00, 
1865.00, 
1866.00, 
1867.00, 
1868.00, 
1869.00, 
1870.00, 
1871.00, 
1872.00, 
1873.00, 
1874.00, 
1875.00, 
1876.00, 
1877.00, 
1878.00, 
1879.00, 
1880.00, 
1881.00, 
1882.00, 
1883.00, 
1884.00, 
1885.00, 
1886.00, 
1887.00, 
1888.00, 
1889.00, 
1890.00, 
1891.00, 
1892.00, 
1893.00, 
1894.00, 
1895.00, 
1896.00, 
1897.00, 
1898.00, 
1899.00, 
1900.00, 
1901.00, 
1902.00, 
1903.00, 
1904.00, 
1905.00, 
1906.00, 
1907.00, 
1908.00, 
1909.00, 
1910.00, 
1911.00, 
1912.00, 
1913.00, 
1914.00, 
1915.00, 
1916.00, 
1917.00, 
1918.00, 
1919.00, 
1920.00, 
1921.00, 
1922.00, 
1923.00, 
1924.00, 
1925.00, 
1926.00, 
1927.00, 
1928.00, 
1929.00, 
1930.00, 
1931.00, 
1932.00, 
1933.00, 
1934.00, 
1935.00, 
1936.00, 
1937.00, 
1938.00, 
1939.00, 
1940.00, 
1941.00, 
1942.00, 
1943.00, 
1944.00, 
1945.00, 
1946.00, 
1947.00, 
1948.00, 
1949.00, 
1950.00, 
1951.00, 
1952.00, 
1953.00, 
1954.00, 
1955.00, 
1956.00, 
1957.00, 
1958.00, 
1959.00, 
1960.00, 
1961.00, 
1962.00, 
1963.00, 
1964.00, 
1965.00, 
1966.00, 
1967.00, 
1968.00, 
1969.00, 
1970.00, 
1971.00, 
1972.00, 
1973.00, 
1974.00, 
1975.00, 
1976.00, 
1977.00, 
1978.00, 
1979.00, 
1980.00, 
1981.00, 
1982.00, 
1983.00, 
1984.00, 
1985.00, 
1986.00, 
1987.00, 
1988.00, 
1989.00, 
1990.00, 
1991.00, 
1992.00, 
1993.00, 
1994.00, 
1995.00, 
1996.00, 
1997.00, 
1998.00, 
1999.00, 
2000.00, 
2001.00, 
2002.00, 
2003.00, 
2004.00, 
2005.00, 
2006.00, 
2007.00, 
2008.00, 
2009.00, 
2010.00, 
2011.00, 
2012.00, 
2013.00, 
2014.00, 
2015.00, 
2016.00, 
2017.00, 
2018.00, 
2019.00, 
2020.00, 
2021.00, 
2022.00, 
2023.00, 
2024.00, 
2025.00, 
2026.00, 
2027.00, 
2028.00, 
2029.00, 
2030.00, 
2031.00, 
2032.00, 
2033.00, 
2034.00, 
2035.00, 
2036.00, 
2037.00, 
2038.00, 
2039.00, 
2040.00, 
2041.00, 
2042.00, 
2043.00, 
2044.00, 
2045.00, 
2046.00, 
2047.00, 
2048.00, 
2049.00, 
2050.00, 
2051.00, 
2052.00, 
2053.00, 
2054.00, 
2055.00, 
2056.00, 
2057.00, 
2058.00, 
2059.00, 
2060.00, 
2061.00, 
2062.00, 
2063.00, 
2064.00, 
2065.00, 
2066.00, 
2067.00, 
2068.00, 
2069.00, 
2070.00, 
2071.00, 
2072.00, 
2073.00, 
2074.00, 
2075.00, 
2076.00, 
2077.00, 
2078.00, 
2079.00, 
2080.00, 
2081.00, 
2082.00, 
2083.00, 
2084.00, 
2085.00, 
2086.00, 
2087.00, 
2088.00, 
2089.00, 
2090.00, 
2091.00, 
2092.00, 
2093.00, 
2094.00, 
2095.00, 
2096.00, 
2097.00, 
2098.00, 
2099.00, 
2100.00, 
2101.00, 
2102.00, 
2103.00, 
2104.00, 
2105.00, 
2106.00, 
2107.00, 
2108.00, 
2109.00, 
2110.00, 
2111.00, 
2112.00, 
2113.00, 
2114.00, 
2115.00, 
2116.00, 
2117.00, 
2118.00, 
2119.00, 
2120.00, 
2121.00, 
2122.00, 
2123.00, 
2124.00, 
2125.00, 
2126.00, 
2127.00, 
2128.00, 
2129.00, 
2130.00, 
2131.00, 
2132.00, 
2133.00, 
2134.00, 
2135.00, 
2136.00, 
2137.00, 
2138.00, 
2139.00, 
2140.00, 
2141.00, 
2142.00, 
2143.00, 
2144.00, 
2145.00, 
2146.00, 
2147.00, 
2148.00, 
2149.00, 
2150.00, 
2151.00, 
2152.00, 
2153.00, 
2154.00, 
2155.00, 
2156.00, 
2157.00, 
2158.00, 
2159.00, 
2160.00, 
2161.00, 
2162.00, 
2163.00, 
2164.00, 
2165.00, 
2166.00, 
2167.00, 
2168.00, 
2169.00, 
2170.00, 
2171.00, 
2172.00, 
2173.00, 
2174.00, 
2175.00, 
2176.00, 
2177.00, 
2178.00, 
2179.00, 
2180.00, 
2181.00, 
2182.00, 
2183.00, 
2184.00, 
2185.00, 
2186.00, 
2187.00, 
2188.00, 
2189.00, 
2190.00, 
2191.00, 
2192.00, 
2193.00, 
2194.00, 
2195.00, 
2196.00, 
2197.00, 
2198.00, 
2199.00, 
2200.00, 
2201.00, 
2202.00, 
2203.00, 
2204.00, 
2205.00, 
2206.00, 
2207.00, 
2208.00, 
2209.00, 
2210.00, 
2211.00, 
2212.00, 
2213.00, 
2214.00, 
2215.00, 
2216.00, 
2217.00, 
2218.00, 
2219.00, 
2220.00, 
2221.00, 
2222.00, 
2223.00, 
2224.00, 
2225.00, 
2226.00, 
2227.00, 
2228.00, 
2229.00, 
2230.00, 
2231.00, 
2232.00, 
2233.00, 
2234.00, 
2235.00, 
2236.00, 
2237.00, 
2238.00, 
2239.00, 
2240.00, 
2241.00, 
2242.00, 
2243.00, 
2244.00, 
2245.00, 
2246.00, 
2247.00, 
2248.00, 
2249.00, 
2250.00, 
2251.00, 
2252.00, 
2253.00, 
2254.00, 
2255.00, 
2256.00, 
2257.00, 
2258.00, 
2259.00, 
2260.00, 
2261.00, 
2262.00, 
2263.00, 
2264.00, 
2265.00, 
2266.00, 
2267.00, 
2268.00, 
2269.00, 
2270.00, 
2271.00, 
2272.00, 
2273.00, 
2274.00, 
2275.00, 
2276.00, 
2277.00, 
2278.00, 
2279.00, 
2280.00, 
2281.00, 
2282.00, 
2283.00, 
2284.00, 
2285.00, 
2286.00, 
2287.00, 
2288.00, 
2289.00, 
2290.00, 
2291.00, 
2292.00, 
2293.00, 
2294.00, 
2295.00, 
2296.00, 
2297.00, 
2298.00, 
2299.00, 
2300.00, 
2301.00, 
2302.00, 
2303.00, 
2304.00, 
2305.00, 
2306.00, 
2307.00, 
2308.00, 
2309.00, 
2310.00, 
2311.00, 
2312.00, 
2313.00, 
2314.00, 
2315.00, 
2316.00, 
2317.00, 
2318.00, 
2319.00, 
2320.00, 
2321.00, 
2322.00, 
2323.00, 
2324.00, 
2325.00, 
2326.00, 
2327.00, 
2328.00, 
2329.00, 
2330.00, 
2331.00, 
2332.00, 
2333.00, 
2334.00, 
2335.00, 
2336.00, 
2337.00, 
2338.00, 
2339.00, 
2340.00, 
2341.00, 
2342.00, 
2343.00, 
2344.00, 
2345.00, 
2346.00, 
2347.00, 
2348.00, 
2349.00, 
2350.00, 
2351.00, 
2352.00, 
2353.00, 
2354.00, 
2355.00, 
2356.00, 
2357.00, 
2358.00, 
2359.00, 
2360.00, 
2361.00, 
2362.00, 
2363.00, 
2364.00, 
2365.00, 
2366.00, 
2367.00, 
2368.00, 
2369.00, 
2370.00, 
2371.00, 
2372.00, 
2373.00, 
2374.00, 
2375.00, 
2376.00, 
2377.00, 
2378.00, 
2379.00, 
2380.00, 
2381.00, 
2382.00, 
2383.00, 
2384.00, 
2385.00, 
2386.00, 
2387.00, 
2388.00, 
2389.00, 
2390.00, 
2391.00, 
2392.00, 
2393.00, 
2394.00, 
2395.00, 
2396.00, 
2397.00, 
2398.00, 
2399.00, 
2400.00, 
2401.00, 
2402.00, 
2403.00, 
2404.00, 
2405.00, 
2406.00, 
2407.00, 
2408.00, 
2409.00, 
2410.00, 
2411.00, 
2412.00, 
2413.00, 
2414.00, 
2415.00, 
2416.00, 
2417.00, 
2418.00, 
2419.00, 
2420.00, 
2421.00, 
2422.00, 
2423.00, 
2424.00, 
2425.00, 
2426.00, 
2427.00, 
2428.00, 
2429.00, 
2430.00, 
2431.00, 
2432.00, 
2433.00, 
2434.00, 
2435.00, 
2436.00, 
2437.00, 
2438.00, 
2439.00, 
2440.00, 
2441.00, 
2442.00, 
2443.00, 
2444.00, 
2445.00, 
2446.00, 
2447.00, 
2448.00, 
2449.00, 
2450.00, 
2451.00, 
2452.00, 
2453.00, 
2454.00, 
2455.00, 
2456.00, 
2457.00, 
2458.00, 
2459.00, 
2460.00, 
2461.00, 
2462.00, 
2463.00, 
2464.00, 
2465.00, 
2466.00, 
2467.00, 
2468.00, 
2469.00, 
2470.00, 
2471.00, 
2472.00, 
2473.00, 
2474.00, 
2475.00, 
2476.00, 
2477.00, 
2478.00, 
2479.00, 
2480.00, 
2481.00, 
2482.00, 
2483.00, 
2484.00, 
2485.00, 
2486.00, 
2487.00, 
2488.00, 
2489.00, 
2490.00, 
2491.00, 
2492.00, 
2493.00, 
2494.00, 
2495.00, 
2496.00, 
2497.00, 
2498.00, 
2499.00, 
2500.00, 
2501.00, 
2502.00, 
2503.00, 
2504.00, 
2505.00, 
2506.00, 
2507.00, 
2508.00, 
2509.00, 
2510.00, 
2511.00, 
2512.00, 
2513.00, 
2514.00, 
2515.00, 
2516.00, 
2517.00, 
2518.00, 
2519.00, 
2520.00, 
2521.00, 
2522.00, 
2523.00, 
2524.00, 
2525.00, 
2526.00, 
2527.00, 
2528.00, 
2529.00, 
2530.00, 
2531.00, 
2532.00, 
2533.00, 
2534.00, 
2535.00, 
2536.00, 
2537.00, 
2538.00, 
2539.00, 
2540.00, 
2541.00, 
2542.00, 
2543.00, 
2544.00, 
2545.00, 
2546.00, 
2547.00, 
2548.00, 
2549.00, 
2550.00, 
2551.00, 
2552.00, 
2553.00, 
2554.00, 
2555.00, 
2556.00, 
2557.00, 
2558.00, 
2559.00, 
2560.00, 
2561.00, 
2562.00, 
2563.00, 
2564.00, 
2565.00, 
2566.00, 
2567.00, 
2568.00, 
2569.00, 
2570.00, 
2571.00, 
2572.00, 
2573.00, 
2574.00, 
2575.00, 
2576.00, 
2577.00, 
2578.00, 
2579.00, 
2580.00, 
2581.00, 
2582.00, 
2583.00, 
2584.00, 
2585.00, 
2586.00, 
2587.00, 
2588.00, 
2589.00, 
2590.00, 
2591.00, 
2592.00, 
2593.00, 
2594.00, 
2595.00, 
2596.00, 
2597.00, 
2598.00, 
2599.00, 
2600.00, 
