"1cP1 - RawData"
"Wavelength nm.","T%"
200.00,0.003
201.00,0.002
202.00,0.002
203.00,0.002
204.00,-0.001
205.00,0.001
206.00,-0.002
207.00,0.000
208.00,0.002
209.00,-0.000
210.00,0.001
211.00,0.002
212.00,0.000
213.00,0.002
214.00,0.001
215.00,0.000
216.00,0.002
217.00,-0.002
218.00,-0.000
219.00,0.001
220.00,0.003
221.00,0.004
222.00,-0.001
223.00,0.001
224.00,0.002
225.00,0.002
226.00,0.000
227.00,0.002
228.00,0.003
229.00,0.001
230.00,0.000
231.00,0.002
232.00,0.002
233.00,-0.001
234.00,0.001
235.00,0.002
236.00,0.000
237.00,0.001
238.00,0.003
239.00,-0.001
240.00,0.001
241.00,0.000
242.00,-0.001
243.00,0.001
244.00,0.001
245.00,-0.000
246.00,0.001
247.00,0.003
248.00,0.001
249.00,0.000
250.00,0.001
251.00,0.001
252.00,0.001
253.00,0.001
254.00,0.000
255.00,0.001
256.00,0.001
257.00,0.000
258.00,-0.000
259.00,0.002
260.00,0.001
261.00,-0.000
262.00,0.001
263.00,0.001
264.00,0.002
265.00,0.000
266.00,0.001
267.00,0.000
268.00,-0.001
269.00,0.000
270.00,-0.000
271.00,-0.000
272.00,0.001
273.00,0.000
274.00,0.000
275.00,-0.001
276.00,0.000
277.00,0.001
278.00,0.001
279.00,-0.001
280.00,0.000
281.00,-0.000
282.00,0.001
283.00,0.001
284.00,-0.000
285.00,0.001
286.00,0.000
287.00,-0.000
288.00,0.001
289.00,0.000
290.00,0.004
291.00,0.001
292.00,0.000
293.00,0.001
294.00,-0.001
295.00,-0.001
296.00,0.000
297.00,-0.001
298.00,-0.000
299.00,-0.000
300.00,0.001
301.00,0.000
302.00,0.002
303.00,-0.000
304.00,-0.000
305.00,0.002
306.00,0.003
307.00,0.000
308.00,0.002
309.00,0.008
310.00,0.012
311.00,0.017
312.00,0.028
313.00,0.040
314.00,0.062
315.00,0.086
316.00,0.125
317.00,0.173
318.00,0.239
319.00,0.314
320.00,0.418
321.00,0.536
322.00,0.694
323.00,0.877
324.00,1.086
325.00,1.292
326.00,1.539
327.00,1.833
328.00,2.131
329.00,2.427
330.00,2.784
331.00,3.150
332.00,3.526
333.00,3.923
334.00,4.325
335.00,4.755
336.00,5.157
337.00,5.593
338.00,6.030
339.00,6.409
340.00,6.823
341.00,7.243
342.00,7.615
343.00,7.982
344.00,8.354
345.00,8.720
346.00,8.992
347.00,9.294
348.00,9.587
349.00,9.832
350.00,10.105
351.00,10.332
352.00,10.546
353.00,10.732
354.00,10.929
355.00,11.104
356.00,11.251
357.00,11.387
358.00,11.505
359.00,11.660
360.00,11.799
361.00,11.867
362.00,11.940
363.00,11.998
364.00,12.041
365.00,12.064
366.00,12.095
367.00,12.140
368.00,12.159
369.00,12.191
370.00,12.123
371.00,12.138
372.00,12.078
373.00,12.116
374.00,12.076
375.00,11.968
376.00,11.909
377.00,11.856
378.00,11.750
379.00,11.658
380.00,11.631
381.00,11.609
382.00,11.576
383.00,11.579
384.00,11.560
385.00,11.567
386.00,11.564
387.00,11.587
388.00,11.602
389.00,11.565
390.00,11.599
391.00,11.574
392.00,11.578
393.00,11.561
394.00,11.545
395.00,11.528
396.00,11.525
397.00,11.518
398.00,11.520
399.00,11.492
400.00,11.485
401.00,11.451
402.00,11.475
403.00,11.457
404.00,11.422
405.00,11.408
406.00,11.381
407.00,11.346
408.00,11.341
409.00,11.284
410.00,11.256
411.00,11.245
412.00,11.209
413.00,11.209
414.00,11.181
415.00,11.185
416.00,11.204
417.00,11.185
418.00,11.207
419.00,11.255
420.00,11.260
421.00,11.235
422.00,11.234
423.00,11.256
424.00,11.295
425.00,11.297
426.00,11.320
427.00,11.357
428.00,11.393
429.00,11.410
430.00,11.462
431.00,11.485
432.00,11.526
433.00,11.560
434.00,11.597
435.00,11.650
436.00,11.690
437.00,11.749
438.00,11.812
439.00,11.864
440.00,11.926
441.00,12.003
442.00,12.039
443.00,12.103
444.00,12.173
445.00,12.239
446.00,12.325
447.00,12.391
448.00,12.476
449.00,12.584
450.00,12.662
451.00,12.715
452.00,12.822
453.00,12.922
454.00,13.010
455.00,13.142
456.00,13.212
457.00,13.318
458.00,13.414
459.00,13.525
460.00,13.660
461.00,13.753
462.00,13.861
463.00,14.012
464.00,14.105
465.00,14.229
466.00,14.352
467.00,14.494
468.00,14.586
469.00,14.684
470.00,14.786
471.00,14.882
472.00,14.997
473.00,15.103
474.00,15.209
475.00,15.318
476.00,15.445
477.00,15.581
478.00,15.694
479.00,15.864
480.00,15.981
481.00,16.112
482.00,16.249
483.00,16.367
484.00,16.524
485.00,16.700
486.00,16.828
487.00,16.976
488.00,17.122
489.00,17.271
490.00,17.419
491.00,17.547
492.00,17.697
493.00,17.936
494.00,18.060
495.00,18.114
496.00,18.266
497.00,18.377
498.00,18.538
499.00,18.700
500.00,18.773
501.00,18.909
502.00,19.108
503.00,19.207
504.00,19.331
505.00,19.513
506.00,19.641
507.00,19.729
508.00,19.883
509.00,20.066
510.00,20.189
511.00,20.270
512.00,20.489
513.00,20.603
514.00,20.702
515.00,20.882
516.00,21.009
517.00,21.117
518.00,21.291
519.00,21.374
520.00,21.442
521.00,21.579
522.00,21.684
523.00,21.747
524.00,21.852
525.00,22.011
526.00,22.120
527.00,22.184
528.00,22.301
529.00,22.485
530.00,22.642
531.00,22.755
532.00,22.840
533.00,22.956
534.00,23.052
535.00,23.132
536.00,23.284
537.00,23.319
538.00,23.452
539.00,23.525
540.00,23.604
541.00,23.709
542.00,23.764
543.00,23.829
544.00,23.952
545.00,24.024
546.00,24.078
547.00,24.244
548.00,24.328
549.00,24.377
550.00,24.454
551.00,24.593
552.00,24.674
553.00,24.736
554.00,24.821
555.00,24.897
556.00,24.936
557.00,25.042
558.00,25.114
559.00,25.143
560.00,25.233
561.00,25.340
562.00,25.398
563.00,25.471
564.00,25.533
565.00,25.551
566.00,25.569
567.00,25.707
568.00,25.650
569.00,25.844
570.00,25.856
571.00,25.924
572.00,25.970
573.00,25.953
574.00,26.033
575.00,26.056
576.00,26.070
577.00,26.118
578.00,26.242
579.00,26.302
580.00,26.284
581.00,26.510
582.00,26.539
583.00,26.586
584.00,26.638
585.00,26.739
586.00,26.788
587.00,26.857
588.00,26.912
589.00,26.854
590.00,26.982
591.00,27.047
592.00,27.035
593.00,27.152
594.00,27.227
595.00,27.260
596.00,27.294
597.00,27.425
598.00,27.520
599.00,27.551
600.00,27.630
601.00,27.701
602.00,27.702
603.00,27.741
604.00,27.800
605.00,27.844
606.00,27.968
607.00,28.068
608.00,28.089
609.00,28.075
610.00,28.178
611.00,28.403
612.00,28.274
613.00,28.341
614.00,28.430
615.00,28.520
616.00,28.616
617.00,28.645
618.00,28.670
619.00,28.783
620.00,28.793
621.00,28.872
622.00,28.934
623.00,29.041
624.00,29.175
625.00,29.261
626.00,29.327
627.00,29.403
628.00,29.475
629.00,29.510
630.00,29.603
631.00,29.702
632.00,29.798
633.00,29.900
634.00,30.020
635.00,30.082
636.00,30.213
637.00,30.289
638.00,30.372
639.00,30.468
640.00,30.551
641.00,30.635
642.00,30.770
643.00,30.814
644.00,30.981
645.00,31.064
646.00,31.180
647.00,31.316
648.00,31.422
649.00,31.451
650.00,31.582
651.00,31.736
652.00,31.872
653.00,31.876
654.00,32.103
655.00,32.164
656.00,32.524
657.00,32.548
658.00,32.640
659.00,32.765
660.00,32.909
661.00,32.982
662.00,33.111
663.00,33.249
664.00,33.504
665.00,33.658
666.00,33.658
667.00,33.855
668.00,33.905
669.00,34.131
670.00,34.386
671.00,34.367
672.00,34.492
673.00,34.688
674.00,34.894
675.00,34.962
676.00,35.166
677.00,35.396
678.00,35.291
679.00,35.449
680.00,35.692
681.00,35.916
682.00,35.944
683.00,36.101
684.00,36.330
685.00,36.487
686.00,36.499
687.00,36.650
688.00,36.780
689.00,36.819
690.00,37.177
691.00,37.382
692.00,37.300
693.00,37.377
694.00,37.476
695.00,37.819
696.00,38.083
697.00,38.084
698.00,38.202
699.00,38.468
700.00,38.685
701.00,38.635
702.00,38.858
703.00,39.176
704.00,39.245
705.00,39.272
706.00,39.402
707.00,39.494
708.00,39.538
709.00,39.977
710.00,40.366
711.00,40.061
712.00,40.168
713.00,40.328
714.00,40.364
715.00,40.441
716.00,40.756
717.00,40.699
718.00,40.842
719.00,40.958
720.00,40.996
721.00,44.797
722.00,44.973
723.00,44.954
724.00,45.076
725.00,45.066
726.00,45.215
727.00,45.297
728.00,45.387
729.00,45.484
730.00,45.612
731.00,45.688
732.00,45.761
733.00,45.853
734.00,45.981
735.00,46.068
736.00,46.184
737.00,46.247
738.00,46.304
739.00,46.418
740.00,46.526
741.00,46.549
742.00,46.661
743.00,46.700
744.00,46.814
745.00,46.856
746.00,46.904
747.00,47.004
748.00,46.990
749.00,47.075
750.00,47.102
751.00,47.190
752.00,47.203
753.00,47.288
754.00,47.363
755.00,47.365
756.00,47.443
757.00,47.475
758.00,47.519
759.00,47.539
760.00,47.740
761.00,47.714
762.00,47.793
763.00,47.895
764.00,47.863
765.00,47.911
766.00,48.022
767.00,48.046
768.00,48.117
769.00,48.131
770.00,48.219
771.00,48.269
772.00,48.364
773.00,48.370
774.00,48.414
775.00,48.480
776.00,48.441
777.00,48.522
778.00,48.537
779.00,48.587
780.00,48.634
781.00,48.692
782.00,48.699
783.00,48.665
784.00,48.733
785.00,48.743
786.00,48.782
787.00,48.786
788.00,48.818
789.00,48.815
790.00,48.780
791.00,49.008
792.00,48.893
793.00,48.841
794.00,48.908
795.00,48.990
796.00,48.960
797.00,48.937
798.00,49.001
799.00,48.962
800.00,48.974
801.00,49.040
802.00,48.967
803.00,49.045
804.00,48.980
805.00,49.150
806.00,48.977
807.00,49.006
808.00,49.021
809.00,49.099
810.00,49.103
811.00,49.070
812.00,49.106
813.00,49.086
814.00,49.121
815.00,49.079
816.00,49.127
817.00,49.140
818.00,49.076
819.00,49.138
820.00,49.122
821.00,49.089
822.00,49.072
823.00,49.075
824.00,49.143
825.00,49.094
826.00,49.177
827.00,49.132
828.00,49.141
829.00,49.094
830.00,49.164
831.00,51.473
832.00,51.510
833.00,51.458
834.00,51.443
835.00,51.454
836.00,51.474
837.00,51.472
838.00,51.466
839.00,51.424
840.00,51.444
841.00,51.464
842.00,51.428
843.00,51.408
844.00,51.527
845.00,51.344
846.00,51.431
847.00,51.380
848.00,51.427
849.00,51.299
850.00,51.334
851.00,51.310
852.00,51.331
853.00,51.262
854.00,51.237
855.00,51.206
856.00,51.247
857.00,51.212
858.00,51.194
859.00,51.193
860.00,51.189
861.00,51.241
862.00,51.149
863.00,51.202
864.00,51.154
865.00,51.159
866.00,51.158
867.00,51.180
868.00,51.146
869.00,51.068
870.00,51.263
871.00,51.150
872.00,51.150
873.00,51.107
874.00,51.181
875.00,51.113
876.00,51.159
877.00,51.103
878.00,51.161
879.00,51.096
880.00,51.122
881.00,51.063
882.00,51.134
883.00,51.043
884.00,51.027
885.00,51.044
886.00,51.042
887.00,50.983
888.00,50.955
889.00,50.966
890.00,50.965
891.00,50.952
892.00,50.924
893.00,50.909
894.00,50.938
895.00,50.909
896.00,50.902
897.00,50.871
898.00,50.851
899.00,50.847
900.00,50.828
901.00,50.823
902.00,50.835
903.00,50.807
904.00,50.779
905.00,50.789
906.00,50.790
907.00,50.774
908.00,50.715
909.00,50.733
910.00,50.689
911.00,50.714
912.00,50.703
913.00,50.657
914.00,50.628
915.00,50.632
916.00,50.608
917.00,50.597
918.00,50.577
919.00,50.547
920.00,50.519
921.00,50.536
922.00,50.524
923.00,50.534
924.00,50.440
925.00,50.494
926.00,50.463
927.00,50.477
928.00,50.418
929.00,50.459
930.00,50.395
931.00,50.384
932.00,50.322
933.00,50.372
934.00,50.353
935.00,50.310
936.00,50.273
937.00,50.286
938.00,50.284
939.00,50.291
940.00,50.237
941.00,50.239
942.00,50.224
943.00,50.209
944.00,50.176
945.00,50.194
946.00,50.203
947.00,50.146
948.00,50.130
949.00,50.094
950.00,50.096
951.00,50.069
952.00,50.058
953.00,50.029
954.00,50.012
955.00,49.966
956.00,49.988
957.00,49.915
958.00,49.957
959.00,49.885
960.00,49.871
961.00,49.870
962.00,49.865
963.00,49.817
964.00,49.834
965.00,49.859
966.00,49.814
967.00,49.841
968.00,49.784
969.00,49.836
970.00,49.800
971.00,49.805
972.00,49.785
973.00,49.820
974.00,49.842
975.00,49.782
976.00,49.819
977.00,49.786
978.00,49.863
979.00,49.798
980.00,49.809
981.00,49.810
982.00,49.771
983.00,49.815
984.00,49.779
985.00,49.811
986.00,49.769
987.00,49.783
988.00,49.757
989.00,49.757
990.00,49.756
991.00,49.734
992.00,49.766
993.00,49.713
994.00,49.694
995.00,49.699
996.00,49.666
997.00,49.665
998.00,49.630
999.00,49.663
1000.00,49.634
1001.00,49.629
1002.00,49.699
1003.00,49.614
1004.00,49.602
1005.00,49.579
1006.00,49.635
1007.00,49.578
1008.00,49.576
1009.00,49.550
1010.00,49.537
1011.00,49.549
1012.00,49.511
1013.00,49.521
1014.00,49.473
1015.00,49.490
1016.00,49.460
1017.00,49.462
1018.00,49.460
1019.00,49.420
1020.00,49.425
1021.00,49.391
1022.00,49.399
1023.00,49.331
1024.00,49.354
1025.00,49.336
1026.00,49.308
1027.00,49.297
1028.00,49.295
1029.00,49.288
1030.00,49.248
1031.00,49.262
1032.00,49.245
1033.00,49.237
1034.00,49.190
1035.00,49.157
1036.00,49.146
1037.00,49.118
1038.00,49.127
1039.00,49.091
1040.00,49.088
1041.00,49.062
1042.00,49.066
1043.00,49.048
1044.00,49.070
1045.00,49.053
1046.00,49.054
1047.00,49.084
1048.00,49.063
1049.00,49.098
1050.00,49.087
1051.00,49.132
1052.00,49.119
1053.00,49.120
1054.00,49.108
1055.00,49.143
1056.00,49.154
1057.00,49.151
1058.00,49.135
1059.00,49.131
1060.00,49.159
1061.00,49.133
1062.00,49.113
1063.00,49.128
1064.00,49.120
1065.00,49.078
1066.00,49.105
1067.00,49.079
1068.00,49.123
1069.00,49.070
1070.00,49.058
1071.00,49.052
1072.00,49.073
1073.00,49.038
1074.00,49.030
1075.00,49.029
1076.00,49.017
1077.00,49.009
1078.00,48.988
1079.00,48.993
1080.00,48.998
1081.00,48.962
1082.00,48.953
1083.00,48.960
1084.00,48.959
1085.00,48.969
1086.00,48.947
1087.00,48.951
1088.00,48.920
1089.00,48.910
1090.00,48.908
1091.00,48.922
1092.00,48.894
1093.00,48.925
1094.00,48.874
1095.00,48.874
1096.00,48.859
1097.00,48.864
1098.00,48.845
1099.00,48.845
1100.00,48.818
1101.00,48.827
1102.00,48.795
1103.00,48.806
1104.00,48.803
1105.00,48.806
1106.00,48.782
1107.00,48.794
1108.00,48.800
1109.00,48.766
1110.00,48.751
1111.00,48.747
1112.00,48.728
1113.00,48.729
1114.00,48.706
1115.00,48.729
1116.00,48.704
1117.00,48.694
1118.00,48.695
1119.00,48.701
1120.00,48.680
1121.00,48.692
1122.00,48.672
1123.00,48.672
1124.00,48.668
1125.00,48.657
1126.00,48.648
1127.00,48.653
1128.00,48.617
1129.00,48.626
1130.00,48.609
1131.00,48.621
1132.00,48.618
1133.00,48.613
1134.00,48.596
1135.00,48.607
1136.00,48.582
1137.00,48.598
1138.00,48.587
1139.00,48.591
1140.00,48.578
1141.00,48.582
1142.00,48.568
1143.00,48.602
1144.00,48.552
1145.00,48.570
1146.00,48.572
1147.00,48.554
1148.00,48.557
1149.00,48.570
1150.00,48.551
1151.00,48.549
1152.00,48.537
1153.00,48.551
1154.00,48.539
1155.00,48.514
1156.00,48.513
1157.00,48.542
1158.00,48.526
1159.00,48.532
1160.00,48.529
1161.00,48.517
1162.00,48.530
1163.00,48.520
1164.00,48.527
1165.00,48.515
1166.00,48.521
1167.00,48.508
1168.00,48.534
1169.00,48.505
1170.00,48.505
1171.00,48.488
1172.00,48.482
1173.00,48.496
1174.00,48.511
1175.00,48.502
1176.00,48.511
1177.00,48.489
1178.00,48.496
1179.00,48.502
1180.00,48.474
1181.00,48.520
1182.00,48.493
1183.00,48.495
1184.00,48.500
1185.00,48.509
1186.00,48.487
1187.00,48.493
1188.00,48.501
1189.00,48.475
1190.00,48.475
1191.00,48.458
1192.00,48.521
1193.00,48.497
1194.00,48.486
1195.00,48.477
1196.00,48.503
1197.00,48.502
1198.00,48.486
1199.00,48.479
1200.00,48.490
1201.00,48.509
1202.00,48.477
1203.00,48.491
1204.00,48.481
1205.00,48.490
1206.00,48.493
1207.00,48.472
1208.00,48.462
1209.00,48.491
1210.00,48.494
1211.00,48.496
1212.00,48.526
1213.00,48.474
1214.00,48.522
1215.00,48.501
1216.00,48.502
1217.00,48.506
1218.00,48.480
1219.00,48.502
1220.00,48.491
1221.00,48.513
1222.00,48.496
1223.00,48.519
1224.00,48.502
1225.00,48.497
1226.00,48.506
1227.00,48.496
1228.00,48.526
1229.00,48.504
1230.00,48.531
1231.00,48.532
1232.00,48.550
1233.00,48.566
1234.00,48.566
1235.00,48.557
1236.00,48.554
1237.00,48.570
1238.00,48.549
1239.00,48.580
1240.00,48.557
1241.00,48.566
1242.00,48.580
1243.00,48.577
1244.00,48.569
1245.00,48.602
1246.00,48.602
1247.00,48.608
1248.00,48.609
1249.00,48.623
1250.00,48.630
1251.00,48.601
1252.00,48.604
1253.00,48.604
1254.00,48.637
1255.00,48.626
1256.00,48.626
1257.00,48.599
1258.00,48.647
1259.00,48.627
1260.00,48.649
1261.00,48.656
1262.00,48.635
1263.00,48.633
1264.00,48.648
1265.00,48.649
1266.00,48.654
1267.00,48.679
1268.00,48.660
1269.00,48.682
1270.00,48.703
1271.00,48.692
1272.00,48.711
1273.00,48.736
1274.00,48.730
1275.00,48.762
1276.00,48.722
1277.00,48.729
1278.00,48.741
1279.00,48.733
1280.00,48.739
1281.00,48.753
1282.00,48.753
1283.00,48.754
1284.00,48.764
1285.00,48.758
1286.00,48.786
1287.00,48.768
1288.00,48.780
1289.00,48.782
1290.00,48.797
1291.00,48.795
1292.00,48.790
1293.00,48.795
1294.00,48.825
1295.00,48.818
1296.00,48.825
1297.00,48.837
1298.00,48.871
1299.00,48.841
1300.00,48.871
1301.00,48.850
1302.00,48.889
1303.00,48.888
1304.00,48.875
1305.00,48.923
1306.00,48.919
1307.00,48.919
1308.00,48.929
1309.00,48.922
1310.00,48.918
1311.00,48.915
1312.00,48.911
1313.00,48.942
1314.00,48.948
1315.00,48.960
1316.00,48.965
1317.00,48.990
1318.00,48.974
1319.00,49.007
1320.00,48.991
1321.00,49.155
1322.00,49.167
1323.00,49.151
1324.00,49.142
1325.00,49.139
1326.00,49.158
1327.00,49.154
1328.00,49.144
1329.00,49.128
1330.00,49.161
1331.00,49.119
1332.00,49.129
1333.00,49.150
1334.00,49.205
1335.00,49.178
1336.00,49.245
1337.00,49.251
1338.00,49.343
1339.00,49.371
1340.00,49.436
1341.00,49.508
1342.00,49.557
1343.00,49.601
1344.00,49.659
1345.00,49.692
1346.00,49.754
1347.00,49.784
1348.00,49.823
1349.00,49.828
1350.00,49.846
1351.00,49.850
1352.00,49.876
1353.00,49.872
1354.00,49.885
1355.00,49.849
1356.00,49.918
1357.00,49.904
1358.00,49.937
1359.00,49.915
1360.00,49.921
1361.00,49.957
1362.00,49.918
1363.00,49.996
1364.00,49.921
1365.00,49.924
1366.00,50.023
1367.00,49.956
1368.00,49.924
1369.00,49.989
1370.00,49.912
1371.00,50.006
1372.00,49.992
1373.00,49.937
1374.00,49.968
1375.00,49.932
1376.00,49.929
1377.00,49.919
1378.00,49.994
1379.00,49.951
1380.00,49.970
1381.00,49.954
1382.00,49.858
1383.00,49.949
1384.00,49.884
1385.00,49.938
1386.00,49.959
1387.00,49.943
1388.00,49.856
1389.00,49.924
1390.00,49.961
1391.00,49.927
1392.00,49.915
1393.00,49.905
1394.00,49.905
1395.00,49.901
1396.00,49.867
1397.00,49.930
1398.00,49.932
1399.00,49.921
1400.00,49.919
1401.00,49.911
1402.00,49.941
1403.00,49.927
1404.00,49.962
1405.00,49.972
1406.00,49.994
1407.00,49.987
1408.00,49.987
1409.00,49.959
1410.00,50.019
1411.00,49.987
1412.00,50.089
1413.00,50.035
1414.00,50.024
1415.00,50.059
1416.00,50.069
1417.00,50.090
1418.00,50.069
1419.00,50.074
1420.00,50.105
1421.00,50.179
1422.00,50.157
1423.00,50.193
1424.00,50.183
1425.00,50.214
1426.00,50.214
1427.00,50.234
1428.00,50.222
1429.00,50.247
1430.00,50.253
1431.00,50.279
1432.00,50.306
1433.00,50.311
1434.00,50.305
1435.00,50.390
1436.00,50.371
1437.00,50.369
1438.00,50.385
1439.00,50.431
1440.00,50.449
1441.00,50.433
1442.00,50.466
1443.00,50.501
1444.00,50.549
1445.00,50.508
1446.00,50.537
1447.00,50.556
1448.00,50.609
1449.00,50.596
1450.00,50.599
1451.00,50.627
1452.00,50.656
1453.00,50.648
1454.00,50.674
1455.00,50.685
1456.00,50.727
1457.00,50.702
1458.00,50.737
1459.00,50.768
1460.00,50.776
1461.00,50.757
1462.00,50.819
1463.00,50.799
1464.00,50.819
1465.00,50.856
1466.00,50.859
1467.00,50.889
1468.00,50.943
1469.00,50.917
1470.00,50.950
1471.00,50.954
1472.00,50.970
1473.00,50.995
1474.00,51.006
1475.00,51.021
1476.00,51.046
1477.00,51.015
1478.00,51.057
1479.00,51.074
1480.00,51.060
1481.00,51.085
1482.00,51.124
1483.00,51.120
1484.00,51.157
1485.00,51.150
1486.00,51.171
1487.00,51.197
1488.00,51.194
1489.00,51.206
1490.00,51.233
1491.00,51.231
1492.00,51.267
1493.00,51.251
1494.00,51.293
1495.00,51.282
1496.00,51.301
1497.00,51.272
1498.00,51.307
1499.00,51.316
1500.00,51.345
1501.00, 
1502.00, 
1503.00, 
1504.00, 
1505.00, 
1506.00, 
1507.00, 
1508.00, 
1509.00, 
1510.00, 
1511.00, 
1512.00, 
1513.00, 
1514.00, 
1515.00, 
1516.00, 
1517.00, 
1518.00, 
1519.00, 
1520.00, 
1521.00, 
1522.00, 
1523.00, 
1524.00, 
1525.00, 
1526.00, 
1527.00, 
1528.00, 
1529.00, 
1530.00, 
1531.00, 
1532.00, 
1533.00, 
1534.00, 
1535.00, 
1536.00, 
1537.00, 
1538.00, 
1539.00, 
1540.00, 
1541.00, 
1542.00, 
1543.00, 
1544.00, 
1545.00, 
1546.00, 
1547.00, 
1548.00, 
1549.00, 
1550.00, 
1551.00, 
1552.00, 
1553.00, 
1554.00, 
1555.00, 
1556.00, 
1557.00, 
1558.00, 
1559.00, 
1560.00, 
1561.00, 
1562.00, 
1563.00, 
1564.00, 
1565.00, 
1566.00, 
1567.00, 
1568.00, 
1569.00, 
1570.00, 
1571.00, 
1572.00, 
1573.00, 
1574.00, 
1575.00, 
1576.00, 
1577.00, 
1578.00, 
1579.00, 
1580.00, 
1581.00, 
1582.00, 
1583.00, 
1584.00, 
1585.00, 
1586.00, 
1587.00, 
1588.00, 
1589.00, 
1590.00, 
1591.00, 
1592.00, 
1593.00, 
1594.00, 
1595.00, 
1596.00, 
1597.00, 
1598.00, 
1599.00, 
1600.00, 
1601.00, 
1602.00, 
1603.00, 
1604.00, 
1605.00, 
1606.00, 
1607.00, 
1608.00, 
1609.00, 
1610.00, 
1611.00, 
1612.00, 
1613.00, 
1614.00, 
1615.00, 
1616.00, 
1617.00, 
1618.00, 
1619.00, 
1620.00, 
1621.00, 
1622.00, 
1623.00, 
1624.00, 
1625.00, 
1626.00, 
1627.00, 
1628.00, 
1629.00, 
1630.00, 
1631.00, 
1632.00, 
1633.00, 
1634.00, 
1635.00, 
1636.00, 
1637.00, 
1638.00, 
1639.00, 
1640.00, 
1641.00, 
1642.00, 
1643.00, 
1644.00, 
1645.00, 
1646.00, 
1647.00, 
1648.00, 
1649.00, 
1650.00, 
1651.00, 
1652.00, 
1653.00, 
1654.00, 
1655.00, 
1656.00, 
1657.00, 
1658.00, 
1659.00, 
1660.00, 
1661.00, 
1662.00, 
1663.00, 
1664.00, 
1665.00, 
1666.00, 
1667.00, 
1668.00, 
1669.00, 
1670.00, 
1671.00, 
1672.00, 
1673.00, 
1674.00, 
1675.00, 
1676.00, 
1677.00, 
1678.00, 
1679.00, 
1680.00, 
1681.00, 
1682.00, 
1683.00, 
1684.00, 
1685.00, 
1686.00, 
1687.00, 
1688.00, 
1689.00, 
1690.00, 
1691.00, 
1692.00, 
1693.00, 
1694.00, 
1695.00, 
1696.00, 
1697.00, 
1698.00, 
1699.00, 
1700.00, 
1701.00, 
1702.00, 
1703.00, 
1704.00, 
1705.00, 
1706.00, 
1707.00, 
1708.00, 
1709.00, 
1710.00, 
1711.00, 
1712.00, 
1713.00, 
1714.00, 
1715.00, 
1716.00, 
1717.00, 
1718.00, 
1719.00, 
1720.00, 
1721.00, 
1722.00, 
1723.00, 
1724.00, 
1725.00, 
1726.00, 
1727.00, 
1728.00, 
1729.00, 
1730.00, 
1731.00, 
1732.00, 
1733.00, 
1734.00, 
1735.00, 
1736.00, 
1737.00, 
1738.00, 
1739.00, 
1740.00, 
1741.00, 
1742.00, 
1743.00, 
1744.00, 
1745.00, 
1746.00, 
1747.00, 
1748.00, 
1749.00, 
1750.00, 
1751.00, 
1752.00, 
1753.00, 
1754.00, 
1755.00, 
1756.00, 
1757.00, 
1758.00, 
1759.00, 
1760.00, 
1761.00, 
1762.00, 
1763.00, 
1764.00, 
1765.00, 
1766.00, 
1767.00, 
1768.00, 
1769.00, 
1770.00, 
1771.00, 
1772.00, 
1773.00, 
1774.00, 
1775.00, 
1776.00, 
1777.00, 
1778.00, 
1779.00, 
1780.00, 
1781.00, 
1782.00, 
1783.00, 
1784.00, 
1785.00, 
1786.00, 
1787.00, 
1788.00, 
1789.00, 
1790.00, 
1791.00, 
1792.00, 
1793.00, 
1794.00, 
1795.00, 
1796.00, 
1797.00, 
1798.00, 
1799.00, 
1800.00, 
1801.00, 
1802.00, 
1803.00, 
1804.00, 
1805.00, 
1806.00, 
1807.00, 
1808.00, 
1809.00, 
1810.00, 
1811.00, 
1812.00, 
1813.00, 
1814.00, 
1815.00, 
1816.00, 
1817.00, 
1818.00, 
1819.00, 
1820.00, 
1821.00, 
1822.00, 
1823.00, 
1824.00, 
1825.00, 
1826.00, 
1827.00, 
1828.00, 
1829.00, 
1830.00, 
1831.00, 
1832.00, 
1833.00, 
1834.00, 
1835.00, 
1836.00, 
1837.00, 
1838.00, 
1839.00, 
1840.00, 
1841.00, 
1842.00, 
1843.00, 
1844.00, 
1845.00, 
1846.00, 
1847.00, 
1848.00, 
1849.00, 
1850.00, 
1851.00, 
1852.00, 
1853.00, 
1854.00, 
1855.00, 
1856.00, 
1857.00, 
1858.00, 
1859.00, 
1860.00, 
1861.00, 
1862.00, 
1863.00, 
1864.00, 
1865.00, 
1866.00, 
1867.00, 
1868.00, 
1869.00, 
1870.00, 
1871.00, 
1872.00, 
1873.00, 
1874.00, 
1875.00, 
1876.00, 
1877.00, 
1878.00, 
1879.00, 
1880.00, 
1881.00, 
1882.00, 
1883.00, 
1884.00, 
1885.00, 
1886.00, 
1887.00, 
1888.00, 
1889.00, 
1890.00, 
1891.00, 
1892.00, 
1893.00, 
1894.00, 
1895.00, 
1896.00, 
1897.00, 
1898.00, 
1899.00, 
1900.00, 
1901.00, 
1902.00, 
1903.00, 
1904.00, 
1905.00, 
1906.00, 
1907.00, 
1908.00, 
1909.00, 
1910.00, 
1911.00, 
1912.00, 
1913.00, 
1914.00, 
1915.00, 
1916.00, 
1917.00, 
1918.00, 
1919.00, 
1920.00, 
1921.00, 
1922.00, 
1923.00, 
1924.00, 
1925.00, 
1926.00, 
1927.00, 
1928.00, 
1929.00, 
1930.00, 
1931.00, 
1932.00, 
1933.00, 
1934.00, 
1935.00, 
1936.00, 
1937.00, 
1938.00, 
1939.00, 
1940.00, 
1941.00, 
1942.00, 
1943.00, 
1944.00, 
1945.00, 
1946.00, 
1947.00, 
1948.00, 
1949.00, 
1950.00, 
1951.00, 
1952.00, 
1953.00, 
1954.00, 
1955.00, 
1956.00, 
1957.00, 
1958.00, 
1959.00, 
1960.00, 
1961.00, 
1962.00, 
1963.00, 
1964.00, 
1965.00, 
1966.00, 
1967.00, 
1968.00, 
1969.00, 
1970.00, 
1971.00, 
1972.00, 
1973.00, 
1974.00, 
1975.00, 
1976.00, 
1977.00, 
1978.00, 
1979.00, 
1980.00, 
1981.00, 
1982.00, 
1983.00, 
1984.00, 
1985.00, 
1986.00, 
1987.00, 
1988.00, 
1989.00, 
1990.00, 
1991.00, 
1992.00, 
1993.00, 
1994.00, 
1995.00, 
1996.00, 
1997.00, 
1998.00, 
1999.00, 
2000.00, 
2001.00, 
2002.00, 
2003.00, 
2004.00, 
2005.00, 
2006.00, 
2007.00, 
2008.00, 
2009.00, 
2010.00, 
2011.00, 
2012.00, 
2013.00, 
2014.00, 
2015.00, 
2016.00, 
2017.00, 
2018.00, 
2019.00, 
2020.00, 
2021.00, 
2022.00, 
2023.00, 
2024.00, 
2025.00, 
2026.00, 
2027.00, 
2028.00, 
2029.00, 
2030.00, 
2031.00, 
2032.00, 
2033.00, 
2034.00, 
2035.00, 
2036.00, 
2037.00, 
2038.00, 
2039.00, 
2040.00, 
2041.00, 
2042.00, 
2043.00, 
2044.00, 
2045.00, 
2046.00, 
2047.00, 
2048.00, 
2049.00, 
2050.00, 
2051.00, 
2052.00, 
2053.00, 
2054.00, 
2055.00, 
2056.00, 
2057.00, 
2058.00, 
2059.00, 
2060.00, 
2061.00, 
2062.00, 
2063.00, 
2064.00, 
2065.00, 
2066.00, 
2067.00, 
2068.00, 
2069.00, 
2070.00, 
2071.00, 
2072.00, 
2073.00, 
2074.00, 
2075.00, 
2076.00, 
2077.00, 
2078.00, 
2079.00, 
2080.00, 
2081.00, 
2082.00, 
2083.00, 
2084.00, 
2085.00, 
2086.00, 
2087.00, 
2088.00, 
2089.00, 
2090.00, 
2091.00, 
2092.00, 
2093.00, 
2094.00, 
2095.00, 
2096.00, 
2097.00, 
2098.00, 
2099.00, 
2100.00, 
2101.00, 
2102.00, 
2103.00, 
2104.00, 
2105.00, 
2106.00, 
2107.00, 
2108.00, 
2109.00, 
2110.00, 
2111.00, 
2112.00, 
2113.00, 
2114.00, 
2115.00, 
2116.00, 
2117.00, 
2118.00, 
2119.00, 
2120.00, 
2121.00, 
2122.00, 
2123.00, 
2124.00, 
2125.00, 
2126.00, 
2127.00, 
2128.00, 
2129.00, 
2130.00, 
2131.00, 
2132.00, 
2133.00, 
2134.00, 
2135.00, 
2136.00, 
2137.00, 
2138.00, 
2139.00, 
2140.00, 
2141.00, 
2142.00, 
2143.00, 
2144.00, 
2145.00, 
2146.00, 
2147.00, 
2148.00, 
2149.00, 
2150.00, 
2151.00, 
2152.00, 
2153.00, 
2154.00, 
2155.00, 
2156.00, 
2157.00, 
2158.00, 
2159.00, 
2160.00, 
2161.00, 
2162.00, 
2163.00, 
2164.00, 
2165.00, 
2166.00, 
2167.00, 
2168.00, 
2169.00, 
2170.00, 
2171.00, 
2172.00, 
2173.00, 
2174.00, 
2175.00, 
2176.00, 
2177.00, 
2178.00, 
2179.00, 
2180.00, 
2181.00, 
2182.00, 
2183.00, 
2184.00, 
2185.00, 
2186.00, 
2187.00, 
2188.00, 
2189.00, 
2190.00, 
2191.00, 
2192.00, 
2193.00, 
2194.00, 
2195.00, 
2196.00, 
2197.00, 
2198.00, 
2199.00, 
2200.00, 
2201.00, 
2202.00, 
2203.00, 
2204.00, 
2205.00, 
2206.00, 
2207.00, 
2208.00, 
2209.00, 
2210.00, 
2211.00, 
2212.00, 
2213.00, 
2214.00, 
2215.00, 
2216.00, 
2217.00, 
2218.00, 
2219.00, 
2220.00, 
2221.00, 
2222.00, 
2223.00, 
2224.00, 
2225.00, 
2226.00, 
2227.00, 
2228.00, 
2229.00, 
2230.00, 
2231.00, 
2232.00, 
2233.00, 
2234.00, 
2235.00, 
2236.00, 
2237.00, 
2238.00, 
2239.00, 
2240.00, 
2241.00, 
2242.00, 
2243.00, 
2244.00, 
2245.00, 
2246.00, 
2247.00, 
2248.00, 
2249.00, 
2250.00, 
2251.00, 
2252.00, 
2253.00, 
2254.00, 
2255.00, 
2256.00, 
2257.00, 
2258.00, 
2259.00, 
2260.00, 
2261.00, 
2262.00, 
2263.00, 
2264.00, 
2265.00, 
2266.00, 
2267.00, 
2268.00, 
2269.00, 
2270.00, 
2271.00, 
2272.00, 
2273.00, 
2274.00, 
2275.00, 
2276.00, 
2277.00, 
2278.00, 
2279.00, 
2280.00, 
2281.00, 
2282.00, 
2283.00, 
2284.00, 
2285.00, 
2286.00, 
2287.00, 
2288.00, 
2289.00, 
2290.00, 
2291.00, 
2292.00, 
2293.00, 
2294.00, 
2295.00, 
2296.00, 
2297.00, 
2298.00, 
2299.00, 
2300.00, 
2301.00, 
2302.00, 
2303.00, 
2304.00, 
2305.00, 
2306.00, 
2307.00, 
2308.00, 
2309.00, 
2310.00, 
2311.00, 
2312.00, 
2313.00, 
2314.00, 
2315.00, 
2316.00, 
2317.00, 
2318.00, 
2319.00, 
2320.00, 
2321.00, 
2322.00, 
2323.00, 
2324.00, 
2325.00, 
2326.00, 
2327.00, 
2328.00, 
2329.00, 
2330.00, 
2331.00, 
2332.00, 
2333.00, 
2334.00, 
2335.00, 
2336.00, 
2337.00, 
2338.00, 
2339.00, 
2340.00, 
2341.00, 
2342.00, 
2343.00, 
2344.00, 
2345.00, 
2346.00, 
2347.00, 
2348.00, 
2349.00, 
2350.00, 
2351.00, 
2352.00, 
2353.00, 
2354.00, 
2355.00, 
2356.00, 
2357.00, 
2358.00, 
2359.00, 
2360.00, 
2361.00, 
2362.00, 
2363.00, 
2364.00, 
2365.00, 
2366.00, 
2367.00, 
2368.00, 
2369.00, 
2370.00, 
2371.00, 
2372.00, 
2373.00, 
2374.00, 
2375.00, 
2376.00, 
2377.00, 
2378.00, 
2379.00, 
2380.00, 
2381.00, 
2382.00, 
2383.00, 
2384.00, 
2385.00, 
2386.00, 
2387.00, 
2388.00, 
2389.00, 
2390.00, 
2391.00, 
2392.00, 
2393.00, 
2394.00, 
2395.00, 
2396.00, 
2397.00, 
2398.00, 
2399.00, 
2400.00, 
2401.00, 
2402.00, 
2403.00, 
2404.00, 
2405.00, 
2406.00, 
2407.00, 
2408.00, 
2409.00, 
2410.00, 
2411.00, 
2412.00, 
2413.00, 
2414.00, 
2415.00, 
2416.00, 
2417.00, 
2418.00, 
2419.00, 
2420.00, 
2421.00, 
2422.00, 
2423.00, 
2424.00, 
2425.00, 
2426.00, 
2427.00, 
2428.00, 
2429.00, 
2430.00, 
2431.00, 
2432.00, 
2433.00, 
2434.00, 
2435.00, 
2436.00, 
2437.00, 
2438.00, 
2439.00, 
2440.00, 
2441.00, 
2442.00, 
2443.00, 
2444.00, 
2445.00, 
2446.00, 
2447.00, 
2448.00, 
2449.00, 
2450.00, 
2451.00, 
2452.00, 
2453.00, 
2454.00, 
2455.00, 
2456.00, 
2457.00, 
2458.00, 
2459.00, 
2460.00, 
2461.00, 
2462.00, 
2463.00, 
2464.00, 
2465.00, 
2466.00, 
2467.00, 
2468.00, 
2469.00, 
2470.00, 
2471.00, 
2472.00, 
2473.00, 
2474.00, 
2475.00, 
2476.00, 
2477.00, 
2478.00, 
2479.00, 
2480.00, 
2481.00, 
2482.00, 
2483.00, 
2484.00, 
2485.00, 
2486.00, 
2487.00, 
2488.00, 
2489.00, 
2490.00, 
2491.00, 
2492.00, 
2493.00, 
2494.00, 
2495.00, 
2496.00, 
2497.00, 
2498.00, 
2499.00, 
2500.00, 
2501.00, 
2502.00, 
2503.00, 
2504.00, 
2505.00, 
2506.00, 
2507.00, 
2508.00, 
2509.00, 
2510.00, 
2511.00, 
2512.00, 
2513.00, 
2514.00, 
2515.00, 
2516.00, 
2517.00, 
2518.00, 
2519.00, 
2520.00, 
2521.00, 
2522.00, 
2523.00, 
2524.00, 
2525.00, 
2526.00, 
2527.00, 
2528.00, 
2529.00, 
2530.00, 
2531.00, 
2532.00, 
2533.00, 
2534.00, 
2535.00, 
2536.00, 
2537.00, 
2538.00, 
2539.00, 
2540.00, 
2541.00, 
2542.00, 
2543.00, 
2544.00, 
2545.00, 
2546.00, 
2547.00, 
2548.00, 
2549.00, 
2550.00, 
2551.00, 
2552.00, 
2553.00, 
2554.00, 
2555.00, 
2556.00, 
2557.00, 
2558.00, 
2559.00, 
2560.00, 
2561.00, 
2562.00, 
2563.00, 
2564.00, 
2565.00, 
2566.00, 
2567.00, 
2568.00, 
2569.00, 
2570.00, 
2571.00, 
2572.00, 
2573.00, 
2574.00, 
2575.00, 
2576.00, 
2577.00, 
2578.00, 
2579.00, 
2580.00, 
2581.00, 
2582.00, 
2583.00, 
2584.00, 
2585.00, 
2586.00, 
2587.00, 
2588.00, 
2589.00, 
2590.00, 
2591.00, 
2592.00, 
2593.00, 
2594.00, 
2595.00, 
2596.00, 
2597.00, 
2598.00, 
2599.00, 
2600.00, 
