"1cP2 - RawData"
"Wavelength nm.","T%"
200.00,0.003
201.00,-0.001
202.00,0.002
203.00,0.003
204.00,0.002
205.00,0.002
206.00,0.003
207.00,0.002
208.00,0.001
209.00,0.001
210.00,0.002
211.00,-0.001
212.00,-0.001
213.00,0.000
214.00,0.002
215.00,0.001
216.00,-0.000
217.00,-0.001
218.00,0.001
219.00,-0.000
220.00,-0.001
221.00,-0.002
222.00,0.000
223.00,0.000
224.00,-0.000
225.00,-0.000
226.00,0.000
227.00,0.000
228.00,0.002
229.00,-0.000
230.00,0.001
231.00,-0.001
232.00,-0.000
233.00,-0.001
234.00,0.000
235.00,-0.000
236.00,0.001
237.00,0.000
238.00,-0.001
239.00,0.002
240.00,0.000
241.00,0.001
242.00,0.002
243.00,0.001
244.00,0.004
245.00,0.001
246.00,0.000
247.00,-0.000
248.00,-0.001
249.00,0.001
250.00,0.001
251.00,-0.000
252.00,0.001
253.00,0.001
254.00,0.000
255.00,0.002
256.00,0.001
257.00,0.001
258.00,0.001
259.00,-0.001
260.00,0.001
261.00,0.001
262.00,0.001
263.00,0.001
264.00,0.001
265.00,0.000
266.00,0.001
267.00,0.001
268.00,0.001
269.00,0.001
270.00,-0.001
271.00,-0.001
272.00,-0.000
273.00,0.001
274.00,-0.000
275.00,0.001
276.00,0.000
277.00,0.002
278.00,-0.001
279.00,-0.000
280.00,0.001
281.00,0.001
282.00,0.001
283.00,0.001
284.00,-0.000
285.00,0.001
286.00,0.000
287.00,0.001
288.00,-0.002
289.00,0.002
290.00,0.001
291.00,-0.001
292.00,0.001
293.00,0.001
294.00,0.000
295.00,-0.001
296.00,-0.001
297.00,-0.000
298.00,0.001
299.00,-0.000
300.00,0.000
301.00,-0.000
302.00,0.001
303.00,0.001
304.00,0.000
305.00,0.003
306.00,0.002
307.00,0.001
308.00,0.004
309.00,0.008
310.00,0.014
311.00,0.021
312.00,0.033
313.00,0.050
314.00,0.075
315.00,0.107
316.00,0.159
317.00,0.220
318.00,0.296
319.00,0.401
320.00,0.527
321.00,0.684
322.00,0.880
323.00,1.107
324.00,1.362
325.00,1.641
326.00,1.973
327.00,2.331
328.00,2.728
329.00,3.123
330.00,3.588
331.00,4.036
332.00,4.524
333.00,5.066
334.00,5.562
335.00,6.093
336.00,6.675
337.00,7.238
338.00,7.799
339.00,8.324
340.00,8.863
341.00,9.390
342.00,9.879
343.00,10.410
344.00,10.879
345.00,11.328
346.00,11.753
347.00,12.114
348.00,12.542
349.00,12.913
350.00,13.240
351.00,13.551
352.00,13.832
353.00,14.131
354.00,14.409
355.00,14.629
356.00,14.838
357.00,15.039
358.00,15.226
359.00,15.461
360.00,15.650
361.00,15.742
362.00,15.837
363.00,15.953
364.00,16.037
365.00,16.054
366.00,16.129
367.00,16.186
368.00,16.250
369.00,16.259
370.00,16.291
371.00,16.250
372.00,16.188
373.00,16.226
374.00,16.164
375.00,16.069
376.00,15.986
377.00,15.919
378.00,15.804
379.00,15.726
380.00,15.679
381.00,15.635
382.00,15.628
383.00,15.608
384.00,15.592
385.00,15.612
386.00,15.610
387.00,15.671
388.00,15.686
389.00,15.674
390.00,15.690
391.00,15.674
392.00,15.687
393.00,15.637
394.00,15.659
395.00,15.646
396.00,15.607
397.00,15.616
398.00,15.572
399.00,15.599
400.00,15.546
401.00,15.503
402.00,15.546
403.00,15.530
404.00,15.459
405.00,15.433
406.00,15.397
407.00,15.352
408.00,15.331
409.00,15.277
410.00,15.198
411.00,15.197
412.00,15.144
413.00,15.141
414.00,15.088
415.00,15.087
416.00,15.135
417.00,15.079
418.00,15.098
419.00,15.142
420.00,15.138
421.00,15.077
422.00,15.084
423.00,15.105
424.00,15.087
425.00,15.119
426.00,15.107
427.00,15.171
428.00,15.186
429.00,15.208
430.00,15.248
431.00,15.275
432.00,15.318
433.00,15.342
434.00,15.364
435.00,15.406
436.00,15.457
437.00,15.511
438.00,15.554
439.00,15.610
440.00,15.666
441.00,15.765
442.00,15.800
443.00,15.836
444.00,15.920
445.00,15.993
446.00,16.055
447.00,16.104
448.00,16.204
449.00,16.318
450.00,16.408
451.00,16.480
452.00,16.568
453.00,16.667
454.00,16.744
455.00,16.859
456.00,16.951
457.00,17.049
458.00,17.123
459.00,17.279
460.00,17.381
461.00,17.467
462.00,17.584
463.00,17.728
464.00,17.830
465.00,17.950
466.00,18.091
467.00,18.208
468.00,18.275
469.00,18.398
470.00,18.490
471.00,18.582
472.00,18.722
473.00,18.805
474.00,18.918
475.00,19.044
476.00,19.159
477.00,19.284
478.00,19.397
479.00,19.575
480.00,19.707
481.00,19.827
482.00,19.946
483.00,20.105
484.00,20.246
485.00,20.404
486.00,20.539
487.00,20.684
488.00,20.830
489.00,20.981
490.00,21.148
491.00,21.279
492.00,21.437
493.00,21.643
494.00,21.784
495.00,21.813
496.00,21.914
497.00,22.036
498.00,22.197
499.00,22.302
500.00,22.515
501.00,22.606
502.00,22.775
503.00,22.908
504.00,22.982
505.00,23.158
506.00,23.275
507.00,23.388
508.00,23.519
509.00,23.686
510.00,23.821
511.00,23.908
512.00,24.141
513.00,24.260
514.00,24.345
515.00,24.505
516.00,24.623
517.00,24.701
518.00,24.918
519.00,24.946
520.00,25.032
521.00,25.182
522.00,25.285
523.00,25.347
524.00,25.470
525.00,25.634
526.00,25.726
527.00,25.758
528.00,25.916
529.00,26.070
530.00,26.255
531.00,26.300
532.00,26.426
533.00,26.533
534.00,26.629
535.00,26.759
536.00,26.849
537.00,26.906
538.00,27.010
539.00,27.112
540.00,27.199
541.00,27.251
542.00,27.298
543.00,27.380
544.00,27.501
545.00,27.562
546.00,27.627
547.00,27.780
548.00,27.832
549.00,27.903
550.00,27.966
551.00,28.093
552.00,28.212
553.00,28.170
554.00,28.265
555.00,28.380
556.00,28.535
557.00,28.610
558.00,28.645
559.00,28.714
560.00,28.806
561.00,28.892
562.00,28.970
563.00,29.010
564.00,29.037
565.00,29.115
566.00,29.142
567.00,29.141
568.00,29.262
569.00,29.358
570.00,29.362
571.00,29.381
572.00,29.476
573.00,29.390
574.00,29.520
575.00,29.523
576.00,29.557
577.00,29.631
578.00,29.748
579.00,29.827
580.00,29.845
581.00,30.017
582.00,30.082
583.00,30.118
584.00,30.197
585.00,30.257
586.00,30.288
587.00,30.370
588.00,30.406
589.00,30.380
590.00,30.496
591.00,30.561
592.00,30.528
593.00,30.594
594.00,30.655
595.00,30.764
596.00,30.834
597.00,30.896
598.00,31.049
599.00,30.999
600.00,30.990
601.00,31.041
602.00,31.129
603.00,31.210
604.00,31.261
605.00,31.336
606.00,31.451
607.00,31.494
608.00,31.509
609.00,31.476
610.00,31.620
611.00,31.826
612.00,31.657
613.00,31.766
614.00,31.792
615.00,31.909
616.00,31.989
617.00,32.035
618.00,32.019
619.00,32.115
620.00,32.168
621.00,32.193
622.00,32.277
623.00,32.399
624.00,32.456
625.00,32.561
626.00,32.603
627.00,32.671
628.00,32.577
629.00,32.773
630.00,32.909
631.00,32.926
632.00,33.033
633.00,33.119
634.00,33.276
635.00,33.312
636.00,33.403
637.00,33.456
638.00,33.517
639.00,33.619
640.00,33.745
641.00,33.799
642.00,33.876
643.00,33.928
644.00,34.130
645.00,34.155
646.00,34.383
647.00,34.438
648.00,34.456
649.00,34.538
650.00,34.628
651.00,34.832
652.00,34.973
653.00,34.909
654.00,35.046
655.00,35.294
656.00,35.500
657.00,35.397
658.00,35.458
659.00,35.513
660.00,35.652
661.00,35.806
662.00,35.913
663.00,36.067
664.00,36.326
665.00,36.480
666.00,36.555
667.00,36.614
668.00,36.677
669.00,36.892
670.00,37.108
671.00,37.091
672.00,37.215
673.00,37.407
674.00,37.548
675.00,37.603
676.00,37.826
677.00,37.974
678.00,37.771
679.00,38.048
680.00,38.151
681.00,38.364
682.00,38.423
683.00,38.490
684.00,38.730
685.00,38.874
686.00,38.852
687.00,39.036
688.00,39.013
689.00,39.089
690.00,39.413
691.00,39.669
692.00,39.556
693.00,39.598
694.00,39.640
695.00,39.969
696.00,40.119
697.00,40.090
698.00,40.172
699.00,40.512
700.00,40.753
701.00,40.733
702.00,40.856
703.00,41.104
704.00,41.124
705.00,41.105
706.00,41.272
707.00,41.388
708.00,41.305
709.00,41.777
710.00,42.133
711.00,41.764
712.00,41.852
713.00,42.052
714.00,42.188
715.00,42.179
716.00,42.370
717.00,42.378
718.00,42.587
719.00,42.683
720.00,42.652
721.00,47.069
722.00,47.201
723.00,47.152
724.00,47.269
725.00,47.245
726.00,47.384
727.00,47.437
728.00,47.530
729.00,47.553
730.00,47.716
731.00,47.666
732.00,47.791
733.00,47.789
734.00,47.865
735.00,47.999
736.00,48.085
737.00,48.127
738.00,48.216
739.00,48.257
740.00,48.305
741.00,48.434
742.00,48.492
743.00,48.386
744.00,48.481
745.00,48.568
746.00,48.575
747.00,48.653
748.00,48.630
749.00,48.761
750.00,48.777
751.00,48.821
752.00,48.807
753.00,48.846
754.00,48.880
755.00,48.944
756.00,48.991
757.00,49.002
758.00,49.069
759.00,49.099
760.00,49.124
761.00,49.138
762.00,49.198
763.00,49.253
764.00,49.265
765.00,49.295
766.00,49.307
767.00,49.352
768.00,49.371
769.00,49.471
770.00,49.445
771.00,49.517
772.00,49.549
773.00,49.597
774.00,49.547
775.00,49.652
776.00,49.613
777.00,49.707
778.00,49.736
779.00,49.678
780.00,49.754
781.00,49.756
782.00,49.797
783.00,49.820
784.00,49.853
785.00,49.810
786.00,49.886
787.00,49.812
788.00,49.892
789.00,49.814
790.00,49.781
791.00,49.961
792.00,49.841
793.00,49.813
794.00,49.876
795.00,49.962
796.00,49.927
797.00,49.840
798.00,49.925
799.00,49.869
800.00,49.896
801.00,49.955
802.00,49.876
803.00,49.900
804.00,49.819
805.00,49.952
806.00,49.882
807.00,49.928
808.00,49.898
809.00,49.921
810.00,49.908
811.00,49.900
812.00,49.877
813.00,49.929
814.00,49.893
815.00,49.874
816.00,49.868
817.00,49.874
818.00,49.794
819.00,49.916
820.00,49.871
821.00,49.806
822.00,49.786
823.00,49.796
824.00,49.843
825.00,49.669
826.00,49.809
827.00,49.816
828.00,49.891
829.00,49.886
830.00,49.858
831.00,52.217
832.00,52.245
833.00,52.168
834.00,52.193
835.00,52.178
836.00,52.202
837.00,52.147
838.00,52.131
839.00,52.127
840.00,52.096
841.00,52.126
842.00,52.098
843.00,52.117
844.00,52.133
845.00,52.035
846.00,52.088
847.00,52.048
848.00,52.083
849.00,51.960
850.00,51.970
851.00,51.924
852.00,51.973
853.00,51.869
854.00,51.889
855.00,51.817
856.00,51.841
857.00,51.854
858.00,51.796
859.00,51.795
860.00,51.798
861.00,51.814
862.00,51.729
863.00,51.801
864.00,51.759
865.00,51.768
866.00,51.742
867.00,51.753
868.00,51.731
869.00,51.657
870.00,51.752
871.00,51.694
872.00,51.726
873.00,51.676
874.00,51.731
875.00,51.573
876.00,51.781
877.00,51.634
878.00,51.677
879.00,51.636
880.00,51.634
881.00,51.579
882.00,51.635
883.00,51.589
884.00,51.522
885.00,51.527
886.00,51.536
887.00,51.503
888.00,51.454
889.00,51.471
890.00,51.488
891.00,51.459
892.00,51.448
893.00,51.399
894.00,51.431
895.00,51.395
896.00,51.381
897.00,51.364
898.00,51.336
899.00,51.369
900.00,51.325
901.00,51.305
902.00,51.327
903.00,51.290
904.00,51.277
905.00,51.270
906.00,51.261
907.00,51.240
908.00,51.189
909.00,51.203
910.00,51.149
911.00,51.172
912.00,51.144
913.00,51.109
914.00,51.078
915.00,51.089
916.00,51.060
917.00,51.035
918.00,51.026
919.00,51.018
920.00,50.956
921.00,50.974
922.00,50.964
923.00,50.961
924.00,50.905
925.00,50.928
926.00,50.890
927.00,50.871
928.00,50.818
929.00,50.870
930.00,50.806
931.00,50.814
932.00,50.738
933.00,50.797
934.00,50.794
935.00,50.742
936.00,50.724
937.00,50.717
938.00,50.708
939.00,50.698
940.00,50.649
941.00,50.646
942.00,50.633
943.00,50.625
944.00,50.581
945.00,50.570
946.00,50.665
947.00,50.528
948.00,50.529
949.00,50.501
950.00,50.499
951.00,50.461
952.00,50.460
953.00,50.413
954.00,50.396
955.00,50.339
956.00,50.353
957.00,50.302
958.00,50.325
959.00,50.266
960.00,50.266
961.00,50.307
962.00,50.253
963.00,50.200
964.00,50.201
965.00,50.225
966.00,50.192
967.00,50.212
968.00,50.166
969.00,50.208
970.00,50.171
971.00,50.181
972.00,50.150
973.00,50.202
974.00,50.217
975.00,50.153
976.00,50.201
977.00,50.165
978.00,50.222
979.00,50.162
980.00,50.178
981.00,50.199
982.00,50.146
983.00,50.182
984.00,50.142
985.00,50.177
986.00,50.131
987.00,50.163
988.00,50.115
989.00,50.106
990.00,50.113
991.00,50.087
992.00,50.108
993.00,50.055
994.00,50.042
995.00,50.051
996.00,50.023
997.00,50.023
998.00,49.990
999.00,50.013
1000.00,49.982
1001.00,49.962
1002.00,49.966
1003.00,49.948
1004.00,49.948
1005.00,49.929
1006.00,49.972
1007.00,49.914
1008.00,49.908
1009.00,49.885
1010.00,49.876
1011.00,49.865
1012.00,49.823
1013.00,49.847
1014.00,49.796
1015.00,49.821
1016.00,49.781
1017.00,49.781
1018.00,49.776
1019.00,49.736
1020.00,49.767
1021.00,49.717
1022.00,49.736
1023.00,49.705
1024.00,49.676
1025.00,49.663
1026.00,49.633
1027.00,49.621
1028.00,49.623
1029.00,49.618
1030.00,49.575
1031.00,49.602
1032.00,49.550
1033.00,49.559
1034.00,49.526
1035.00,49.491
1036.00,49.493
1037.00,49.472
1038.00,49.438
1039.00,49.403
1040.00,49.386
1041.00,49.355
1042.00,49.364
1043.00,49.341
1044.00,49.374
1045.00,49.348
1046.00,49.341
1047.00,49.374
1048.00,49.367
1049.00,49.395
1050.00,49.387
1051.00,49.436
1052.00,49.420
1053.00,49.428
1054.00,49.416
1055.00,49.451
1056.00,49.460
1057.00,49.440
1058.00,49.430
1059.00,49.423
1060.00,49.445
1061.00,49.440
1062.00,49.441
1063.00,49.459
1064.00,49.427
1065.00,49.386
1066.00,49.402
1067.00,49.394
1068.00,49.433
1069.00,49.389
1070.00,49.362
1071.00,49.356
1072.00,49.383
1073.00,49.348
1074.00,49.366
1075.00,49.359
1076.00,49.351
1077.00,49.328
1078.00,49.286
1079.00,49.289
1080.00,49.280
1081.00,49.265
1082.00,49.256
1083.00,49.262
1084.00,49.258
1085.00,49.256
1086.00,49.250
1087.00,49.245
1088.00,49.213
1089.00,49.212
1090.00,49.201
1091.00,49.203
1092.00,49.163
1093.00,49.169
1094.00,49.149
1095.00,49.150
1096.00,49.136
1097.00,49.160
1098.00,49.131
1099.00,49.136
1100.00,49.121
1101.00,49.120
1102.00,49.099
1103.00,49.107
1104.00,49.090
1105.00,49.090
1106.00,49.056
1107.00,49.066
1108.00,49.045
1109.00,49.043
1110.00,49.035
1111.00,49.029
1112.00,49.016
1113.00,49.011
1114.00,49.013
1115.00,49.026
1116.00,49.015
1117.00,49.006
1118.00,48.990
1119.00,49.002
1120.00,48.978
1121.00,48.977
1122.00,48.951
1123.00,48.944
1124.00,48.938
1125.00,48.937
1126.00,48.924
1127.00,48.951
1128.00,48.931
1129.00,48.927
1130.00,48.933
1131.00,48.928
1132.00,48.915
1133.00,48.903
1134.00,48.888
1135.00,48.902
1136.00,48.877
1137.00,48.896
1138.00,48.895
1139.00,48.888
1140.00,48.860
1141.00,48.880
1142.00,48.857
1143.00,48.890
1144.00,48.862
1145.00,48.877
1146.00,48.883
1147.00,48.838
1148.00,48.830
1149.00,48.852
1150.00,48.842
1151.00,48.838
1152.00,48.829
1153.00,48.823
1154.00,48.804
1155.00,48.815
1156.00,48.806
1157.00,48.822
1158.00,48.812
1159.00,48.816
1160.00,48.813
1161.00,48.822
1162.00,48.823
1163.00,48.816
1164.00,48.815
1165.00,48.806
1166.00,48.812
1167.00,48.789
1168.00,48.815
1169.00,48.797
1170.00,48.794
1171.00,48.780
1172.00,48.777
1173.00,48.778
1174.00,48.789
1175.00,48.790
1176.00,48.785
1177.00,48.777
1178.00,48.772
1179.00,48.790
1180.00,48.755
1181.00,48.786
1182.00,48.781
1183.00,48.780
1184.00,48.761
1185.00,48.776
1186.00,48.758
1187.00,48.765
1188.00,48.777
1189.00,48.767
1190.00,48.771
1191.00,48.761
1192.00,48.798
1193.00,48.783
1194.00,48.781
1195.00,48.764
1196.00,48.799
1197.00,48.783
1198.00,48.751
1199.00,48.751
1200.00,48.764
1201.00,48.782
1202.00,48.754
1203.00,48.766
1204.00,48.797
1205.00,48.801
1206.00,48.791
1207.00,48.785
1208.00,48.758
1209.00,48.770
1210.00,48.773
1211.00,48.761
1212.00,48.787
1213.00,48.730
1214.00,48.775
1215.00,48.765
1216.00,48.759
1217.00,48.761
1218.00,48.750
1219.00,48.786
1220.00,48.759
1221.00,48.802
1222.00,48.790
1223.00,48.788
1224.00,48.774
1225.00,48.773
1226.00,48.777
1227.00,48.759
1228.00,48.794
1229.00,48.793
1230.00,48.804
1231.00,48.802
1232.00,48.834
1233.00,48.831
1234.00,48.824
1235.00,48.825
1236.00,48.831
1237.00,48.838
1238.00,48.816
1239.00,48.845
1240.00,48.828
1241.00,48.833
1242.00,48.847
1243.00,48.854
1244.00,48.828
1245.00,48.875
1246.00,48.878
1247.00,48.862
1248.00,48.866
1249.00,48.888
1250.00,48.897
1251.00,48.872
1252.00,48.890
1253.00,48.880
1254.00,48.906
1255.00,48.886
1256.00,48.885
1257.00,48.874
1258.00,48.906
1259.00,48.911
1260.00,48.931
1261.00,48.914
1262.00,48.908
1263.00,48.911
1264.00,48.916
1265.00,48.917
1266.00,48.906
1267.00,48.948
1268.00,48.937
1269.00,48.954
1270.00,48.983
1271.00,48.967
1272.00,48.974
1273.00,48.994
1274.00,48.994
1275.00,49.013
1276.00,48.991
1277.00,49.010
1278.00,49.023
1279.00,49.019
1280.00,49.019
1281.00,49.045
1282.00,49.036
1283.00,49.020
1284.00,49.048
1285.00,49.030
1286.00,49.048
1287.00,49.038
1288.00,49.047
1289.00,49.029
1290.00,49.068
1291.00,49.078
1292.00,49.100
1293.00,49.091
1294.00,49.091
1295.00,49.122
1296.00,49.109
1297.00,49.115
1298.00,49.179
1299.00,49.111
1300.00,49.142
1301.00,49.127
1302.00,49.160
1303.00,49.158
1304.00,49.141
1305.00,49.166
1306.00,49.172
1307.00,49.182
1308.00,49.185
1309.00,49.191
1310.00,49.191
1311.00,49.185
1312.00,49.188
1313.00,49.213
1314.00,49.238
1315.00,49.236
1316.00,49.236
1317.00,49.273
1318.00,49.246
1319.00,49.273
1320.00,49.258
1321.00,49.451
1322.00,49.441
1323.00,49.431
1324.00,49.418
1325.00,49.413
1326.00,49.437
1327.00,49.413
1328.00,49.421
1329.00,49.419
1330.00,49.428
1331.00,49.433
1332.00,49.438
1333.00,49.442
1334.00,49.479
1335.00,49.494
1336.00,49.520
1337.00,49.558
1338.00,49.616
1339.00,49.666
1340.00,49.719
1341.00,49.783
1342.00,49.856
1343.00,49.885
1344.00,49.938
1345.00,50.002
1346.00,50.041
1347.00,50.050
1348.00,50.105
1349.00,50.116
1350.00,50.146
1351.00,50.140
1352.00,50.177
1353.00,50.148
1354.00,50.157
1355.00,50.129
1356.00,50.183
1357.00,50.184
1358.00,50.211
1359.00,50.203
1360.00,50.231
1361.00,50.211
1362.00,50.160
1363.00,50.254
1364.00,50.236
1365.00,50.194
1366.00,50.320
1367.00,50.209
1368.00,50.174
1369.00,50.226
1370.00,50.180
1371.00,50.247
1372.00,50.243
1373.00,50.171
1374.00,50.234
1375.00,50.193
1376.00,50.223
1377.00,50.166
1378.00,50.319
1379.00,50.201
1380.00,50.239
1381.00,50.235
1382.00,50.160
1383.00,50.226
1384.00,50.167
1385.00,50.208
1386.00,50.212
1387.00,50.223
1388.00,50.138
1389.00,50.206
1390.00,50.210
1391.00,50.191
1392.00,50.202
1393.00,50.203
1394.00,50.201
1395.00,50.139
1396.00,50.139
1397.00,50.182
1398.00,50.239
1399.00,50.183
1400.00,50.233
1401.00,50.169
1402.00,50.301
1403.00,50.278
1404.00,50.207
1405.00,50.215
1406.00,50.256
1407.00,50.238
1408.00,50.246
1409.00,50.241
1410.00,50.289
1411.00,50.274
1412.00,50.380
1413.00,50.317
1414.00,50.271
1415.00,50.308
1416.00,50.346
1417.00,50.384
1418.00,50.336
1419.00,50.345
1420.00,50.369
1421.00,50.445
1422.00,50.410
1423.00,50.430
1424.00,50.424
1425.00,50.461
1426.00,50.477
1427.00,50.513
1428.00,50.500
1429.00,50.513
1430.00,50.527
1431.00,50.562
1432.00,50.568
1433.00,50.590
1434.00,50.573
1435.00,50.645
1436.00,50.643
1437.00,50.636
1438.00,50.663
1439.00,50.695
1440.00,50.715
1441.00,50.715
1442.00,50.737
1443.00,50.759
1444.00,50.825
1445.00,50.763
1446.00,50.791
1447.00,50.821
1448.00,50.897
1449.00,50.856
1450.00,50.871
1451.00,50.887
1452.00,50.916
1453.00,50.917
1454.00,50.951
1455.00,50.966
1456.00,50.983
1457.00,50.971
1458.00,51.015
1459.00,51.044
1460.00,51.073
1461.00,51.064
1462.00,51.107
1463.00,51.107
1464.00,51.140
1465.00,51.136
1466.00,51.141
1467.00,51.164
1468.00,51.210
1469.00,51.188
1470.00,51.218
1471.00,51.224
1472.00,51.224
1473.00,51.249
1474.00,51.278
1475.00,51.290
1476.00,51.308
1477.00,51.283
1478.00,51.317
1479.00,51.336
1480.00,51.342
1481.00,51.360
1482.00,51.383
1483.00,51.386
1484.00,51.411
1485.00,51.414
1486.00,51.424
1487.00,51.453
1488.00,51.475
1489.00,51.460
1490.00,51.494
1491.00,51.503
1492.00,51.541
1493.00,51.517
1494.00,51.583
1495.00,51.571
1496.00,51.589
1497.00,51.572
1498.00,51.591
1499.00,51.603
1500.00,51.613
1501.00, 
1502.00, 
1503.00, 
1504.00, 
1505.00, 
1506.00, 
1507.00, 
1508.00, 
1509.00, 
1510.00, 
1511.00, 
1512.00, 
1513.00, 
1514.00, 
1515.00, 
1516.00, 
1517.00, 
1518.00, 
1519.00, 
1520.00, 
1521.00, 
1522.00, 
1523.00, 
1524.00, 
1525.00, 
1526.00, 
1527.00, 
1528.00, 
1529.00, 
1530.00, 
1531.00, 
1532.00, 
1533.00, 
1534.00, 
1535.00, 
1536.00, 
1537.00, 
1538.00, 
1539.00, 
1540.00, 
1541.00, 
1542.00, 
1543.00, 
1544.00, 
1545.00, 
1546.00, 
1547.00, 
1548.00, 
1549.00, 
1550.00, 
1551.00, 
1552.00, 
1553.00, 
1554.00, 
1555.00, 
1556.00, 
1557.00, 
1558.00, 
1559.00, 
1560.00, 
1561.00, 
1562.00, 
1563.00, 
1564.00, 
1565.00, 
1566.00, 
1567.00, 
1568.00, 
1569.00, 
1570.00, 
1571.00, 
1572.00, 
1573.00, 
1574.00, 
1575.00, 
1576.00, 
1577.00, 
1578.00, 
1579.00, 
1580.00, 
1581.00, 
1582.00, 
1583.00, 
1584.00, 
1585.00, 
1586.00, 
1587.00, 
1588.00, 
1589.00, 
1590.00, 
1591.00, 
1592.00, 
1593.00, 
1594.00, 
1595.00, 
1596.00, 
1597.00, 
1598.00, 
1599.00, 
1600.00, 
1601.00, 
1602.00, 
1603.00, 
1604.00, 
1605.00, 
1606.00, 
1607.00, 
1608.00, 
1609.00, 
1610.00, 
1611.00, 
1612.00, 
1613.00, 
1614.00, 
1615.00, 
1616.00, 
1617.00, 
1618.00, 
1619.00, 
1620.00, 
1621.00, 
1622.00, 
1623.00, 
1624.00, 
1625.00, 
1626.00, 
1627.00, 
1628.00, 
1629.00, 
1630.00, 
1631.00, 
1632.00, 
1633.00, 
1634.00, 
1635.00, 
1636.00, 
1637.00, 
1638.00, 
1639.00, 
1640.00, 
1641.00, 
1642.00, 
1643.00, 
1644.00, 
1645.00, 
1646.00, 
1647.00, 
1648.00, 
1649.00, 
1650.00, 
1651.00, 
1652.00, 
1653.00, 
1654.00, 
1655.00, 
1656.00, 
1657.00, 
1658.00, 
1659.00, 
1660.00, 
1661.00, 
1662.00, 
1663.00, 
1664.00, 
1665.00, 
1666.00, 
1667.00, 
1668.00, 
1669.00, 
1670.00, 
1671.00, 
1672.00, 
1673.00, 
1674.00, 
1675.00, 
1676.00, 
1677.00, 
1678.00, 
1679.00, 
1680.00, 
1681.00, 
1682.00, 
1683.00, 
1684.00, 
1685.00, 
1686.00, 
1687.00, 
1688.00, 
1689.00, 
1690.00, 
1691.00, 
1692.00, 
1693.00, 
1694.00, 
1695.00, 
1696.00, 
1697.00, 
1698.00, 
1699.00, 
1700.00, 
1701.00, 
1702.00, 
1703.00, 
1704.00, 
1705.00, 
1706.00, 
1707.00, 
1708.00, 
1709.00, 
1710.00, 
1711.00, 
1712.00, 
1713.00, 
1714.00, 
1715.00, 
1716.00, 
1717.00, 
1718.00, 
1719.00, 
1720.00, 
1721.00, 
1722.00, 
1723.00, 
1724.00, 
1725.00, 
1726.00, 
1727.00, 
1728.00, 
1729.00, 
1730.00, 
1731.00, 
1732.00, 
1733.00, 
1734.00, 
1735.00, 
1736.00, 
1737.00, 
1738.00, 
1739.00, 
1740.00, 
1741.00, 
1742.00, 
1743.00, 
1744.00, 
1745.00, 
1746.00, 
1747.00, 
1748.00, 
1749.00, 
1750.00, 
1751.00, 
1752.00, 
1753.00, 
1754.00, 
1755.00, 
1756.00, 
1757.00, 
1758.00, 
1759.00, 
1760.00, 
1761.00, 
1762.00, 
1763.00, 
1764.00, 
1765.00, 
1766.00, 
1767.00, 
1768.00, 
1769.00, 
1770.00, 
1771.00, 
1772.00, 
1773.00, 
1774.00, 
1775.00, 
1776.00, 
1777.00, 
1778.00, 
1779.00, 
1780.00, 
1781.00, 
1782.00, 
1783.00, 
1784.00, 
1785.00, 
1786.00, 
1787.00, 
1788.00, 
1789.00, 
1790.00, 
1791.00, 
1792.00, 
1793.00, 
1794.00, 
1795.00, 
1796.00, 
1797.00, 
1798.00, 
1799.00, 
1800.00, 
1801.00, 
1802.00, 
1803.00, 
1804.00, 
1805.00, 
1806.00, 
1807.00, 
1808.00, 
1809.00, 
1810.00, 
1811.00, 
1812.00, 
1813.00, 
1814.00, 
1815.00, 
1816.00, 
1817.00, 
1818.00, 
1819.00, 
1820.00, 
1821.00, 
1822.00, 
1823.00, 
1824.00, 
1825.00, 
1826.00, 
1827.00, 
1828.00, 
1829.00, 
1830.00, 
1831.00, 
1832.00, 
1833.00, 
1834.00, 
1835.00, 
1836.00, 
1837.00, 
1838.00, 
1839.00, 
1840.00, 
1841.00, 
1842.00, 
1843.00, 
1844.00, 
1845.00, 
1846.00, 
1847.00, 
1848.00, 
1849.00, 
1850.00, 
1851.00, 
1852.00, 
1853.00, 
1854.00, 
1855.00, 
1856.00, 
1857.00, 
1858.00, 
1859.00, 
1860.00, 
1861.00, 
1862.00, 
1863.00, 
1864.00, 
1865.00, 
1866.00, 
1867.00, 
1868.00, 
1869.00, 
1870.00, 
1871.00, 
1872.00, 
1873.00, 
1874.00, 
1875.00, 
1876.00, 
1877.00, 
1878.00, 
1879.00, 
1880.00, 
1881.00, 
1882.00, 
1883.00, 
1884.00, 
1885.00, 
1886.00, 
1887.00, 
1888.00, 
1889.00, 
1890.00, 
1891.00, 
1892.00, 
1893.00, 
1894.00, 
1895.00, 
1896.00, 
1897.00, 
1898.00, 
1899.00, 
1900.00, 
1901.00, 
1902.00, 
1903.00, 
1904.00, 
1905.00, 
1906.00, 
1907.00, 
1908.00, 
1909.00, 
1910.00, 
1911.00, 
1912.00, 
1913.00, 
1914.00, 
1915.00, 
1916.00, 
1917.00, 
1918.00, 
1919.00, 
1920.00, 
1921.00, 
1922.00, 
1923.00, 
1924.00, 
1925.00, 
1926.00, 
1927.00, 
1928.00, 
1929.00, 
1930.00, 
1931.00, 
1932.00, 
1933.00, 
1934.00, 
1935.00, 
1936.00, 
1937.00, 
1938.00, 
1939.00, 
1940.00, 
1941.00, 
1942.00, 
1943.00, 
1944.00, 
1945.00, 
1946.00, 
1947.00, 
1948.00, 
1949.00, 
1950.00, 
1951.00, 
1952.00, 
1953.00, 
1954.00, 
1955.00, 
1956.00, 
1957.00, 
1958.00, 
1959.00, 
1960.00, 
1961.00, 
1962.00, 
1963.00, 
1964.00, 
1965.00, 
1966.00, 
1967.00, 
1968.00, 
1969.00, 
1970.00, 
1971.00, 
1972.00, 
1973.00, 
1974.00, 
1975.00, 
1976.00, 
1977.00, 
1978.00, 
1979.00, 
1980.00, 
1981.00, 
1982.00, 
1983.00, 
1984.00, 
1985.00, 
1986.00, 
1987.00, 
1988.00, 
1989.00, 
1990.00, 
1991.00, 
1992.00, 
1993.00, 
1994.00, 
1995.00, 
1996.00, 
1997.00, 
1998.00, 
1999.00, 
2000.00, 
2001.00, 
2002.00, 
2003.00, 
2004.00, 
2005.00, 
2006.00, 
2007.00, 
2008.00, 
2009.00, 
2010.00, 
2011.00, 
2012.00, 
2013.00, 
2014.00, 
2015.00, 
2016.00, 
2017.00, 
2018.00, 
2019.00, 
2020.00, 
2021.00, 
2022.00, 
2023.00, 
2024.00, 
2025.00, 
2026.00, 
2027.00, 
2028.00, 
2029.00, 
2030.00, 
2031.00, 
2032.00, 
2033.00, 
2034.00, 
2035.00, 
2036.00, 
2037.00, 
2038.00, 
2039.00, 
2040.00, 
2041.00, 
2042.00, 
2043.00, 
2044.00, 
2045.00, 
2046.00, 
2047.00, 
2048.00, 
2049.00, 
2050.00, 
2051.00, 
2052.00, 
2053.00, 
2054.00, 
2055.00, 
2056.00, 
2057.00, 
2058.00, 
2059.00, 
2060.00, 
2061.00, 
2062.00, 
2063.00, 
2064.00, 
2065.00, 
2066.00, 
2067.00, 
2068.00, 
2069.00, 
2070.00, 
2071.00, 
2072.00, 
2073.00, 
2074.00, 
2075.00, 
2076.00, 
2077.00, 
2078.00, 
2079.00, 
2080.00, 
2081.00, 
2082.00, 
2083.00, 
2084.00, 
2085.00, 
2086.00, 
2087.00, 
2088.00, 
2089.00, 
2090.00, 
2091.00, 
2092.00, 
2093.00, 
2094.00, 
2095.00, 
2096.00, 
2097.00, 
2098.00, 
2099.00, 
2100.00, 
2101.00, 
2102.00, 
2103.00, 
2104.00, 
2105.00, 
2106.00, 
2107.00, 
2108.00, 
2109.00, 
2110.00, 
2111.00, 
2112.00, 
2113.00, 
2114.00, 
2115.00, 
2116.00, 
2117.00, 
2118.00, 
2119.00, 
2120.00, 
2121.00, 
2122.00, 
2123.00, 
2124.00, 
2125.00, 
2126.00, 
2127.00, 
2128.00, 
2129.00, 
2130.00, 
2131.00, 
2132.00, 
2133.00, 
2134.00, 
2135.00, 
2136.00, 
2137.00, 
2138.00, 
2139.00, 
2140.00, 
2141.00, 
2142.00, 
2143.00, 
2144.00, 
2145.00, 
2146.00, 
2147.00, 
2148.00, 
2149.00, 
2150.00, 
2151.00, 
2152.00, 
2153.00, 
2154.00, 
2155.00, 
2156.00, 
2157.00, 
2158.00, 
2159.00, 
2160.00, 
2161.00, 
2162.00, 
2163.00, 
2164.00, 
2165.00, 
2166.00, 
2167.00, 
2168.00, 
2169.00, 
2170.00, 
2171.00, 
2172.00, 
2173.00, 
2174.00, 
2175.00, 
2176.00, 
2177.00, 
2178.00, 
2179.00, 
2180.00, 
2181.00, 
2182.00, 
2183.00, 
2184.00, 
2185.00, 
2186.00, 
2187.00, 
2188.00, 
2189.00, 
2190.00, 
2191.00, 
2192.00, 
2193.00, 
2194.00, 
2195.00, 
2196.00, 
2197.00, 
2198.00, 
2199.00, 
2200.00, 
2201.00, 
2202.00, 
2203.00, 
2204.00, 
2205.00, 
2206.00, 
2207.00, 
2208.00, 
2209.00, 
2210.00, 
2211.00, 
2212.00, 
2213.00, 
2214.00, 
2215.00, 
2216.00, 
2217.00, 
2218.00, 
2219.00, 
2220.00, 
2221.00, 
2222.00, 
2223.00, 
2224.00, 
2225.00, 
2226.00, 
2227.00, 
2228.00, 
2229.00, 
2230.00, 
2231.00, 
2232.00, 
2233.00, 
2234.00, 
2235.00, 
2236.00, 
2237.00, 
2238.00, 
2239.00, 
2240.00, 
2241.00, 
2242.00, 
2243.00, 
2244.00, 
2245.00, 
2246.00, 
2247.00, 
2248.00, 
2249.00, 
2250.00, 
2251.00, 
2252.00, 
2253.00, 
2254.00, 
2255.00, 
2256.00, 
2257.00, 
2258.00, 
2259.00, 
2260.00, 
2261.00, 
2262.00, 
2263.00, 
2264.00, 
2265.00, 
2266.00, 
2267.00, 
2268.00, 
2269.00, 
2270.00, 
2271.00, 
2272.00, 
2273.00, 
2274.00, 
2275.00, 
2276.00, 
2277.00, 
2278.00, 
2279.00, 
2280.00, 
2281.00, 
2282.00, 
2283.00, 
2284.00, 
2285.00, 
2286.00, 
2287.00, 
2288.00, 
2289.00, 
2290.00, 
2291.00, 
2292.00, 
2293.00, 
2294.00, 
2295.00, 
2296.00, 
2297.00, 
2298.00, 
2299.00, 
2300.00, 
2301.00, 
2302.00, 
2303.00, 
2304.00, 
2305.00, 
2306.00, 
2307.00, 
2308.00, 
2309.00, 
2310.00, 
2311.00, 
2312.00, 
2313.00, 
2314.00, 
2315.00, 
2316.00, 
2317.00, 
2318.00, 
2319.00, 
2320.00, 
2321.00, 
2322.00, 
2323.00, 
2324.00, 
2325.00, 
2326.00, 
2327.00, 
2328.00, 
2329.00, 
2330.00, 
2331.00, 
2332.00, 
2333.00, 
2334.00, 
2335.00, 
2336.00, 
2337.00, 
2338.00, 
2339.00, 
2340.00, 
2341.00, 
2342.00, 
2343.00, 
2344.00, 
2345.00, 
2346.00, 
2347.00, 
2348.00, 
2349.00, 
2350.00, 
2351.00, 
2352.00, 
2353.00, 
2354.00, 
2355.00, 
2356.00, 
2357.00, 
2358.00, 
2359.00, 
2360.00, 
2361.00, 
2362.00, 
2363.00, 
2364.00, 
2365.00, 
2366.00, 
2367.00, 
2368.00, 
2369.00, 
2370.00, 
2371.00, 
2372.00, 
2373.00, 
2374.00, 
2375.00, 
2376.00, 
2377.00, 
2378.00, 
2379.00, 
2380.00, 
2381.00, 
2382.00, 
2383.00, 
2384.00, 
2385.00, 
2386.00, 
2387.00, 
2388.00, 
2389.00, 
2390.00, 
2391.00, 
2392.00, 
2393.00, 
2394.00, 
2395.00, 
2396.00, 
2397.00, 
2398.00, 
2399.00, 
2400.00, 
2401.00, 
2402.00, 
2403.00, 
2404.00, 
2405.00, 
2406.00, 
2407.00, 
2408.00, 
2409.00, 
2410.00, 
2411.00, 
2412.00, 
2413.00, 
2414.00, 
2415.00, 
2416.00, 
2417.00, 
2418.00, 
2419.00, 
2420.00, 
2421.00, 
2422.00, 
2423.00, 
2424.00, 
2425.00, 
2426.00, 
2427.00, 
2428.00, 
2429.00, 
2430.00, 
2431.00, 
2432.00, 
2433.00, 
2434.00, 
2435.00, 
2436.00, 
2437.00, 
2438.00, 
2439.00, 
2440.00, 
2441.00, 
2442.00, 
2443.00, 
2444.00, 
2445.00, 
2446.00, 
2447.00, 
2448.00, 
2449.00, 
2450.00, 
2451.00, 
2452.00, 
2453.00, 
2454.00, 
2455.00, 
2456.00, 
2457.00, 
2458.00, 
2459.00, 
2460.00, 
2461.00, 
2462.00, 
2463.00, 
2464.00, 
2465.00, 
2466.00, 
2467.00, 
2468.00, 
2469.00, 
2470.00, 
2471.00, 
2472.00, 
2473.00, 
2474.00, 
2475.00, 
2476.00, 
2477.00, 
2478.00, 
2479.00, 
2480.00, 
2481.00, 
2482.00, 
2483.00, 
2484.00, 
2485.00, 
2486.00, 
2487.00, 
2488.00, 
2489.00, 
2490.00, 
2491.00, 
2492.00, 
2493.00, 
2494.00, 
2495.00, 
2496.00, 
2497.00, 
2498.00, 
2499.00, 
2500.00, 
2501.00, 
2502.00, 
2503.00, 
2504.00, 
2505.00, 
2506.00, 
2507.00, 
2508.00, 
2509.00, 
2510.00, 
2511.00, 
2512.00, 
2513.00, 
2514.00, 
2515.00, 
2516.00, 
2517.00, 
2518.00, 
2519.00, 
2520.00, 
2521.00, 
2522.00, 
2523.00, 
2524.00, 
2525.00, 
2526.00, 
2527.00, 
2528.00, 
2529.00, 
2530.00, 
2531.00, 
2532.00, 
2533.00, 
2534.00, 
2535.00, 
2536.00, 
2537.00, 
2538.00, 
2539.00, 
2540.00, 
2541.00, 
2542.00, 
2543.00, 
2544.00, 
2545.00, 
2546.00, 
2547.00, 
2548.00, 
2549.00, 
2550.00, 
2551.00, 
2552.00, 
2553.00, 
2554.00, 
2555.00, 
2556.00, 
2557.00, 
2558.00, 
2559.00, 
2560.00, 
2561.00, 
2562.00, 
2563.00, 
2564.00, 
2565.00, 
2566.00, 
2567.00, 
2568.00, 
2569.00, 
2570.00, 
2571.00, 
2572.00, 
2573.00, 
2574.00, 
2575.00, 
2576.00, 
2577.00, 
2578.00, 
2579.00, 
2580.00, 
2581.00, 
2582.00, 
2583.00, 
2584.00, 
2585.00, 
2586.00, 
2587.00, 
2588.00, 
2589.00, 
2590.00, 
2591.00, 
2592.00, 
2593.00, 
2594.00, 
2595.00, 
2596.00, 
2597.00, 
2598.00, 
2599.00, 
2600.00, 
