"1cP3 - RawData"
"Wavelength nm.","T%"
200.00,0.001
201.00,0.001
202.00,0.003
203.00,0.001
204.00,0.002
205.00,0.000
206.00,-0.001
207.00,0.003
208.00,0.001
209.00,0.002
210.00,-0.001
211.00,-0.001
212.00,0.002
213.00,0.001
214.00,0.000
215.00,0.001
216.00,-0.000
217.00,0.003
218.00,0.003
219.00,-0.001
220.00,0.002
221.00,0.002
222.00,0.000
223.00,0.002
224.00,0.002
225.00,-0.000
226.00,0.001
227.00,0.000
228.00,0.001
229.00,-0.000
230.00,0.001
231.00,0.002
232.00,0.002
233.00,-0.000
234.00,-0.001
235.00,-0.001
236.00,0.001
237.00,0.003
238.00,0.003
239.00,0.002
240.00,0.001
241.00,0.001
242.00,0.001
243.00,0.000
244.00,-0.001
245.00,0.002
246.00,0.000
247.00,0.001
248.00,0.001
249.00,0.001
250.00,0.001
251.00,0.000
252.00,0.001
253.00,0.001
254.00,0.001
255.00,-0.001
256.00,0.001
257.00,0.000
258.00,0.002
259.00,-0.001
260.00,0.001
261.00,0.001
262.00,0.002
263.00,-0.000
264.00,0.000
265.00,0.001
266.00,0.001
267.00,-0.000
268.00,-0.000
269.00,0.001
270.00,0.000
271.00,0.001
272.00,0.002
273.00,-0.000
274.00,0.001
275.00,0.000
276.00,0.000
277.00,-0.001
278.00,0.001
279.00,0.002
280.00,0.001
281.00,-0.002
282.00,0.001
283.00,-0.001
284.00,0.002
285.00,0.001
286.00,-0.001
287.00,-0.001
288.00,-0.001
289.00,0.001
290.00,0.002
291.00,0.001
292.00,0.002
293.00,0.001
294.00,-0.001
295.00,0.001
296.00,-0.001
297.00,0.000
298.00,0.001
299.00,0.000
300.00,0.001
301.00,0.001
302.00,-0.000
303.00,-0.001
304.00,0.001
305.00,0.003
306.00,0.002
307.00,0.002
308.00,0.005
309.00,0.008
310.00,0.012
311.00,0.017
312.00,0.027
313.00,0.042
314.00,0.060
315.00,0.087
316.00,0.129
317.00,0.179
318.00,0.250
319.00,0.331
320.00,0.443
321.00,0.565
322.00,0.718
323.00,0.910
324.00,1.121
325.00,1.363
326.00,1.608
327.00,1.902
328.00,2.219
329.00,2.538
330.00,2.910
331.00,3.293
332.00,3.690
333.00,4.099
334.00,4.505
335.00,4.948
336.00,5.378
337.00,5.842
338.00,6.281
339.00,6.721
340.00,7.132
341.00,7.553
342.00,7.955
343.00,8.357
344.00,8.740
345.00,9.080
346.00,9.426
347.00,9.730
348.00,10.038
349.00,10.334
350.00,10.581
351.00,10.829
352.00,11.042
353.00,11.273
354.00,11.473
355.00,11.655
356.00,11.829
357.00,11.967
358.00,12.103
359.00,12.292
360.00,12.430
361.00,12.464
362.00,12.543
363.00,12.643
364.00,12.723
365.00,12.728
366.00,12.751
367.00,12.775
368.00,12.826
369.00,12.830
370.00,12.871
371.00,12.828
372.00,12.770
373.00,12.790
374.00,12.747
375.00,12.660
376.00,12.606
377.00,12.514
378.00,12.464
379.00,12.383
380.00,12.305
381.00,12.299
382.00,12.258
383.00,12.278
384.00,12.264
385.00,12.281
386.00,12.263
387.00,12.295
388.00,12.315
389.00,12.326
390.00,12.307
391.00,12.292
392.00,12.290
393.00,12.295
394.00,12.287
395.00,12.282
396.00,12.251
397.00,12.255
398.00,12.246
399.00,12.236
400.00,12.228
401.00,12.182
402.00,12.210
403.00,12.199
404.00,12.151
405.00,12.148
406.00,12.100
407.00,12.072
408.00,12.070
409.00,12.005
410.00,11.971
411.00,11.958
412.00,11.951
413.00,11.948
414.00,11.915
415.00,11.914
416.00,11.943
417.00,11.930
418.00,11.927
419.00,11.997
420.00,12.015
421.00,11.947
422.00,11.956
423.00,11.990
424.00,12.017
425.00,12.026
426.00,12.043
427.00,12.091
428.00,12.099
429.00,12.129
430.00,12.174
431.00,12.216
432.00,12.243
433.00,12.262
434.00,12.325
435.00,12.371
436.00,12.424
437.00,12.469
438.00,12.527
439.00,12.558
440.00,12.638
441.00,12.719
442.00,12.757
443.00,12.792
444.00,12.886
445.00,12.950
446.00,13.026
447.00,13.084
448.00,13.171
449.00,13.263
450.00,13.376
451.00,13.444
452.00,13.521
453.00,13.630
454.00,13.710
455.00,13.821
456.00,13.918
457.00,14.014
458.00,14.090
459.00,14.232
460.00,14.321
461.00,14.431
462.00,14.530
463.00,14.660
464.00,14.785
465.00,14.880
466.00,15.001
467.00,15.146
468.00,15.198
469.00,15.333
470.00,15.429
471.00,15.518
472.00,15.654
473.00,15.731
474.00,15.852
475.00,15.985
476.00,16.111
477.00,16.231
478.00,16.351
479.00,16.522
480.00,16.642
481.00,16.748
482.00,16.885
483.00,17.027
484.00,17.181
485.00,17.343
486.00,17.479
487.00,17.636
488.00,17.765
489.00,17.934
490.00,18.077
491.00,18.212
492.00,18.377
493.00,18.582
494.00,18.714
495.00,18.728
496.00,18.868
497.00,18.971
498.00,19.124
499.00,19.296
500.00,19.434
501.00,19.538
502.00,19.690
503.00,19.861
504.00,19.924
505.00,20.069
506.00,20.226
507.00,20.322
508.00,20.456
509.00,20.619
510.00,20.741
511.00,20.840
512.00,21.063
513.00,21.172
514.00,21.295
515.00,21.442
516.00,21.562
517.00,21.635
518.00,21.799
519.00,21.909
520.00,21.992
521.00,22.143
522.00,22.266
523.00,22.256
524.00,22.439
525.00,22.599
526.00,22.705
527.00,22.775
528.00,22.881
529.00,23.090
530.00,23.236
531.00,23.317
532.00,23.383
533.00,23.507
534.00,23.638
535.00,23.715
536.00,23.814
537.00,23.917
538.00,24.018
539.00,24.090
540.00,24.201
541.00,24.292
542.00,24.304
543.00,24.428
544.00,24.529
545.00,24.594
546.00,24.643
547.00,24.774
548.00,24.853
549.00,24.932
550.00,25.027
551.00,25.159
552.00,25.250
553.00,25.246
554.00,25.392
555.00,25.469
556.00,25.513
557.00,25.608
558.00,25.675
559.00,25.780
560.00,25.840
561.00,25.908
562.00,26.008
563.00,26.032
564.00,26.142
565.00,26.175
566.00,26.198
567.00,26.216
568.00,26.292
569.00,26.350
570.00,26.454
571.00,26.492
572.00,26.542
573.00,26.573
574.00,26.609
575.00,26.649
576.00,26.687
577.00,26.733
578.00,26.843
579.00,26.900
580.00,26.959
581.00,27.139
582.00,27.158
583.00,27.190
584.00,27.267
585.00,27.382
586.00,27.408
587.00,27.469
588.00,27.517
589.00,27.531
590.00,27.627
591.00,27.703
592.00,27.657
593.00,27.686
594.00,27.792
595.00,27.889
596.00,27.954
597.00,28.045
598.00,28.143
599.00,28.133
600.00,28.175
601.00,28.264
602.00,28.277
603.00,28.322
604.00,28.434
605.00,28.492
606.00,28.635
607.00,28.690
608.00,28.726
609.00,28.718
610.00,28.840
611.00,29.079
612.00,28.871
613.00,28.947
614.00,29.001
615.00,29.078
616.00,29.213
617.00,29.231
618.00,29.246
619.00,29.367
620.00,29.354
621.00,29.456
622.00,29.606
623.00,29.620
624.00,29.722
625.00,29.842
626.00,29.877
627.00,30.003
628.00,30.066
629.00,30.125
630.00,30.197
631.00,30.301
632.00,30.378
633.00,30.498
634.00,30.599
635.00,30.670
636.00,30.812
637.00,30.876
638.00,30.940
639.00,31.068
640.00,31.146
641.00,31.209
642.00,31.326
643.00,31.443
644.00,31.567
645.00,31.611
646.00,31.840
647.00,31.918
648.00,31.976
649.00,32.088
650.00,32.178
651.00,32.391
652.00,32.490
653.00,32.532
654.00,32.625
655.00,32.848
656.00,33.017
657.00,33.047
658.00,33.104
659.00,33.235
660.00,33.429
661.00,33.465
662.00,33.586
663.00,33.762
664.00,34.010
665.00,34.240
666.00,34.241
667.00,34.268
668.00,34.387
669.00,34.692
670.00,34.912
671.00,34.849
672.00,35.018
673.00,35.202
674.00,35.368
675.00,35.414
676.00,35.670
677.00,35.838
678.00,35.675
679.00,35.939
680.00,36.074
681.00,36.241
682.00,36.340
683.00,36.458
684.00,36.749
685.00,36.896
686.00,36.878
687.00,37.067
688.00,37.044
689.00,37.086
690.00,37.490
691.00,37.770
692.00,37.619
693.00,37.674
694.00,37.835
695.00,38.006
696.00,38.097
697.00,38.216
698.00,38.296
699.00,38.604
700.00,38.935
701.00,38.883
702.00,39.032
703.00,39.270
704.00,39.327
705.00,39.193
706.00,39.488
707.00,39.756
708.00,39.701
709.00,40.139
710.00,40.490
711.00,40.098
712.00,40.214
713.00,40.425
714.00,40.625
715.00,40.617
716.00,40.826
717.00,40.900
718.00,41.056
719.00,41.171
720.00,41.166
721.00,45.490
722.00,45.643
723.00,45.636
724.00,45.731
725.00,45.769
726.00,45.924
727.00,45.948
728.00,46.089
729.00,46.086
730.00,46.293
731.00,46.304
732.00,46.443
733.00,46.484
734.00,46.596
735.00,46.624
736.00,46.777
737.00,46.849
738.00,46.921
739.00,47.062
740.00,47.093
741.00,47.237
742.00,47.243
743.00,47.342
744.00,47.386
745.00,47.407
746.00,47.494
747.00,47.567
748.00,47.524
749.00,47.582
750.00,47.684
751.00,47.708
752.00,47.734
753.00,47.807
754.00,47.854
755.00,47.941
756.00,48.021
757.00,48.033
758.00,48.117
759.00,48.217
760.00,48.191
761.00,48.253
762.00,48.299
763.00,48.425
764.00,48.408
765.00,48.526
766.00,48.497
767.00,48.513
768.00,48.563
769.00,48.621
770.00,48.638
771.00,48.674
772.00,48.812
773.00,48.801
774.00,48.843
775.00,48.900
776.00,48.881
777.00,48.979
778.00,48.984
779.00,49.092
780.00,49.072
781.00,49.064
782.00,49.090
783.00,49.066
784.00,49.161
785.00,49.155
786.00,49.218
787.00,49.197
788.00,49.199
789.00,49.233
790.00,49.164
791.00,49.375
792.00,49.221
793.00,49.252
794.00,49.333
795.00,49.383
796.00,49.336
797.00,49.273
798.00,49.370
799.00,49.343
800.00,49.333
801.00,49.394
802.00,49.350
803.00,49.428
804.00,49.349
805.00,49.447
806.00,49.405
807.00,49.477
808.00,49.442
809.00,49.447
810.00,49.461
811.00,49.481
812.00,49.491
813.00,49.439
814.00,49.456
815.00,49.447
816.00,49.456
817.00,49.472
818.00,49.384
819.00,49.496
820.00,49.441
821.00,49.399
822.00,49.535
823.00,49.349
824.00,49.460
825.00,49.448
826.00,49.452
827.00,49.429
828.00,49.422
829.00,49.432
830.00,49.529
831.00,51.893
832.00,51.924
833.00,51.869
834.00,51.881
835.00,51.930
836.00,51.922
837.00,51.897
838.00,51.882
839.00,51.879
840.00,51.872
841.00,51.895
842.00,51.870
843.00,51.876
844.00,51.931
845.00,51.801
846.00,51.861
847.00,51.819
848.00,51.844
849.00,51.723
850.00,51.749
851.00,51.706
852.00,51.780
853.00,51.670
854.00,51.656
855.00,51.703
856.00,51.648
857.00,51.638
858.00,51.587
859.00,51.607
860.00,51.638
861.00,51.654
862.00,51.568
863.00,51.618
864.00,51.575
865.00,51.593
866.00,51.614
867.00,51.580
868.00,51.565
869.00,51.524
870.00,51.612
871.00,51.572
872.00,51.574
873.00,51.540
874.00,51.597
875.00,51.531
876.00,51.578
877.00,51.541
878.00,51.595
879.00,51.524
880.00,51.540
881.00,51.493
882.00,51.562
883.00,51.492
884.00,51.441
885.00,51.421
886.00,51.521
887.00,51.413
888.00,51.377
889.00,51.412
890.00,51.396
891.00,51.365
892.00,51.330
893.00,51.317
894.00,51.345
895.00,51.321
896.00,51.286
897.00,51.290
898.00,51.278
899.00,51.287
900.00,51.233
901.00,51.255
902.00,51.265
903.00,51.251
904.00,51.205
905.00,51.196
906.00,51.193
907.00,51.177
908.00,51.055
909.00,51.158
910.00,51.085
911.00,51.123
912.00,51.089
913.00,51.055
914.00,51.065
915.00,51.045
916.00,51.007
917.00,51.000
918.00,50.978
919.00,50.941
920.00,50.890
921.00,50.934
922.00,50.947
923.00,50.932
924.00,50.864
925.00,50.881
926.00,51.031
927.00,50.860
928.00,50.813
929.00,50.844
930.00,50.785
931.00,50.808
932.00,50.744
933.00,50.779
934.00,50.745
935.00,50.705
936.00,50.674
937.00,50.675
938.00,50.670
939.00,50.664
940.00,50.593
941.00,50.632
942.00,50.613
943.00,50.575
944.00,50.556
945.00,50.564
946.00,50.550
947.00,50.492
948.00,50.486
949.00,50.469
950.00,50.457
951.00,50.426
952.00,50.414
953.00,50.381
954.00,50.384
955.00,50.337
956.00,50.341
957.00,50.364
958.00,50.331
959.00,50.278
960.00,50.261
961.00,50.262
962.00,50.243
963.00,50.197
964.00,50.204
965.00,50.227
966.00,50.196
967.00,50.211
968.00,50.153
969.00,50.210
970.00,50.185
971.00,50.183
972.00,50.165
973.00,50.195
974.00,50.211
975.00,50.154
976.00,50.188
977.00,50.160
978.00,50.221
979.00,50.168
980.00,50.189
981.00,50.196
982.00,50.146
983.00,50.196
984.00,50.164
985.00,50.179
986.00,50.126
987.00,50.203
988.00,50.139
989.00,50.140
990.00,50.133
991.00,50.116
992.00,50.138
993.00,50.083
994.00,50.074
995.00,50.062
996.00,50.024
997.00,50.027
998.00,49.998
999.00,50.023
1000.00,49.982
1001.00,49.969
1002.00,49.991
1003.00,49.978
1004.00,49.957
1005.00,49.931
1006.00,49.986
1007.00,49.927
1008.00,49.919
1009.00,49.902
1010.00,49.897
1011.00,49.894
1012.00,49.847
1013.00,49.887
1014.00,49.868
1015.00,49.845
1016.00,49.815
1017.00,49.800
1018.00,49.800
1019.00,49.758
1020.00,49.773
1021.00,49.741
1022.00,49.752
1023.00,49.696
1024.00,49.704
1025.00,49.690
1026.00,49.653
1027.00,49.643
1028.00,49.625
1029.00,49.606
1030.00,49.586
1031.00,49.583
1032.00,49.555
1033.00,49.596
1034.00,49.547
1035.00,49.522
1036.00,49.505
1037.00,49.478
1038.00,49.488
1039.00,49.449
1040.00,49.443
1041.00,49.424
1042.00,49.428
1043.00,49.404
1044.00,49.420
1045.00,49.392
1046.00,49.389
1047.00,49.424
1048.00,49.415
1049.00,49.430
1050.00,49.416
1051.00,49.457
1052.00,49.454
1053.00,49.469
1054.00,49.461
1055.00,49.490
1056.00,49.492
1057.00,49.485
1058.00,49.467
1059.00,49.459
1060.00,49.491
1061.00,49.464
1062.00,49.463
1063.00,49.507
1064.00,49.467
1065.00,49.429
1066.00,49.451
1067.00,49.427
1068.00,49.460
1069.00,49.422
1070.00,49.407
1071.00,49.406
1072.00,49.433
1073.00,49.383
1074.00,49.387
1075.00,49.370
1076.00,49.381
1077.00,49.355
1078.00,49.316
1079.00,49.333
1080.00,49.353
1081.00,49.331
1082.00,49.338
1083.00,49.344
1084.00,49.323
1085.00,49.331
1086.00,49.315
1087.00,49.323
1088.00,49.298
1089.00,49.279
1090.00,49.274
1091.00,49.289
1092.00,49.249
1093.00,49.252
1094.00,49.220
1095.00,49.219
1096.00,49.217
1097.00,49.218
1098.00,49.204
1099.00,49.200
1100.00,49.168
1101.00,49.184
1102.00,49.160
1103.00,49.171
1104.00,49.167
1105.00,49.158
1106.00,49.141
1107.00,49.142
1108.00,49.138
1109.00,49.153
1110.00,49.113
1111.00,49.101
1112.00,49.093
1113.00,49.103
1114.00,49.091
1115.00,49.104
1116.00,49.082
1117.00,49.062
1118.00,49.057
1119.00,49.060
1120.00,49.041
1121.00,49.038
1122.00,49.005
1123.00,49.012
1124.00,49.017
1125.00,49.002
1126.00,48.998
1127.00,49.012
1128.00,48.982
1129.00,48.989
1130.00,48.972
1131.00,48.978
1132.00,48.965
1133.00,48.954
1134.00,48.946
1135.00,48.951
1136.00,48.929
1137.00,48.948
1138.00,48.942
1139.00,48.942
1140.00,48.932
1141.00,48.939
1142.00,48.927
1143.00,48.948
1144.00,48.900
1145.00,48.915
1146.00,48.908
1147.00,48.894
1148.00,48.897
1149.00,48.905
1150.00,48.890
1151.00,48.908
1152.00,48.903
1153.00,48.906
1154.00,48.887
1155.00,48.888
1156.00,48.882
1157.00,48.900
1158.00,48.879
1159.00,48.881
1160.00,48.876
1161.00,48.873
1162.00,48.875
1163.00,48.869
1164.00,48.870
1165.00,48.860
1166.00,48.845
1167.00,48.836
1168.00,48.858
1169.00,48.842
1170.00,48.866
1171.00,48.837
1172.00,48.838
1173.00,48.843
1174.00,48.844
1175.00,48.845
1176.00,48.850
1177.00,48.827
1178.00,48.836
1179.00,48.853
1180.00,48.829
1181.00,48.861
1182.00,48.854
1183.00,48.856
1184.00,48.848
1185.00,48.868
1186.00,48.843
1187.00,48.844
1188.00,48.842
1189.00,48.837
1190.00,48.832
1191.00,48.811
1192.00,48.857
1193.00,48.817
1194.00,48.812
1195.00,48.806
1196.00,48.840
1197.00,48.837
1198.00,48.826
1199.00,48.832
1200.00,48.847
1201.00,48.872
1202.00,48.839
1203.00,48.839
1204.00,48.825
1205.00,48.847
1206.00,48.847
1207.00,48.829
1208.00,48.821
1209.00,48.846
1210.00,48.837
1211.00,48.824
1212.00,48.849
1213.00,48.807
1214.00,48.845
1215.00,48.825
1216.00,48.837
1217.00,48.845
1218.00,48.820
1219.00,48.855
1220.00,48.824
1221.00,48.851
1222.00,48.838
1223.00,48.883
1224.00,48.869
1225.00,48.841
1226.00,48.863
1227.00,48.839
1228.00,48.875
1229.00,48.861
1230.00,48.892
1231.00,48.894
1232.00,48.885
1233.00,48.904
1234.00,48.899
1235.00,48.893
1236.00,48.895
1237.00,48.902
1238.00,48.875
1239.00,48.900
1240.00,48.896
1241.00,48.908
1242.00,48.925
1243.00,48.939
1244.00,48.926
1245.00,48.962
1246.00,48.950
1247.00,48.955
1248.00,48.947
1249.00,48.956
1250.00,48.976
1251.00,48.950
1252.00,48.962
1253.00,48.945
1254.00,48.980
1255.00,48.976
1256.00,48.978
1257.00,48.962
1258.00,49.004
1259.00,48.993
1260.00,49.017
1261.00,49.022
1262.00,49.004
1263.00,49.006
1264.00,49.018
1265.00,49.006
1266.00,49.009
1267.00,49.028
1268.00,49.001
1269.00,49.027
1270.00,49.065
1271.00,49.061
1272.00,49.046
1273.00,49.066
1274.00,49.079
1275.00,49.075
1276.00,49.067
1277.00,49.092
1278.00,49.083
1279.00,49.076
1280.00,49.073
1281.00,49.094
1282.00,49.099
1283.00,49.088
1284.00,49.111
1285.00,49.109
1286.00,49.128
1287.00,49.115
1288.00,49.135
1289.00,49.141
1290.00,49.154
1291.00,49.159
1292.00,49.169
1293.00,49.158
1294.00,49.182
1295.00,49.191
1296.00,49.192
1297.00,49.183
1298.00,49.224
1299.00,49.198
1300.00,49.228
1301.00,49.208
1302.00,49.247
1303.00,49.245
1304.00,49.232
1305.00,49.265
1306.00,49.266
1307.00,49.267
1308.00,49.263
1309.00,49.262
1310.00,49.258
1311.00,49.262
1312.00,49.268
1313.00,49.301
1314.00,49.305
1315.00,49.313
1316.00,49.331
1317.00,49.351
1318.00,49.345
1319.00,49.361
1320.00,49.347
1321.00,49.571
1322.00,49.516
1323.00,49.497
1324.00,49.503
1325.00,49.495
1326.00,49.518
1327.00,49.505
1328.00,49.503
1329.00,49.505
1330.00,49.520
1331.00,49.507
1332.00,49.529
1333.00,49.512
1334.00,49.520
1335.00,49.571
1336.00,49.647
1337.00,49.582
1338.00,49.708
1339.00,49.735
1340.00,49.794
1341.00,49.876
1342.00,49.932
1343.00,49.970
1344.00,50.029
1345.00,50.079
1346.00,50.115
1347.00,50.144
1348.00,50.186
1349.00,50.212
1350.00,50.233
1351.00,50.231
1352.00,50.276
1353.00,50.260
1354.00,50.250
1355.00,50.214
1356.00,50.267
1357.00,50.261
1358.00,50.332
1359.00,50.273
1360.00,50.324
1361.00,50.316
1362.00,50.295
1363.00,50.346
1364.00,50.280
1365.00,50.306
1366.00,50.425
1367.00,50.282
1368.00,50.313
1369.00,50.304
1370.00,50.261
1371.00,50.361
1372.00,50.335
1373.00,50.286
1374.00,50.324
1375.00,50.285
1376.00,50.316
1377.00,50.270
1378.00,50.460
1379.00,50.283
1380.00,50.347
1381.00,50.245
1382.00,50.010
1383.00,50.352
1384.00,50.242
1385.00,50.296
1386.00,50.309
1387.00,50.274
1388.00,50.198
1389.00,50.293
1390.00,50.308
1391.00,50.255
1392.00,50.276
1393.00,50.320
1394.00,50.283
1395.00,50.212
1396.00,50.201
1397.00,50.327
1398.00,50.316
1399.00,50.248
1400.00,50.272
1401.00,50.260
1402.00,50.356
1403.00,50.296
1404.00,50.330
1405.00,50.325
1406.00,50.371
1407.00,50.356
1408.00,50.369
1409.00,50.365
1410.00,50.415
1411.00,50.329
1412.00,50.475
1413.00,50.435
1414.00,50.389
1415.00,50.418
1416.00,50.444
1417.00,50.474
1418.00,50.450
1419.00,50.448
1420.00,50.477
1421.00,50.539
1422.00,50.504
1423.00,50.548
1424.00,50.534
1425.00,50.567
1426.00,50.576
1427.00,50.610
1428.00,50.610
1429.00,50.627
1430.00,50.630
1431.00,50.662
1432.00,50.674
1433.00,50.673
1434.00,50.663
1435.00,50.756
1436.00,50.737
1437.00,50.744
1438.00,50.756
1439.00,50.799
1440.00,50.830
1441.00,50.803
1442.00,50.845
1443.00,50.876
1444.00,50.940
1445.00,50.917
1446.00,50.922
1447.00,50.942
1448.00,51.002
1449.00,50.986
1450.00,50.986
1451.00,51.006
1452.00,51.026
1453.00,51.030
1454.00,51.050
1455.00,51.054
1456.00,51.099
1457.00,51.089
1458.00,51.125
1459.00,51.148
1460.00,51.166
1461.00,51.162
1462.00,51.215
1463.00,51.201
1464.00,51.236
1465.00,51.245
1466.00,51.232
1467.00,51.260
1468.00,51.336
1469.00,51.300
1470.00,51.336
1471.00,51.343
1472.00,51.362
1473.00,51.395
1474.00,51.413
1475.00,51.430
1476.00,51.444
1477.00,51.408
1478.00,51.446
1479.00,51.479
1480.00,51.451
1481.00,51.477
1482.00,51.511
1483.00,51.503
1484.00,51.533
1485.00,51.536
1486.00,51.562
1487.00,51.591
1488.00,51.608
1489.00,51.607
1490.00,51.630
1491.00,51.632
1492.00,51.679
1493.00,51.640
1494.00,51.692
1495.00,51.696
1496.00,51.717
1497.00,51.706
1498.00,51.724
1499.00,51.717
1500.00,51.735
1501.00, 
1502.00, 
1503.00, 
1504.00, 
1505.00, 
1506.00, 
1507.00, 
1508.00, 
1509.00, 
1510.00, 
1511.00, 
1512.00, 
1513.00, 
1514.00, 
1515.00, 
1516.00, 
1517.00, 
1518.00, 
1519.00, 
1520.00, 
1521.00, 
1522.00, 
1523.00, 
1524.00, 
1525.00, 
1526.00, 
1527.00, 
1528.00, 
1529.00, 
1530.00, 
1531.00, 
1532.00, 
1533.00, 
1534.00, 
1535.00, 
1536.00, 
1537.00, 
1538.00, 
1539.00, 
1540.00, 
1541.00, 
1542.00, 
1543.00, 
1544.00, 
1545.00, 
1546.00, 
1547.00, 
1548.00, 
1549.00, 
1550.00, 
1551.00, 
1552.00, 
1553.00, 
1554.00, 
1555.00, 
1556.00, 
1557.00, 
1558.00, 
1559.00, 
1560.00, 
1561.00, 
1562.00, 
1563.00, 
1564.00, 
1565.00, 
1566.00, 
1567.00, 
1568.00, 
1569.00, 
1570.00, 
1571.00, 
1572.00, 
1573.00, 
1574.00, 
1575.00, 
1576.00, 
1577.00, 
1578.00, 
1579.00, 
1580.00, 
1581.00, 
1582.00, 
1583.00, 
1584.00, 
1585.00, 
1586.00, 
1587.00, 
1588.00, 
1589.00, 
1590.00, 
1591.00, 
1592.00, 
1593.00, 
1594.00, 
1595.00, 
1596.00, 
1597.00, 
1598.00, 
1599.00, 
1600.00, 
1601.00, 
1602.00, 
1603.00, 
1604.00, 
1605.00, 
1606.00, 
1607.00, 
1608.00, 
1609.00, 
1610.00, 
1611.00, 
1612.00, 
1613.00, 
1614.00, 
1615.00, 
1616.00, 
1617.00, 
1618.00, 
1619.00, 
1620.00, 
1621.00, 
1622.00, 
1623.00, 
1624.00, 
1625.00, 
1626.00, 
1627.00, 
1628.00, 
1629.00, 
1630.00, 
1631.00, 
1632.00, 
1633.00, 
1634.00, 
1635.00, 
1636.00, 
1637.00, 
1638.00, 
1639.00, 
1640.00, 
1641.00, 
1642.00, 
1643.00, 
1644.00, 
1645.00, 
1646.00, 
1647.00, 
1648.00, 
1649.00, 
1650.00, 
1651.00, 
1652.00, 
1653.00, 
1654.00, 
1655.00, 
1656.00, 
1657.00, 
1658.00, 
1659.00, 
1660.00, 
1661.00, 
1662.00, 
1663.00, 
1664.00, 
1665.00, 
1666.00, 
1667.00, 
1668.00, 
1669.00, 
1670.00, 
1671.00, 
1672.00, 
1673.00, 
1674.00, 
1675.00, 
1676.00, 
1677.00, 
1678.00, 
1679.00, 
1680.00, 
1681.00, 
1682.00, 
1683.00, 
1684.00, 
1685.00, 
1686.00, 
1687.00, 
1688.00, 
1689.00, 
1690.00, 
1691.00, 
1692.00, 
1693.00, 
1694.00, 
1695.00, 
1696.00, 
1697.00, 
1698.00, 
1699.00, 
1700.00, 
1701.00, 
1702.00, 
1703.00, 
1704.00, 
1705.00, 
1706.00, 
1707.00, 
1708.00, 
1709.00, 
1710.00, 
1711.00, 
1712.00, 
1713.00, 
1714.00, 
1715.00, 
1716.00, 
1717.00, 
1718.00, 
1719.00, 
1720.00, 
1721.00, 
1722.00, 
1723.00, 
1724.00, 
1725.00, 
1726.00, 
1727.00, 
1728.00, 
1729.00, 
1730.00, 
1731.00, 
1732.00, 
1733.00, 
1734.00, 
1735.00, 
1736.00, 
1737.00, 
1738.00, 
1739.00, 
1740.00, 
1741.00, 
1742.00, 
1743.00, 
1744.00, 
1745.00, 
1746.00, 
1747.00, 
1748.00, 
1749.00, 
1750.00, 
1751.00, 
1752.00, 
1753.00, 
1754.00, 
1755.00, 
1756.00, 
1757.00, 
1758.00, 
1759.00, 
1760.00, 
1761.00, 
1762.00, 
1763.00, 
1764.00, 
1765.00, 
1766.00, 
1767.00, 
1768.00, 
1769.00, 
1770.00, 
1771.00, 
1772.00, 
1773.00, 
1774.00, 
1775.00, 
1776.00, 
1777.00, 
1778.00, 
1779.00, 
1780.00, 
1781.00, 
1782.00, 
1783.00, 
1784.00, 
1785.00, 
1786.00, 
1787.00, 
1788.00, 
1789.00, 
1790.00, 
1791.00, 
1792.00, 
1793.00, 
1794.00, 
1795.00, 
1796.00, 
1797.00, 
1798.00, 
1799.00, 
1800.00, 
1801.00, 
1802.00, 
1803.00, 
1804.00, 
1805.00, 
1806.00, 
1807.00, 
1808.00, 
1809.00, 
1810.00, 
1811.00, 
1812.00, 
1813.00, 
1814.00, 
1815.00, 
1816.00, 
1817.00, 
1818.00, 
1819.00, 
1820.00, 
1821.00, 
1822.00, 
1823.00, 
1824.00, 
1825.00, 
1826.00, 
1827.00, 
1828.00, 
1829.00, 
1830.00, 
1831.00, 
1832.00, 
1833.00, 
1834.00, 
1835.00, 
1836.00, 
1837.00, 
1838.00, 
1839.00, 
1840.00, 
1841.00, 
1842.00, 
1843.00, 
1844.00, 
1845.00, 
1846.00, 
1847.00, 
1848.00, 
1849.00, 
1850.00, 
1851.00, 
1852.00, 
1853.00, 
1854.00, 
1855.00, 
1856.00, 
1857.00, 
1858.00, 
1859.00, 
1860.00, 
1861.00, 
1862.00, 
1863.00, 
1864.00, 
1865.00, 
1866.00, 
1867.00, 
1868.00, 
1869.00, 
1870.00, 
1871.00, 
1872.00, 
1873.00, 
1874.00, 
1875.00, 
1876.00, 
1877.00, 
1878.00, 
1879.00, 
1880.00, 
1881.00, 
1882.00, 
1883.00, 
1884.00, 
1885.00, 
1886.00, 
1887.00, 
1888.00, 
1889.00, 
1890.00, 
1891.00, 
1892.00, 
1893.00, 
1894.00, 
1895.00, 
1896.00, 
1897.00, 
1898.00, 
1899.00, 
1900.00, 
1901.00, 
1902.00, 
1903.00, 
1904.00, 
1905.00, 
1906.00, 
1907.00, 
1908.00, 
1909.00, 
1910.00, 
1911.00, 
1912.00, 
1913.00, 
1914.00, 
1915.00, 
1916.00, 
1917.00, 
1918.00, 
1919.00, 
1920.00, 
1921.00, 
1922.00, 
1923.00, 
1924.00, 
1925.00, 
1926.00, 
1927.00, 
1928.00, 
1929.00, 
1930.00, 
1931.00, 
1932.00, 
1933.00, 
1934.00, 
1935.00, 
1936.00, 
1937.00, 
1938.00, 
1939.00, 
1940.00, 
1941.00, 
1942.00, 
1943.00, 
1944.00, 
1945.00, 
1946.00, 
1947.00, 
1948.00, 
1949.00, 
1950.00, 
1951.00, 
1952.00, 
1953.00, 
1954.00, 
1955.00, 
1956.00, 
1957.00, 
1958.00, 
1959.00, 
1960.00, 
1961.00, 
1962.00, 
1963.00, 
1964.00, 
1965.00, 
1966.00, 
1967.00, 
1968.00, 
1969.00, 
1970.00, 
1971.00, 
1972.00, 
1973.00, 
1974.00, 
1975.00, 
1976.00, 
1977.00, 
1978.00, 
1979.00, 
1980.00, 
1981.00, 
1982.00, 
1983.00, 
1984.00, 
1985.00, 
1986.00, 
1987.00, 
1988.00, 
1989.00, 
1990.00, 
1991.00, 
1992.00, 
1993.00, 
1994.00, 
1995.00, 
1996.00, 
1997.00, 
1998.00, 
1999.00, 
2000.00, 
2001.00, 
2002.00, 
2003.00, 
2004.00, 
2005.00, 
2006.00, 
2007.00, 
2008.00, 
2009.00, 
2010.00, 
2011.00, 
2012.00, 
2013.00, 
2014.00, 
2015.00, 
2016.00, 
2017.00, 
2018.00, 
2019.00, 
2020.00, 
2021.00, 
2022.00, 
2023.00, 
2024.00, 
2025.00, 
2026.00, 
2027.00, 
2028.00, 
2029.00, 
2030.00, 
2031.00, 
2032.00, 
2033.00, 
2034.00, 
2035.00, 
2036.00, 
2037.00, 
2038.00, 
2039.00, 
2040.00, 
2041.00, 
2042.00, 
2043.00, 
2044.00, 
2045.00, 
2046.00, 
2047.00, 
2048.00, 
2049.00, 
2050.00, 
2051.00, 
2052.00, 
2053.00, 
2054.00, 
2055.00, 
2056.00, 
2057.00, 
2058.00, 
2059.00, 
2060.00, 
2061.00, 
2062.00, 
2063.00, 
2064.00, 
2065.00, 
2066.00, 
2067.00, 
2068.00, 
2069.00, 
2070.00, 
2071.00, 
2072.00, 
2073.00, 
2074.00, 
2075.00, 
2076.00, 
2077.00, 
2078.00, 
2079.00, 
2080.00, 
2081.00, 
2082.00, 
2083.00, 
2084.00, 
2085.00, 
2086.00, 
2087.00, 
2088.00, 
2089.00, 
2090.00, 
2091.00, 
2092.00, 
2093.00, 
2094.00, 
2095.00, 
2096.00, 
2097.00, 
2098.00, 
2099.00, 
2100.00, 
2101.00, 
2102.00, 
2103.00, 
2104.00, 
2105.00, 
2106.00, 
2107.00, 
2108.00, 
2109.00, 
2110.00, 
2111.00, 
2112.00, 
2113.00, 
2114.00, 
2115.00, 
2116.00, 
2117.00, 
2118.00, 
2119.00, 
2120.00, 
2121.00, 
2122.00, 
2123.00, 
2124.00, 
2125.00, 
2126.00, 
2127.00, 
2128.00, 
2129.00, 
2130.00, 
2131.00, 
2132.00, 
2133.00, 
2134.00, 
2135.00, 
2136.00, 
2137.00, 
2138.00, 
2139.00, 
2140.00, 
2141.00, 
2142.00, 
2143.00, 
2144.00, 
2145.00, 
2146.00, 
2147.00, 
2148.00, 
2149.00, 
2150.00, 
2151.00, 
2152.00, 
2153.00, 
2154.00, 
2155.00, 
2156.00, 
2157.00, 
2158.00, 
2159.00, 
2160.00, 
2161.00, 
2162.00, 
2163.00, 
2164.00, 
2165.00, 
2166.00, 
2167.00, 
2168.00, 
2169.00, 
2170.00, 
2171.00, 
2172.00, 
2173.00, 
2174.00, 
2175.00, 
2176.00, 
2177.00, 
2178.00, 
2179.00, 
2180.00, 
2181.00, 
2182.00, 
2183.00, 
2184.00, 
2185.00, 
2186.00, 
2187.00, 
2188.00, 
2189.00, 
2190.00, 
2191.00, 
2192.00, 
2193.00, 
2194.00, 
2195.00, 
2196.00, 
2197.00, 
2198.00, 
2199.00, 
2200.00, 
2201.00, 
2202.00, 
2203.00, 
2204.00, 
2205.00, 
2206.00, 
2207.00, 
2208.00, 
2209.00, 
2210.00, 
2211.00, 
2212.00, 
2213.00, 
2214.00, 
2215.00, 
2216.00, 
2217.00, 
2218.00, 
2219.00, 
2220.00, 
2221.00, 
2222.00, 
2223.00, 
2224.00, 
2225.00, 
2226.00, 
2227.00, 
2228.00, 
2229.00, 
2230.00, 
2231.00, 
2232.00, 
2233.00, 
2234.00, 
2235.00, 
2236.00, 
2237.00, 
2238.00, 
2239.00, 
2240.00, 
2241.00, 
2242.00, 
2243.00, 
2244.00, 
2245.00, 
2246.00, 
2247.00, 
2248.00, 
2249.00, 
2250.00, 
2251.00, 
2252.00, 
2253.00, 
2254.00, 
2255.00, 
2256.00, 
2257.00, 
2258.00, 
2259.00, 
2260.00, 
2261.00, 
2262.00, 
2263.00, 
2264.00, 
2265.00, 
2266.00, 
2267.00, 
2268.00, 
2269.00, 
2270.00, 
2271.00, 
2272.00, 
2273.00, 
2274.00, 
2275.00, 
2276.00, 
2277.00, 
2278.00, 
2279.00, 
2280.00, 
2281.00, 
2282.00, 
2283.00, 
2284.00, 
2285.00, 
2286.00, 
2287.00, 
2288.00, 
2289.00, 
2290.00, 
2291.00, 
2292.00, 
2293.00, 
2294.00, 
2295.00, 
2296.00, 
2297.00, 
2298.00, 
2299.00, 
2300.00, 
2301.00, 
2302.00, 
2303.00, 
2304.00, 
2305.00, 
2306.00, 
2307.00, 
2308.00, 
2309.00, 
2310.00, 
2311.00, 
2312.00, 
2313.00, 
2314.00, 
2315.00, 
2316.00, 
2317.00, 
2318.00, 
2319.00, 
2320.00, 
2321.00, 
2322.00, 
2323.00, 
2324.00, 
2325.00, 
2326.00, 
2327.00, 
2328.00, 
2329.00, 
2330.00, 
2331.00, 
2332.00, 
2333.00, 
2334.00, 
2335.00, 
2336.00, 
2337.00, 
2338.00, 
2339.00, 
2340.00, 
2341.00, 
2342.00, 
2343.00, 
2344.00, 
2345.00, 
2346.00, 
2347.00, 
2348.00, 
2349.00, 
2350.00, 
2351.00, 
2352.00, 
2353.00, 
2354.00, 
2355.00, 
2356.00, 
2357.00, 
2358.00, 
2359.00, 
2360.00, 
2361.00, 
2362.00, 
2363.00, 
2364.00, 
2365.00, 
2366.00, 
2367.00, 
2368.00, 
2369.00, 
2370.00, 
2371.00, 
2372.00, 
2373.00, 
2374.00, 
2375.00, 
2376.00, 
2377.00, 
2378.00, 
2379.00, 
2380.00, 
2381.00, 
2382.00, 
2383.00, 
2384.00, 
2385.00, 
2386.00, 
2387.00, 
2388.00, 
2389.00, 
2390.00, 
2391.00, 
2392.00, 
2393.00, 
2394.00, 
2395.00, 
2396.00, 
2397.00, 
2398.00, 
2399.00, 
2400.00, 
2401.00, 
2402.00, 
2403.00, 
2404.00, 
2405.00, 
2406.00, 
2407.00, 
2408.00, 
2409.00, 
2410.00, 
2411.00, 
2412.00, 
2413.00, 
2414.00, 
2415.00, 
2416.00, 
2417.00, 
2418.00, 
2419.00, 
2420.00, 
2421.00, 
2422.00, 
2423.00, 
2424.00, 
2425.00, 
2426.00, 
2427.00, 
2428.00, 
2429.00, 
2430.00, 
2431.00, 
2432.00, 
2433.00, 
2434.00, 
2435.00, 
2436.00, 
2437.00, 
2438.00, 
2439.00, 
2440.00, 
2441.00, 
2442.00, 
2443.00, 
2444.00, 
2445.00, 
2446.00, 
2447.00, 
2448.00, 
2449.00, 
2450.00, 
2451.00, 
2452.00, 
2453.00, 
2454.00, 
2455.00, 
2456.00, 
2457.00, 
2458.00, 
2459.00, 
2460.00, 
2461.00, 
2462.00, 
2463.00, 
2464.00, 
2465.00, 
2466.00, 
2467.00, 
2468.00, 
2469.00, 
2470.00, 
2471.00, 
2472.00, 
2473.00, 
2474.00, 
2475.00, 
2476.00, 
2477.00, 
2478.00, 
2479.00, 
2480.00, 
2481.00, 
2482.00, 
2483.00, 
2484.00, 
2485.00, 
2486.00, 
2487.00, 
2488.00, 
2489.00, 
2490.00, 
2491.00, 
2492.00, 
2493.00, 
2494.00, 
2495.00, 
2496.00, 
2497.00, 
2498.00, 
2499.00, 
2500.00, 
2501.00, 
2502.00, 
2503.00, 
2504.00, 
2505.00, 
2506.00, 
2507.00, 
2508.00, 
2509.00, 
2510.00, 
2511.00, 
2512.00, 
2513.00, 
2514.00, 
2515.00, 
2516.00, 
2517.00, 
2518.00, 
2519.00, 
2520.00, 
2521.00, 
2522.00, 
2523.00, 
2524.00, 
2525.00, 
2526.00, 
2527.00, 
2528.00, 
2529.00, 
2530.00, 
2531.00, 
2532.00, 
2533.00, 
2534.00, 
2535.00, 
2536.00, 
2537.00, 
2538.00, 
2539.00, 
2540.00, 
2541.00, 
2542.00, 
2543.00, 
2544.00, 
2545.00, 
2546.00, 
2547.00, 
2548.00, 
2549.00, 
2550.00, 
2551.00, 
2552.00, 
2553.00, 
2554.00, 
2555.00, 
2556.00, 
2557.00, 
2558.00, 
2559.00, 
2560.00, 
2561.00, 
2562.00, 
2563.00, 
2564.00, 
2565.00, 
2566.00, 
2567.00, 
2568.00, 
2569.00, 
2570.00, 
2571.00, 
2572.00, 
2573.00, 
2574.00, 
2575.00, 
2576.00, 
2577.00, 
2578.00, 
2579.00, 
2580.00, 
2581.00, 
2582.00, 
2583.00, 
2584.00, 
2585.00, 
2586.00, 
2587.00, 
2588.00, 
2589.00, 
2590.00, 
2591.00, 
2592.00, 
2593.00, 
2594.00, 
2595.00, 
2596.00, 
2597.00, 
2598.00, 
2599.00, 
2600.00, 
