"1cP5 - RawData"
"Wavelength nm.","T%"
200.00,0.001
201.00,-0.001
202.00,-0.001
203.00,0.001
204.00,0.001
205.00,0.000
206.00,-0.002
207.00,-0.000
208.00,0.000
209.00,0.004
210.00,-0.000
211.00,0.004
212.00,0.003
213.00,0.001
214.00,-0.001
215.00,0.003
216.00,0.000
217.00,-0.002
218.00,0.003
219.00,0.001
220.00,0.001
221.00,0.002
222.00,0.000
223.00,0.005
224.00,-0.000
225.00,0.002
226.00,0.003
227.00,-0.002
228.00,-0.001
229.00,0.001
230.00,0.001
231.00,0.000
232.00,-0.001
233.00,0.001
234.00,0.001
235.00,0.001
236.00,0.002
237.00,0.002
238.00,0.000
239.00,0.001
240.00,0.002
241.00,-0.002
242.00,-0.001
243.00,0.002
244.00,0.001
245.00,-0.000
246.00,-0.001
247.00,-0.001
248.00,0.001
249.00,-0.000
250.00,0.000
251.00,-0.000
252.00,0.000
253.00,-0.000
254.00,0.000
255.00,-0.001
256.00,0.000
257.00,0.001
258.00,-0.000
259.00,-0.002
260.00,0.001
261.00,0.001
262.00,0.001
263.00,0.000
264.00,-0.001
265.00,-0.001
266.00,0.001
267.00,0.001
268.00,0.001
269.00,0.001
270.00,0.002
271.00,0.001
272.00,0.000
273.00,-0.000
274.00,-0.002
275.00,0.000
276.00,-0.001
277.00,-0.002
278.00,-0.001
279.00,0.001
280.00,0.000
281.00,0.000
282.00,-0.000
283.00,-0.001
284.00,0.002
285.00,0.002
286.00,-0.002
287.00,0.001
288.00,0.000
289.00,0.000
290.00,-0.000
291.00,0.001
292.00,-0.001
293.00,-0.000
294.00,-0.000
295.00,0.000
296.00,0.000
297.00,0.000
298.00,0.001
299.00,-0.000
300.00,-0.001
301.00,-0.001
302.00,0.000
303.00,-0.000
304.00,0.000
305.00,0.001
306.00,0.004
307.00,0.002
308.00,0.003
309.00,0.006
310.00,0.011
311.00,0.018
312.00,0.024
313.00,0.041
314.00,0.059
315.00,0.085
316.00,0.124
317.00,0.171
318.00,0.240
319.00,0.319
320.00,0.423
321.00,0.551
322.00,0.687
323.00,0.868
324.00,1.077
325.00,1.285
326.00,1.534
327.00,1.824
328.00,2.080
329.00,2.426
330.00,2.769
331.00,3.126
332.00,3.503
333.00,3.907
334.00,4.302
335.00,4.708
336.00,5.114
337.00,5.560
338.00,5.999
339.00,6.367
340.00,6.780
341.00,7.184
342.00,7.557
343.00,7.929
344.00,8.284
345.00,8.623
346.00,8.915
347.00,9.192
348.00,9.472
349.00,9.768
350.00,10.001
351.00,10.237
352.00,10.427
353.00,10.655
354.00,10.807
355.00,11.003
356.00,11.133
357.00,11.257
358.00,11.394
359.00,11.559
360.00,11.686
361.00,11.730
362.00,11.789
363.00,11.875
364.00,11.919
365.00,11.934
366.00,11.980
367.00,12.007
368.00,12.025
369.00,12.036
370.00,12.045
371.00,12.021
372.00,11.959
373.00,11.978
374.00,11.920
375.00,11.830
376.00,11.774
377.00,11.698
378.00,11.600
379.00,11.519
380.00,11.508
381.00,11.489
382.00,11.454
383.00,11.448
384.00,11.436
385.00,11.438
386.00,11.403
387.00,11.452
388.00,11.456
389.00,11.442
390.00,11.443
391.00,11.431
392.00,11.454
393.00,11.419
394.00,11.427
395.00,11.415
396.00,11.382
397.00,11.387
398.00,11.360
399.00,11.364
400.00,11.333
401.00,11.298
402.00,11.338
403.00,11.333
404.00,11.269
405.00,11.255
406.00,11.230
407.00,11.200
408.00,11.196
409.00,11.149
410.00,11.113
411.00,11.102
412.00,11.064
413.00,11.074
414.00,11.070
415.00,11.078
416.00,11.093
417.00,11.070
418.00,11.078
419.00,11.134
420.00,11.140
421.00,11.115
422.00,11.096
423.00,11.139
424.00,11.168
425.00,11.181
426.00,11.195
427.00,11.245
428.00,11.259
429.00,11.300
430.00,11.341
431.00,11.377
432.00,11.401
433.00,11.436
434.00,11.486
435.00,11.535
436.00,11.589
437.00,11.628
438.00,11.691
439.00,11.738
440.00,11.819
441.00,11.891
442.00,11.935
443.00,11.999
444.00,12.073
445.00,12.125
446.00,12.209
447.00,12.275
448.00,12.374
449.00,12.457
450.00,12.568
451.00,12.645
452.00,12.740
453.00,12.834
454.00,12.898
455.00,13.020
456.00,13.116
457.00,13.214
458.00,13.307
459.00,13.423
460.00,13.547
461.00,13.651
462.00,13.757
463.00,13.885
464.00,13.991
465.00,14.125
466.00,14.229
467.00,14.353
468.00,14.426
469.00,14.571
470.00,14.650
471.00,14.755
472.00,14.900
473.00,14.994
474.00,15.130
475.00,15.225
476.00,15.358
477.00,15.491
478.00,15.583
479.00,15.781
480.00,15.870
481.00,16.027
482.00,16.175
483.00,16.319
484.00,16.480
485.00,16.616
486.00,16.762
487.00,16.911
488.00,17.048
489.00,17.214
490.00,17.383
491.00,17.513
492.00,17.641
493.00,17.863
494.00,18.000
495.00,18.028
496.00,18.189
497.00,18.290
498.00,18.459
499.00,18.619
500.00,18.732
501.00,18.844
502.00,19.002
503.00,19.142
504.00,19.197
505.00,19.413
506.00,19.550
507.00,19.649
508.00,19.776
509.00,19.936
510.00,20.082
511.00,20.168
512.00,20.390
513.00,20.518
514.00,20.615
515.00,20.775
516.00,20.873
517.00,20.981
518.00,21.145
519.00,21.243
520.00,21.337
521.00,21.466
522.00,21.561
523.00,21.634
524.00,21.749
525.00,21.915
526.00,22.009
527.00,22.110
528.00,22.189
529.00,22.386
530.00,22.533
531.00,22.578
532.00,22.723
533.00,22.766
534.00,22.929
535.00,23.013
536.00,23.098
537.00,23.205
538.00,23.301
539.00,23.387
540.00,23.469
541.00,23.549
542.00,23.601
543.00,23.703
544.00,23.799
545.00,23.866
546.00,23.932
547.00,24.068
548.00,24.158
549.00,24.227
550.00,24.296
551.00,24.417
552.00,24.495
553.00,24.530
554.00,24.652
555.00,24.693
556.00,24.771
557.00,24.866
558.00,24.914
559.00,24.990
560.00,25.110
561.00,25.177
562.00,25.245
563.00,25.257
564.00,25.350
565.00,25.382
566.00,25.419
567.00,25.482
568.00,25.530
569.00,25.623
570.00,25.660
571.00,25.705
572.00,25.754
573.00,25.736
574.00,25.805
575.00,25.829
576.00,25.862
577.00,25.910
578.00,25.995
579.00,26.078
580.00,26.096
581.00,26.295
582.00,26.365
583.00,26.334
584.00,26.429
585.00,26.535
586.00,26.551
587.00,26.655
588.00,26.686
589.00,26.648
590.00,26.790
591.00,26.826
592.00,26.809
593.00,26.855
594.00,26.953
595.00,27.063
596.00,27.122
597.00,27.175
598.00,27.261
599.00,27.273
600.00,27.328
601.00,27.377
602.00,27.413
603.00,27.515
604.00,27.578
605.00,27.635
606.00,27.724
607.00,27.782
608.00,27.812
609.00,27.805
610.00,27.964
611.00,28.134
612.00,27.998
613.00,28.065
614.00,28.145
615.00,28.192
616.00,28.308
617.00,28.373
618.00,28.390
619.00,28.482
620.00,28.415
621.00,28.595
622.00,28.768
623.00,28.790
624.00,28.900
625.00,28.977
626.00,29.038
627.00,29.135
628.00,29.151
629.00,29.251
630.00,29.322
631.00,29.380
632.00,29.532
633.00,29.625
634.00,29.761
635.00,29.842
636.00,29.943
637.00,29.997
638.00,30.063
639.00,30.201
640.00,30.329
641.00,30.368
642.00,30.450
643.00,30.590
644.00,30.710
645.00,30.823
646.00,31.020
647.00,31.097
648.00,31.180
649.00,31.284
650.00,31.389
651.00,31.515
652.00,31.613
653.00,31.729
654.00,31.838
655.00,32.103
656.00,32.274
657.00,32.156
658.00,32.356
659.00,32.501
660.00,32.528
661.00,32.561
662.00,32.830
663.00,33.053
664.00,33.561
665.00,33.478
666.00,33.465
667.00,33.613
668.00,33.738
669.00,33.957
670.00,34.240
671.00,34.289
672.00,34.409
673.00,34.457
674.00,34.605
675.00,34.778
676.00,35.073
677.00,35.186
678.00,35.203
679.00,35.363
680.00,35.314
681.00,35.498
682.00,35.726
683.00,35.817
684.00,36.117
685.00,36.290
686.00,36.308
687.00,36.488
688.00,36.580
689.00,36.625
690.00,37.005
691.00,37.278
692.00,36.942
693.00,37.268
694.00,37.569
695.00,37.649
696.00,37.802
697.00,37.828
698.00,37.971
699.00,38.292
700.00,38.459
701.00,38.576
702.00,38.732
703.00,38.947
704.00,39.087
705.00,39.057
706.00,39.234
707.00,39.365
708.00,39.356
709.00,39.786
710.00,40.174
711.00,39.847
712.00,40.018
713.00,40.226
714.00,40.372
715.00,40.366
716.00,40.568
717.00,40.645
718.00,40.809
719.00,40.970
720.00,41.065
721.00,45.194
722.00,45.337
723.00,45.359
724.00,45.473
725.00,45.500
726.00,45.634
727.00,45.694
728.00,45.860
729.00,45.881
730.00,46.041
731.00,46.082
732.00,46.192
733.00,46.287
734.00,46.370
735.00,46.408
736.00,46.565
737.00,46.674
738.00,46.761
739.00,46.856
740.00,46.930
741.00,47.027
742.00,47.220
743.00,47.142
744.00,47.192
745.00,47.340
746.00,47.351
747.00,47.452
748.00,47.481
749.00,47.568
750.00,47.592
751.00,47.691
752.00,47.707
753.00,47.759
754.00,47.841
755.00,47.922
756.00,47.965
757.00,47.974
758.00,48.075
759.00,48.114
760.00,48.170
761.00,48.252
762.00,48.302
763.00,48.402
764.00,48.412
765.00,48.391
766.00,48.451
767.00,48.545
768.00,48.650
769.00,48.650
770.00,48.721
771.00,48.756
772.00,48.860
773.00,48.812
774.00,48.883
775.00,49.075
776.00,48.974
777.00,49.076
778.00,49.109
779.00,49.161
780.00,49.121
781.00,49.213
782.00,49.222
783.00,49.266
784.00,49.273
785.00,49.247
786.00,49.346
787.00,49.334
788.00,49.302
789.00,49.370
790.00,49.386
791.00,49.526
792.00,49.410
793.00,49.372
794.00,49.468
795.00,49.499
796.00,49.515
797.00,49.439
798.00,49.497
799.00,49.438
800.00,49.514
801.00,49.537
802.00,49.512
803.00,49.565
804.00,49.517
805.00,49.668
806.00,49.556
807.00,49.616
808.00,49.618
809.00,49.632
810.00,49.570
811.00,49.620
812.00,49.647
813.00,49.617
814.00,49.711
815.00,49.608
816.00,49.596
817.00,49.663
818.00,49.538
819.00,49.670
820.00,49.692
821.00,49.622
822.00,49.712
823.00,49.597
824.00,49.664
825.00,49.639
826.00,49.620
827.00,49.651
828.00,49.710
829.00,49.716
830.00,49.757
831.00,52.098
832.00,52.134
833.00,52.062
834.00,52.093
835.00,52.104
836.00,52.140
837.00,52.086
838.00,52.068
839.00,52.078
840.00,52.062
841.00,52.085
842.00,52.057
843.00,52.081
844.00,52.068
845.00,52.003
846.00,52.058
847.00,52.032
848.00,52.066
849.00,51.970
850.00,51.976
851.00,51.870
852.00,52.073
853.00,51.893
854.00,51.927
855.00,51.851
856.00,51.887
857.00,51.886
858.00,51.867
859.00,51.834
860.00,51.851
861.00,51.868
862.00,51.789
863.00,51.836
864.00,51.828
865.00,51.844
866.00,51.820
867.00,51.793
868.00,51.798
869.00,51.767
870.00,51.830
871.00,51.814
872.00,51.840
873.00,51.779
874.00,51.850
875.00,51.771
876.00,51.804
877.00,51.775
878.00,51.804
879.00,51.774
880.00,51.754
881.00,51.731
882.00,51.798
883.00,51.799
884.00,51.694
885.00,51.704
886.00,51.734
887.00,51.674
888.00,51.638
889.00,51.644
890.00,51.639
891.00,51.611
892.00,51.605
893.00,51.573
894.00,51.607
895.00,51.582
896.00,51.577
897.00,51.553
898.00,51.543
899.00,51.539
900.00,51.529
901.00,51.499
902.00,51.533
903.00,51.506
904.00,51.491
905.00,51.474
906.00,51.472
907.00,51.456
908.00,51.407
909.00,51.423
910.00,51.377
911.00,51.408
912.00,51.394
913.00,51.350
914.00,51.342
915.00,51.318
916.00,51.291
917.00,51.297
918.00,51.268
919.00,51.255
920.00,51.219
921.00,51.246
922.00,51.144
923.00,51.240
924.00,51.151
925.00,51.184
926.00,51.167
927.00,51.152
928.00,51.098
929.00,51.147
930.00,51.087
931.00,51.073
932.00,51.016
933.00,51.065
934.00,51.034
935.00,51.003
936.00,50.982
937.00,50.966
938.00,51.003
939.00,50.972
940.00,50.916
941.00,50.920
942.00,50.914
943.00,50.898
944.00,50.860
945.00,50.868
946.00,50.877
947.00,50.811
948.00,50.809
949.00,50.791
950.00,50.771
951.00,50.745
952.00,50.735
953.00,50.752
954.00,50.699
955.00,50.648
956.00,50.666
957.00,50.608
958.00,50.638
959.00,50.577
960.00,50.576
961.00,50.571
962.00,50.561
963.00,50.526
964.00,50.518
965.00,50.537
966.00,50.491
967.00,50.508
968.00,50.455
969.00,50.511
970.00,50.475
971.00,50.487
972.00,50.456
973.00,50.501
974.00,50.532
975.00,50.477
976.00,50.527
977.00,50.492
978.00,50.557
979.00,50.496
980.00,50.511
981.00,50.523
982.00,50.479
983.00,50.506
984.00,50.538
985.00,50.523
986.00,50.487
987.00,50.513
988.00,50.473
989.00,50.465
990.00,50.470
991.00,50.453
992.00,50.465
993.00,50.430
994.00,50.406
995.00,50.394
996.00,50.382
997.00,50.377
998.00,50.320
999.00,50.363
1000.00,50.389
1001.00,50.313
1002.00,50.327
1003.00,50.310
1004.00,50.289
1005.00,50.260
1006.00,50.304
1007.00,50.260
1008.00,50.240
1009.00,50.223
1010.00,50.222
1011.00,50.204
1012.00,50.191
1013.00,50.201
1014.00,50.156
1015.00,50.173
1016.00,50.133
1017.00,50.118
1018.00,50.131
1019.00,50.090
1020.00,50.101
1021.00,50.078
1022.00,50.077
1023.00,50.021
1024.00,50.031
1025.00,50.015
1026.00,49.995
1027.00,49.972
1028.00,49.965
1029.00,49.947
1030.00,49.912
1031.00,49.949
1032.00,49.905
1033.00,49.916
1034.00,49.875
1035.00,49.847
1036.00,49.827
1037.00,49.812
1038.00,49.807
1039.00,49.770
1040.00,49.760
1041.00,49.719
1042.00,49.734
1043.00,49.727
1044.00,49.770
1045.00,49.742
1046.00,49.731
1047.00,49.761
1048.00,49.749
1049.00,49.777
1050.00,49.763
1051.00,49.807
1052.00,49.799
1053.00,49.801
1054.00,49.800
1055.00,49.821
1056.00,49.834
1057.00,49.829
1058.00,49.810
1059.00,49.796
1060.00,49.833
1061.00,49.796
1062.00,49.797
1063.00,49.812
1064.00,49.807
1065.00,49.766
1066.00,49.792
1067.00,49.779
1068.00,49.814
1069.00,49.764
1070.00,49.751
1071.00,49.736
1072.00,49.756
1073.00,49.718
1074.00,49.713
1075.00,49.702
1076.00,49.716
1077.00,49.701
1078.00,49.663
1079.00,49.685
1080.00,49.686
1081.00,49.677
1082.00,49.671
1083.00,49.653
1084.00,49.648
1085.00,49.660
1086.00,49.636
1087.00,49.639
1088.00,49.621
1089.00,49.623
1090.00,49.609
1091.00,49.625
1092.00,49.601
1093.00,49.590
1094.00,49.556
1095.00,49.566
1096.00,49.555
1097.00,49.564
1098.00,49.551
1099.00,49.550
1100.00,49.517
1101.00,49.531
1102.00,49.511
1103.00,49.521
1104.00,49.511
1105.00,49.518
1106.00,49.506
1107.00,49.481
1108.00,49.466
1109.00,49.464
1110.00,49.448
1111.00,49.448
1112.00,49.433
1113.00,49.435
1114.00,49.416
1115.00,49.436
1116.00,49.418
1117.00,49.419
1118.00,49.412
1119.00,49.417
1120.00,49.409
1121.00,49.405
1122.00,49.382
1123.00,49.364
1124.00,49.367
1125.00,49.377
1126.00,49.359
1127.00,49.370
1128.00,49.339
1129.00,49.334
1130.00,49.304
1131.00,49.330
1132.00,49.326
1133.00,49.323
1134.00,49.316
1135.00,49.321
1136.00,49.306
1137.00,49.317
1138.00,49.306
1139.00,49.307
1140.00,49.288
1141.00,49.292
1142.00,49.281
1143.00,49.305
1144.00,49.263
1145.00,49.277
1146.00,49.272
1147.00,49.264
1148.00,49.268
1149.00,49.273
1150.00,49.270
1151.00,49.269
1152.00,49.255
1153.00,49.255
1154.00,49.227
1155.00,49.236
1156.00,49.224
1157.00,49.249
1158.00,49.240
1159.00,49.250
1160.00,49.246
1161.00,49.255
1162.00,49.259
1163.00,49.241
1164.00,49.256
1165.00,49.231
1166.00,49.239
1167.00,49.220
1168.00,49.235
1169.00,49.213
1170.00,49.218
1171.00,49.210
1172.00,49.210
1173.00,49.217
1174.00,49.216
1175.00,49.218
1176.00,49.229
1177.00,49.195
1178.00,49.211
1179.00,49.223
1180.00,49.216
1181.00,49.234
1182.00,49.219
1183.00,49.249
1184.00,49.204
1185.00,49.220
1186.00,49.213
1187.00,49.205
1188.00,49.204
1189.00,49.200
1190.00,49.203
1191.00,49.176
1192.00,49.216
1193.00,49.196
1194.00,49.204
1195.00,49.194
1196.00,49.223
1197.00,49.232
1198.00,49.197
1199.00,49.199
1200.00,49.220
1201.00,49.242
1202.00,49.217
1203.00,49.213
1204.00,49.204
1205.00,49.216
1206.00,49.210
1207.00,49.198
1208.00,49.192
1209.00,49.203
1210.00,49.202
1211.00,49.204
1212.00,49.236
1213.00,49.189
1214.00,49.210
1215.00,49.201
1216.00,49.206
1217.00,49.208
1218.00,49.199
1219.00,49.243
1220.00,49.220
1221.00,49.238
1222.00,49.225
1223.00,49.240
1224.00,49.217
1225.00,49.217
1226.00,49.209
1227.00,49.207
1228.00,49.259
1229.00,49.235
1230.00,49.273
1231.00,49.257
1232.00,49.279
1233.00,49.290
1234.00,49.283
1235.00,49.293
1236.00,49.276
1237.00,49.277
1238.00,49.276
1239.00,49.276
1240.00,49.277
1241.00,49.322
1242.00,49.310
1243.00,49.294
1244.00,49.285
1245.00,49.321
1246.00,49.324
1247.00,49.310
1248.00,49.304
1249.00,49.319
1250.00,49.334
1251.00,49.312
1252.00,49.326
1253.00,49.318
1254.00,49.346
1255.00,49.325
1256.00,49.315
1257.00,49.311
1258.00,49.364
1259.00,49.368
1260.00,49.380
1261.00,49.375
1262.00,49.365
1263.00,49.370
1264.00,49.376
1265.00,49.377
1266.00,49.379
1267.00,49.406
1268.00,49.388
1269.00,49.396
1270.00,49.419
1271.00,49.412
1272.00,49.422
1273.00,49.449
1274.00,49.446
1275.00,49.452
1276.00,49.435
1277.00,49.451
1278.00,49.463
1279.00,49.469
1280.00,49.461
1281.00,49.480
1282.00,49.484
1283.00,49.485
1284.00,49.493
1285.00,49.479
1286.00,49.505
1287.00,49.487
1288.00,49.512
1289.00,49.505
1290.00,49.526
1291.00,49.524
1292.00,49.514
1293.00,49.522
1294.00,49.544
1295.00,49.567
1296.00,49.576
1297.00,49.571
1298.00,49.604
1299.00,49.568
1300.00,49.601
1301.00,49.580
1302.00,49.617
1303.00,49.604
1304.00,49.595
1305.00,49.641
1306.00,49.641
1307.00,49.656
1308.00,49.663
1309.00,49.677
1310.00,49.664
1311.00,49.653
1312.00,49.661
1313.00,49.678
1314.00,49.692
1315.00,49.699
1316.00,49.700
1317.00,49.731
1318.00,49.733
1319.00,49.745
1320.00,49.724
1321.00,49.909
1322.00,49.892
1323.00,49.873
1324.00,49.860
1325.00,49.848
1326.00,49.879
1327.00,49.866
1328.00,49.855
1329.00,49.860
1330.00,49.866
1331.00,49.880
1332.00,49.928
1333.00,49.841
1334.00,49.943
1335.00,49.963
1336.00,50.005
1337.00,50.022
1338.00,50.099
1339.00,50.107
1340.00,50.169
1341.00,50.244
1342.00,50.297
1343.00,50.337
1344.00,50.394
1345.00,50.462
1346.00,50.519
1347.00,50.559
1348.00,50.564
1349.00,50.561
1350.00,50.580
1351.00,50.586
1352.00,50.611
1353.00,50.594
1354.00,50.606
1355.00,50.557
1356.00,50.633
1357.00,50.632
1358.00,50.680
1359.00,50.681
1360.00,50.674
1361.00,50.650
1362.00,50.709
1363.00,50.717
1364.00,50.662
1365.00,50.654
1366.00,50.734
1367.00,50.637
1368.00,50.672
1369.00,50.702
1370.00,50.635
1371.00,50.713
1372.00,50.705
1373.00,50.669
1374.00,50.698
1375.00,50.663
1376.00,50.698
1377.00,50.653
1378.00,50.922
1379.00,50.662
1380.00,50.727
1381.00,50.713
1382.00,50.624
1383.00,50.698
1384.00,50.621
1385.00,50.682
1386.00,50.665
1387.00,50.687
1388.00,50.598
1389.00,50.681
1390.00,50.676
1391.00,50.692
1392.00,50.652
1393.00,50.744
1394.00,50.768
1395.00,50.630
1396.00,50.612
1397.00,50.676
1398.00,50.647
1399.00,50.620
1400.00,50.673
1401.00,50.669
1402.00,50.736
1403.00,50.643
1404.00,50.731
1405.00,50.729
1406.00,50.764
1407.00,50.657
1408.00,50.685
1409.00,50.743
1410.00,50.767
1411.00,50.739
1412.00,50.852
1413.00,50.774
1414.00,50.743
1415.00,50.795
1416.00,50.816
1417.00,50.854
1418.00,50.792
1419.00,50.795
1420.00,50.852
1421.00,50.924
1422.00,50.886
1423.00,50.927
1424.00,50.909
1425.00,50.954
1426.00,50.951
1427.00,50.972
1428.00,50.979
1429.00,50.984
1430.00,51.007
1431.00,51.037
1432.00,51.054
1433.00,51.058
1434.00,51.034
1435.00,51.141
1436.00,51.127
1437.00,51.112
1438.00,51.131
1439.00,51.186
1440.00,51.212
1441.00,51.183
1442.00,51.219
1443.00,51.274
1444.00,51.331
1445.00,51.271
1446.00,51.295
1447.00,51.329
1448.00,51.385
1449.00,51.370
1450.00,51.366
1451.00,51.381
1452.00,51.401
1453.00,51.407
1454.00,51.449
1455.00,51.473
1456.00,51.502
1457.00,51.488
1458.00,51.535
1459.00,51.549
1460.00,51.566
1461.00,51.559
1462.00,51.603
1463.00,51.589
1464.00,51.606
1465.00,51.619
1466.00,51.613
1467.00,51.646
1468.00,51.704
1469.00,51.667
1470.00,51.708
1471.00,51.703
1472.00,51.732
1473.00,51.768
1474.00,51.792
1475.00,51.819
1476.00,51.824
1477.00,51.791
1478.00,51.837
1479.00,51.852
1480.00,51.849
1481.00,51.864
1482.00,51.875
1483.00,51.914
1484.00,51.920
1485.00,51.930
1486.00,51.971
1487.00,51.972
1488.00,51.980
1489.00,51.984
1490.00,52.001
1491.00,52.014
1492.00,52.040
1493.00,52.013
1494.00,52.063
1495.00,52.044
1496.00,52.077
1497.00,52.064
1498.00,52.083
1499.00,52.090
1500.00,52.108
1501.00, 
1502.00, 
1503.00, 
1504.00, 
1505.00, 
1506.00, 
1507.00, 
1508.00, 
1509.00, 
1510.00, 
1511.00, 
1512.00, 
1513.00, 
1514.00, 
1515.00, 
1516.00, 
1517.00, 
1518.00, 
1519.00, 
1520.00, 
1521.00, 
1522.00, 
1523.00, 
1524.00, 
1525.00, 
1526.00, 
1527.00, 
1528.00, 
1529.00, 
1530.00, 
1531.00, 
1532.00, 
1533.00, 
1534.00, 
1535.00, 
1536.00, 
1537.00, 
1538.00, 
1539.00, 
1540.00, 
1541.00, 
1542.00, 
1543.00, 
1544.00, 
1545.00, 
1546.00, 
1547.00, 
1548.00, 
1549.00, 
1550.00, 
1551.00, 
1552.00, 
1553.00, 
1554.00, 
1555.00, 
1556.00, 
1557.00, 
1558.00, 
1559.00, 
1560.00, 
1561.00, 
1562.00, 
1563.00, 
1564.00, 
1565.00, 
1566.00, 
1567.00, 
1568.00, 
1569.00, 
1570.00, 
1571.00, 
1572.00, 
1573.00, 
1574.00, 
1575.00, 
1576.00, 
1577.00, 
1578.00, 
1579.00, 
1580.00, 
1581.00, 
1582.00, 
1583.00, 
1584.00, 
1585.00, 
1586.00, 
1587.00, 
1588.00, 
1589.00, 
1590.00, 
1591.00, 
1592.00, 
1593.00, 
1594.00, 
1595.00, 
1596.00, 
1597.00, 
1598.00, 
1599.00, 
1600.00, 
1601.00, 
1602.00, 
1603.00, 
1604.00, 
1605.00, 
1606.00, 
1607.00, 
1608.00, 
1609.00, 
1610.00, 
1611.00, 
1612.00, 
1613.00, 
1614.00, 
1615.00, 
1616.00, 
1617.00, 
1618.00, 
1619.00, 
1620.00, 
1621.00, 
1622.00, 
1623.00, 
1624.00, 
1625.00, 
1626.00, 
1627.00, 
1628.00, 
1629.00, 
1630.00, 
1631.00, 
1632.00, 
1633.00, 
1634.00, 
1635.00, 
1636.00, 
1637.00, 
1638.00, 
1639.00, 
1640.00, 
1641.00, 
1642.00, 
1643.00, 
1644.00, 
1645.00, 
1646.00, 
1647.00, 
1648.00, 
1649.00, 
1650.00, 
1651.00, 
1652.00, 
1653.00, 
1654.00, 
1655.00, 
1656.00, 
1657.00, 
1658.00, 
1659.00, 
1660.00, 
1661.00, 
1662.00, 
1663.00, 
1664.00, 
1665.00, 
1666.00, 
1667.00, 
1668.00, 
1669.00, 
1670.00, 
1671.00, 
1672.00, 
1673.00, 
1674.00, 
1675.00, 
1676.00, 
1677.00, 
1678.00, 
1679.00, 
1680.00, 
1681.00, 
1682.00, 
1683.00, 
1684.00, 
1685.00, 
1686.00, 
1687.00, 
1688.00, 
1689.00, 
1690.00, 
1691.00, 
1692.00, 
1693.00, 
1694.00, 
1695.00, 
1696.00, 
1697.00, 
1698.00, 
1699.00, 
1700.00, 
1701.00, 
1702.00, 
1703.00, 
1704.00, 
1705.00, 
1706.00, 
1707.00, 
1708.00, 
1709.00, 
1710.00, 
1711.00, 
1712.00, 
1713.00, 
1714.00, 
1715.00, 
1716.00, 
1717.00, 
1718.00, 
1719.00, 
1720.00, 
1721.00, 
1722.00, 
1723.00, 
1724.00, 
1725.00, 
1726.00, 
1727.00, 
1728.00, 
1729.00, 
1730.00, 
1731.00, 
1732.00, 
1733.00, 
1734.00, 
1735.00, 
1736.00, 
1737.00, 
1738.00, 
1739.00, 
1740.00, 
1741.00, 
1742.00, 
1743.00, 
1744.00, 
1745.00, 
1746.00, 
1747.00, 
1748.00, 
1749.00, 
1750.00, 
1751.00, 
1752.00, 
1753.00, 
1754.00, 
1755.00, 
1756.00, 
1757.00, 
1758.00, 
1759.00, 
1760.00, 
1761.00, 
1762.00, 
1763.00, 
1764.00, 
1765.00, 
1766.00, 
1767.00, 
1768.00, 
1769.00, 
1770.00, 
1771.00, 
1772.00, 
1773.00, 
1774.00, 
1775.00, 
1776.00, 
1777.00, 
1778.00, 
1779.00, 
1780.00, 
1781.00, 
1782.00, 
1783.00, 
1784.00, 
1785.00, 
1786.00, 
1787.00, 
1788.00, 
1789.00, 
1790.00, 
1791.00, 
1792.00, 
1793.00, 
1794.00, 
1795.00, 
1796.00, 
1797.00, 
1798.00, 
1799.00, 
1800.00, 
1801.00, 
1802.00, 
1803.00, 
1804.00, 
1805.00, 
1806.00, 
1807.00, 
1808.00, 
1809.00, 
1810.00, 
1811.00, 
1812.00, 
1813.00, 
1814.00, 
1815.00, 
1816.00, 
1817.00, 
1818.00, 
1819.00, 
1820.00, 
1821.00, 
1822.00, 
1823.00, 
1824.00, 
1825.00, 
1826.00, 
1827.00, 
1828.00, 
1829.00, 
1830.00, 
1831.00, 
1832.00, 
1833.00, 
1834.00, 
1835.00, 
1836.00, 
1837.00, 
1838.00, 
1839.00, 
1840.00, 
1841.00, 
1842.00, 
1843.00, 
1844.00, 
1845.00, 
1846.00, 
1847.00, 
1848.00, 
1849.00, 
1850.00, 
1851.00, 
1852.00, 
1853.00, 
1854.00, 
1855.00, 
1856.00, 
1857.00, 
1858.00, 
1859.00, 
1860.00, 
1861.00, 
1862.00, 
1863.00, 
1864.00, 
1865.00, 
1866.00, 
1867.00, 
1868.00, 
1869.00, 
1870.00, 
1871.00, 
1872.00, 
1873.00, 
1874.00, 
1875.00, 
1876.00, 
1877.00, 
1878.00, 
1879.00, 
1880.00, 
1881.00, 
1882.00, 
1883.00, 
1884.00, 
1885.00, 
1886.00, 
1887.00, 
1888.00, 
1889.00, 
1890.00, 
1891.00, 
1892.00, 
1893.00, 
1894.00, 
1895.00, 
1896.00, 
1897.00, 
1898.00, 
1899.00, 
1900.00, 
1901.00, 
1902.00, 
1903.00, 
1904.00, 
1905.00, 
1906.00, 
1907.00, 
1908.00, 
1909.00, 
1910.00, 
1911.00, 
1912.00, 
1913.00, 
1914.00, 
1915.00, 
1916.00, 
1917.00, 
1918.00, 
1919.00, 
1920.00, 
1921.00, 
1922.00, 
1923.00, 
1924.00, 
1925.00, 
1926.00, 
1927.00, 
1928.00, 
1929.00, 
1930.00, 
1931.00, 
1932.00, 
1933.00, 
1934.00, 
1935.00, 
1936.00, 
1937.00, 
1938.00, 
1939.00, 
1940.00, 
1941.00, 
1942.00, 
1943.00, 
1944.00, 
1945.00, 
1946.00, 
1947.00, 
1948.00, 
1949.00, 
1950.00, 
1951.00, 
1952.00, 
1953.00, 
1954.00, 
1955.00, 
1956.00, 
1957.00, 
1958.00, 
1959.00, 
1960.00, 
1961.00, 
1962.00, 
1963.00, 
1964.00, 
1965.00, 
1966.00, 
1967.00, 
1968.00, 
1969.00, 
1970.00, 
1971.00, 
1972.00, 
1973.00, 
1974.00, 
1975.00, 
1976.00, 
1977.00, 
1978.00, 
1979.00, 
1980.00, 
1981.00, 
1982.00, 
1983.00, 
1984.00, 
1985.00, 
1986.00, 
1987.00, 
1988.00, 
1989.00, 
1990.00, 
1991.00, 
1992.00, 
1993.00, 
1994.00, 
1995.00, 
1996.00, 
1997.00, 
1998.00, 
1999.00, 
2000.00, 
2001.00, 
2002.00, 
2003.00, 
2004.00, 
2005.00, 
2006.00, 
2007.00, 
2008.00, 
2009.00, 
2010.00, 
2011.00, 
2012.00, 
2013.00, 
2014.00, 
2015.00, 
2016.00, 
2017.00, 
2018.00, 
2019.00, 
2020.00, 
2021.00, 
2022.00, 
2023.00, 
2024.00, 
2025.00, 
2026.00, 
2027.00, 
2028.00, 
2029.00, 
2030.00, 
2031.00, 
2032.00, 
2033.00, 
2034.00, 
2035.00, 
2036.00, 
2037.00, 
2038.00, 
2039.00, 
2040.00, 
2041.00, 
2042.00, 
2043.00, 
2044.00, 
2045.00, 
2046.00, 
2047.00, 
2048.00, 
2049.00, 
2050.00, 
2051.00, 
2052.00, 
2053.00, 
2054.00, 
2055.00, 
2056.00, 
2057.00, 
2058.00, 
2059.00, 
2060.00, 
2061.00, 
2062.00, 
2063.00, 
2064.00, 
2065.00, 
2066.00, 
2067.00, 
2068.00, 
2069.00, 
2070.00, 
2071.00, 
2072.00, 
2073.00, 
2074.00, 
2075.00, 
2076.00, 
2077.00, 
2078.00, 
2079.00, 
2080.00, 
2081.00, 
2082.00, 
2083.00, 
2084.00, 
2085.00, 
2086.00, 
2087.00, 
2088.00, 
2089.00, 
2090.00, 
2091.00, 
2092.00, 
2093.00, 
2094.00, 
2095.00, 
2096.00, 
2097.00, 
2098.00, 
2099.00, 
2100.00, 
2101.00, 
2102.00, 
2103.00, 
2104.00, 
2105.00, 
2106.00, 
2107.00, 
2108.00, 
2109.00, 
2110.00, 
2111.00, 
2112.00, 
2113.00, 
2114.00, 
2115.00, 
2116.00, 
2117.00, 
2118.00, 
2119.00, 
2120.00, 
2121.00, 
2122.00, 
2123.00, 
2124.00, 
2125.00, 
2126.00, 
2127.00, 
2128.00, 
2129.00, 
2130.00, 
2131.00, 
2132.00, 
2133.00, 
2134.00, 
2135.00, 
2136.00, 
2137.00, 
2138.00, 
2139.00, 
2140.00, 
2141.00, 
2142.00, 
2143.00, 
2144.00, 
2145.00, 
2146.00, 
2147.00, 
2148.00, 
2149.00, 
2150.00, 
2151.00, 
2152.00, 
2153.00, 
2154.00, 
2155.00, 
2156.00, 
2157.00, 
2158.00, 
2159.00, 
2160.00, 
2161.00, 
2162.00, 
2163.00, 
2164.00, 
2165.00, 
2166.00, 
2167.00, 
2168.00, 
2169.00, 
2170.00, 
2171.00, 
2172.00, 
2173.00, 
2174.00, 
2175.00, 
2176.00, 
2177.00, 
2178.00, 
2179.00, 
2180.00, 
2181.00, 
2182.00, 
2183.00, 
2184.00, 
2185.00, 
2186.00, 
2187.00, 
2188.00, 
2189.00, 
2190.00, 
2191.00, 
2192.00, 
2193.00, 
2194.00, 
2195.00, 
2196.00, 
2197.00, 
2198.00, 
2199.00, 
2200.00, 
2201.00, 
2202.00, 
2203.00, 
2204.00, 
2205.00, 
2206.00, 
2207.00, 
2208.00, 
2209.00, 
2210.00, 
2211.00, 
2212.00, 
2213.00, 
2214.00, 
2215.00, 
2216.00, 
2217.00, 
2218.00, 
2219.00, 
2220.00, 
2221.00, 
2222.00, 
2223.00, 
2224.00, 
2225.00, 
2226.00, 
2227.00, 
2228.00, 
2229.00, 
2230.00, 
2231.00, 
2232.00, 
2233.00, 
2234.00, 
2235.00, 
2236.00, 
2237.00, 
2238.00, 
2239.00, 
2240.00, 
2241.00, 
2242.00, 
2243.00, 
2244.00, 
2245.00, 
2246.00, 
2247.00, 
2248.00, 
2249.00, 
2250.00, 
2251.00, 
2252.00, 
2253.00, 
2254.00, 
2255.00, 
2256.00, 
2257.00, 
2258.00, 
2259.00, 
2260.00, 
2261.00, 
2262.00, 
2263.00, 
2264.00, 
2265.00, 
2266.00, 
2267.00, 
2268.00, 
2269.00, 
2270.00, 
2271.00, 
2272.00, 
2273.00, 
2274.00, 
2275.00, 
2276.00, 
2277.00, 
2278.00, 
2279.00, 
2280.00, 
2281.00, 
2282.00, 
2283.00, 
2284.00, 
2285.00, 
2286.00, 
2287.00, 
2288.00, 
2289.00, 
2290.00, 
2291.00, 
2292.00, 
2293.00, 
2294.00, 
2295.00, 
2296.00, 
2297.00, 
2298.00, 
2299.00, 
2300.00, 
2301.00, 
2302.00, 
2303.00, 
2304.00, 
2305.00, 
2306.00, 
2307.00, 
2308.00, 
2309.00, 
2310.00, 
2311.00, 
2312.00, 
2313.00, 
2314.00, 
2315.00, 
2316.00, 
2317.00, 
2318.00, 
2319.00, 
2320.00, 
2321.00, 
2322.00, 
2323.00, 
2324.00, 
2325.00, 
2326.00, 
2327.00, 
2328.00, 
2329.00, 
2330.00, 
2331.00, 
2332.00, 
2333.00, 
2334.00, 
2335.00, 
2336.00, 
2337.00, 
2338.00, 
2339.00, 
2340.00, 
2341.00, 
2342.00, 
2343.00, 
2344.00, 
2345.00, 
2346.00, 
2347.00, 
2348.00, 
2349.00, 
2350.00, 
2351.00, 
2352.00, 
2353.00, 
2354.00, 
2355.00, 
2356.00, 
2357.00, 
2358.00, 
2359.00, 
2360.00, 
2361.00, 
2362.00, 
2363.00, 
2364.00, 
2365.00, 
2366.00, 
2367.00, 
2368.00, 
2369.00, 
2370.00, 
2371.00, 
2372.00, 
2373.00, 
2374.00, 
2375.00, 
2376.00, 
2377.00, 
2378.00, 
2379.00, 
2380.00, 
2381.00, 
2382.00, 
2383.00, 
2384.00, 
2385.00, 
2386.00, 
2387.00, 
2388.00, 
2389.00, 
2390.00, 
2391.00, 
2392.00, 
2393.00, 
2394.00, 
2395.00, 
2396.00, 
2397.00, 
2398.00, 
2399.00, 
2400.00, 
2401.00, 
2402.00, 
2403.00, 
2404.00, 
2405.00, 
2406.00, 
2407.00, 
2408.00, 
2409.00, 
2410.00, 
2411.00, 
2412.00, 
2413.00, 
2414.00, 
2415.00, 
2416.00, 
2417.00, 
2418.00, 
2419.00, 
2420.00, 
2421.00, 
2422.00, 
2423.00, 
2424.00, 
2425.00, 
2426.00, 
2427.00, 
2428.00, 
2429.00, 
2430.00, 
2431.00, 
2432.00, 
2433.00, 
2434.00, 
2435.00, 
2436.00, 
2437.00, 
2438.00, 
2439.00, 
2440.00, 
2441.00, 
2442.00, 
2443.00, 
2444.00, 
2445.00, 
2446.00, 
2447.00, 
2448.00, 
2449.00, 
2450.00, 
2451.00, 
2452.00, 
2453.00, 
2454.00, 
2455.00, 
2456.00, 
2457.00, 
2458.00, 
2459.00, 
2460.00, 
2461.00, 
2462.00, 
2463.00, 
2464.00, 
2465.00, 
2466.00, 
2467.00, 
2468.00, 
2469.00, 
2470.00, 
2471.00, 
2472.00, 
2473.00, 
2474.00, 
2475.00, 
2476.00, 
2477.00, 
2478.00, 
2479.00, 
2480.00, 
2481.00, 
2482.00, 
2483.00, 
2484.00, 
2485.00, 
2486.00, 
2487.00, 
2488.00, 
2489.00, 
2490.00, 
2491.00, 
2492.00, 
2493.00, 
2494.00, 
2495.00, 
2496.00, 
2497.00, 
2498.00, 
2499.00, 
2500.00, 
2501.00, 
2502.00, 
2503.00, 
2504.00, 
2505.00, 
2506.00, 
2507.00, 
2508.00, 
2509.00, 
2510.00, 
2511.00, 
2512.00, 
2513.00, 
2514.00, 
2515.00, 
2516.00, 
2517.00, 
2518.00, 
2519.00, 
2520.00, 
2521.00, 
2522.00, 
2523.00, 
2524.00, 
2525.00, 
2526.00, 
2527.00, 
2528.00, 
2529.00, 
2530.00, 
2531.00, 
2532.00, 
2533.00, 
2534.00, 
2535.00, 
2536.00, 
2537.00, 
2538.00, 
2539.00, 
2540.00, 
2541.00, 
2542.00, 
2543.00, 
2544.00, 
2545.00, 
2546.00, 
2547.00, 
2548.00, 
2549.00, 
2550.00, 
2551.00, 
2552.00, 
2553.00, 
2554.00, 
2555.00, 
2556.00, 
2557.00, 
2558.00, 
2559.00, 
2560.00, 
2561.00, 
2562.00, 
2563.00, 
2564.00, 
2565.00, 
2566.00, 
2567.00, 
2568.00, 
2569.00, 
2570.00, 
2571.00, 
2572.00, 
2573.00, 
2574.00, 
2575.00, 
2576.00, 
2577.00, 
2578.00, 
2579.00, 
2580.00, 
2581.00, 
2582.00, 
2583.00, 
2584.00, 
2585.00, 
2586.00, 
2587.00, 
2588.00, 
2589.00, 
2590.00, 
2591.00, 
2592.00, 
2593.00, 
2594.00, 
2595.00, 
2596.00, 
2597.00, 
2598.00, 
2599.00, 
2600.00, 
