"1cP5_2 - RawData"
"Wavelength nm.","T%"
200.00,0.003
201.00,-0.001
202.00,0.001
203.00,0.001
204.00,0.000
205.00,0.003
206.00,0.000
207.00,0.002
208.00,0.001
209.00,0.002
210.00,0.000
211.00,-0.001
212.00,0.001
213.00,0.002
214.00,-0.001
215.00,0.000
216.00,-0.004
217.00,-0.001
218.00,0.000
219.00,0.003
220.00,0.001
221.00,0.000
222.00,-0.000
223.00,0.001
224.00,-0.000
225.00,0.001
226.00,-0.000
227.00,-0.002
228.00,0.001
229.00,0.001
230.00,-0.000
231.00,-0.000
232.00,0.001
233.00,0.000
234.00,0.000
235.00,0.001
236.00,-0.001
237.00,-0.000
238.00,-0.001
239.00,0.001
240.00,0.000
241.00,-0.000
242.00,0.000
243.00,-0.003
244.00,0.001
245.00,-0.001
246.00,0.002
247.00,-0.001
248.00,-0.001
249.00,0.000
250.00,-0.000
251.00,-0.001
252.00,0.001
253.00,0.001
254.00,-0.001
255.00,0.001
256.00,0.001
257.00,0.001
258.00,-0.002
259.00,0.002
260.00,-0.001
261.00,-0.001
262.00,0.001
263.00,0.001
264.00,0.002
265.00,-0.000
266.00,0.002
267.00,0.000
268.00,0.001
269.00,-0.000
270.00,-0.000
271.00,-0.001
272.00,0.001
273.00,0.002
274.00,-0.000
275.00,0.001
276.00,0.001
277.00,0.000
278.00,-0.001
279.00,-0.001
280.00,0.001
281.00,0.001
282.00,-0.000
283.00,-0.001
284.00,-0.000
285.00,0.001
286.00,-0.001
287.00,0.001
288.00,0.002
289.00,0.001
290.00,0.002
291.00,0.001
292.00,-0.001
293.00,0.002
294.00,0.000
295.00,-0.000
296.00,0.000
297.00,-0.001
298.00,0.001
299.00,0.000
300.00,0.001
301.00,0.000
302.00,0.001
303.00,-0.001
304.00,0.001
305.00,0.001
306.00,0.003
307.00,0.003
308.00,0.003
309.00,0.009
310.00,0.010
311.00,0.016
312.00,0.025
313.00,0.039
314.00,0.058
315.00,0.085
316.00,0.123
317.00,0.169
318.00,0.230
319.00,0.312
320.00,0.415
321.00,0.536
322.00,0.679
323.00,0.854
324.00,1.063
325.00,1.264
326.00,1.498
327.00,1.780
328.00,2.070
329.00,2.369
330.00,2.711
331.00,3.062
332.00,3.417
333.00,3.807
334.00,4.203
335.00,4.620
336.00,5.007
337.00,5.428
338.00,5.823
339.00,6.225
340.00,6.628
341.00,7.015
342.00,7.384
343.00,7.717
344.00,8.107
345.00,8.425
346.00,8.711
347.00,8.995
348.00,9.255
349.00,9.528
350.00,9.781
351.00,10.012
352.00,10.189
353.00,10.383
354.00,10.579
355.00,10.739
356.00,10.887
357.00,11.018
358.00,11.156
359.00,11.287
360.00,11.417
361.00,11.446
362.00,11.535
363.00,11.609
364.00,11.618
365.00,11.637
366.00,11.737
367.00,11.670
368.00,11.756
369.00,11.758
370.00,11.757
371.00,11.725
372.00,11.697
373.00,11.690
374.00,11.653
375.00,11.557
376.00,11.514
377.00,11.434
378.00,11.342
379.00,11.261
380.00,11.235
381.00,11.207
382.00,11.189
383.00,11.160
384.00,11.140
385.00,11.141
386.00,11.129
387.00,11.157
388.00,11.165
389.00,11.149
390.00,11.160
391.00,11.131
392.00,11.158
393.00,11.110
394.00,11.126
395.00,11.066
396.00,11.088
397.00,11.094
398.00,11.056
399.00,11.062
400.00,11.052
401.00,10.992
402.00,11.051
403.00,11.028
404.00,10.945
405.00,10.966
406.00,10.931
407.00,10.899
408.00,10.891
409.00,10.847
410.00,10.826
411.00,10.830
412.00,10.778
413.00,10.786
414.00,10.776
415.00,10.755
416.00,10.784
417.00,10.767
418.00,10.778
419.00,10.829
420.00,10.847
421.00,10.811
422.00,10.807
423.00,10.825
424.00,10.872
425.00,10.877
426.00,10.894
427.00,10.954
428.00,10.959
429.00,10.993
430.00,11.040
431.00,11.076
432.00,11.096
433.00,11.148
434.00,11.143
435.00,11.228
436.00,11.271
437.00,11.326
438.00,11.400
439.00,11.449
440.00,11.521
441.00,11.600
442.00,11.618
443.00,11.685
444.00,11.750
445.00,11.812
446.00,11.895
447.00,11.964
448.00,12.055
449.00,12.135
450.00,12.248
451.00,12.307
452.00,12.407
453.00,12.511
454.00,12.575
455.00,12.700
456.00,12.784
457.00,12.905
458.00,12.984
459.00,13.121
460.00,13.227
461.00,13.324
462.00,13.429
463.00,13.553
464.00,13.674
465.00,13.802
466.00,13.916
467.00,14.051
468.00,14.118
469.00,14.243
470.00,14.339
471.00,14.450
472.00,14.571
473.00,14.674
474.00,14.796
475.00,14.903
476.00,15.023
477.00,15.171
478.00,15.267
479.00,15.464
480.00,15.527
481.00,15.680
482.00,15.824
483.00,15.986
484.00,16.124
485.00,16.300
486.00,16.433
487.00,16.580
488.00,16.697
489.00,16.842
490.00,17.017
491.00,17.153
492.00,17.298
493.00,17.540
494.00,17.664
495.00,17.693
496.00,17.812
497.00,17.955
498.00,18.087
499.00,18.270
500.00,18.412
501.00,18.495
502.00,18.673
503.00,18.843
504.00,18.871
505.00,18.996
506.00,19.190
507.00,19.273
508.00,19.447
509.00,19.623
510.00,19.747
511.00,19.796
512.00,20.016
513.00,20.135
514.00,20.252
515.00,20.423
516.00,20.501
517.00,20.512
518.00,20.760
519.00,20.873
520.00,20.968
521.00,21.112
522.00,21.224
523.00,21.296
524.00,21.414
525.00,21.569
526.00,21.677
527.00,21.774
528.00,21.882
529.00,22.044
530.00,22.194
531.00,22.280
532.00,22.343
533.00,22.464
534.00,22.606
535.00,22.713
536.00,22.792
537.00,22.853
538.00,23.001
539.00,23.056
540.00,23.161
541.00,23.222
542.00,23.272
543.00,23.375
544.00,23.462
545.00,23.546
546.00,23.603
547.00,23.749
548.00,23.824
549.00,23.876
550.00,23.957
551.00,24.075
552.00,24.171
553.00,24.206
554.00,24.294
555.00,24.386
556.00,24.460
557.00,24.540
558.00,24.578
559.00,24.658
560.00,24.746
561.00,24.850
562.00,24.907
563.00,24.960
564.00,25.041
565.00,25.057
566.00,25.116
567.00,25.172
568.00,25.240
569.00,25.261
570.00,25.311
571.00,25.400
572.00,25.438
573.00,25.432
574.00,25.485
575.00,25.509
576.00,25.506
577.00,25.553
578.00,25.693
579.00,25.764
580.00,25.791
581.00,25.923
582.00,25.989
583.00,26.006
584.00,26.108
585.00,26.218
586.00,26.234
587.00,26.264
588.00,26.324
589.00,26.316
590.00,26.423
591.00,26.497
592.00,26.494
593.00,26.573
594.00,26.613
595.00,26.692
596.00,26.751
597.00,26.846
598.00,26.939
599.00,26.962
600.00,27.047
601.00,27.092
602.00,27.075
603.00,27.145
604.00,27.257
605.00,27.301
606.00,27.418
607.00,27.504
608.00,27.542
609.00,27.504
610.00,27.635
611.00,27.841
612.00,27.668
613.00,27.787
614.00,27.778
615.00,27.842
616.00,28.026
617.00,28.031
618.00,28.066
619.00,28.103
620.00,28.197
621.00,28.180
622.00,28.406
623.00,28.516
624.00,28.573
625.00,28.692
626.00,28.741
627.00,28.801
628.00,28.813
629.00,28.913
630.00,28.978
631.00,29.069
632.00,29.214
633.00,29.315
634.00,29.422
635.00,29.503
636.00,29.626
637.00,29.669
638.00,29.754
639.00,29.914
640.00,29.959
641.00,30.022
642.00,30.151
643.00,30.253
644.00,30.376
645.00,30.459
646.00,30.692
647.00,30.763
648.00,30.857
649.00,30.942
650.00,30.962
651.00,31.150
652.00,31.297
653.00,31.356
654.00,31.508
655.00,31.727
656.00,31.939
657.00,31.886
658.00,31.976
659.00,32.131
660.00,32.177
661.00,32.262
662.00,32.497
663.00,32.692
664.00,33.097
665.00,33.153
666.00,33.200
667.00,33.300
668.00,33.302
669.00,33.583
670.00,33.868
671.00,33.894
672.00,34.076
673.00,34.200
674.00,34.340
675.00,34.494
676.00,34.695
677.00,34.880
678.00,34.771
679.00,35.030
680.00,35.172
681.00,35.404
682.00,35.481
683.00,35.513
684.00,35.781
685.00,35.959
686.00,36.057
687.00,36.243
688.00,36.290
689.00,36.368
690.00,36.677
691.00,36.984
692.00,36.826
693.00,36.938
694.00,37.195
695.00,37.379
696.00,37.465
697.00,37.497
698.00,37.682
699.00,38.003
700.00,38.202
701.00,38.224
702.00,38.435
703.00,38.647
704.00,38.810
705.00,38.745
706.00,38.823
707.00,38.918
708.00,39.126
709.00,39.599
710.00,39.886
711.00,39.557
712.00,39.687
713.00,39.909
714.00,40.023
715.00,40.107
716.00,40.305
717.00,40.360
718.00,40.601
719.00,40.690
720.00,40.738
721.00,44.846
722.00,44.917
723.00,44.912
724.00,45.071
725.00,45.158
726.00,45.225
727.00,45.287
728.00,45.480
729.00,45.479
730.00,45.652
731.00,45.713
732.00,45.836
733.00,45.909
734.00,45.979
735.00,46.148
736.00,46.195
737.00,46.296
738.00,46.377
739.00,46.473
740.00,46.604
741.00,46.686
742.00,46.761
743.00,46.797
744.00,46.862
745.00,47.009
746.00,47.012
747.00,47.087
748.00,47.138
749.00,47.180
750.00,47.260
751.00,47.315
752.00,47.377
753.00,47.436
754.00,47.524
755.00,47.492
756.00,47.631
757.00,47.717
758.00,47.692
759.00,47.791
760.00,47.857
761.00,47.851
762.00,47.963
763.00,48.099
764.00,48.107
765.00,48.122
766.00,48.168
767.00,48.167
768.00,48.319
769.00,48.324
770.00,48.383
771.00,48.435
772.00,48.544
773.00,48.516
774.00,48.610
775.00,48.688
776.00,48.637
777.00,48.760
778.00,48.783
779.00,48.829
780.00,48.802
781.00,48.861
782.00,48.950
783.00,48.867
784.00,48.979
785.00,48.900
786.00,49.045
787.00,49.014
788.00,49.021
789.00,49.059
790.00,49.073
791.00,49.227
792.00,49.040
793.00,49.154
794.00,49.170
795.00,49.244
796.00,49.266
797.00,49.134
798.00,49.217
799.00,49.165
800.00,49.215
801.00,49.280
802.00,49.203
803.00,49.292
804.00,49.199
805.00,49.324
806.00,49.253
807.00,49.329
808.00,49.389
809.00,49.322
810.00,49.313
811.00,49.310
812.00,49.391
813.00,49.339
814.00,49.447
815.00,49.391
816.00,49.357
817.00,49.418
818.00,49.248
819.00,49.383
820.00,49.324
821.00,49.343
822.00,49.418
823.00,49.329
824.00,49.435
825.00,49.364
826.00,49.384
827.00,49.418
828.00,49.441
829.00,49.413
830.00,49.513
831.00,51.987
832.00,52.028
833.00,51.944
834.00,51.988
835.00,52.018
836.00,51.992
837.00,51.952
838.00,51.993
839.00,51.952
840.00,51.903
841.00,51.976
842.00,51.960
843.00,51.968
844.00,51.978
845.00,51.898
846.00,51.976
847.00,51.878
848.00,51.924
849.00,51.836
850.00,51.871
851.00,51.810
852.00,51.904
853.00,51.800
854.00,51.791
855.00,51.758
856.00,51.784
857.00,51.799
858.00,51.757
859.00,51.740
860.00,51.751
861.00,51.794
862.00,51.693
863.00,51.736
864.00,51.710
865.00,51.716
866.00,51.717
867.00,51.718
868.00,51.716
869.00,51.655
870.00,51.734
871.00,51.718
872.00,51.751
873.00,51.689
874.00,51.771
875.00,51.675
876.00,51.750
877.00,51.670
878.00,51.727
879.00,51.675
880.00,51.681
881.00,51.646
882.00,51.723
883.00,51.657
884.00,51.605
885.00,51.617
886.00,51.629
887.00,51.590
888.00,51.546
889.00,51.548
890.00,51.535
891.00,51.532
892.00,51.509
893.00,51.487
894.00,51.498
895.00,51.467
896.00,51.472
897.00,51.453
898.00,51.422
899.00,51.436
900.00,51.395
901.00,51.406
902.00,51.427
903.00,51.390
904.00,51.385
905.00,51.388
906.00,51.372
907.00,51.353
908.00,51.303
909.00,51.324
910.00,51.281
911.00,51.296
912.00,51.269
913.00,51.224
914.00,51.241
915.00,51.259
916.00,51.199
917.00,51.189
918.00,51.193
919.00,51.161
920.00,51.119
921.00,51.152
922.00,51.145
923.00,51.128
924.00,51.060
925.00,51.103
926.00,51.098
927.00,51.067
928.00,51.000
929.00,51.062
930.00,51.001
931.00,51.009
932.00,50.930
933.00,50.979
934.00,50.940
935.00,50.905
936.00,50.893
937.00,50.919
938.00,50.898
939.00,50.899
940.00,50.841
941.00,50.847
942.00,50.832
943.00,50.803
944.00,50.772
945.00,50.781
946.00,50.777
947.00,50.690
948.00,50.716
949.00,50.688
950.00,50.680
951.00,50.649
952.00,50.643
953.00,50.587
954.00,50.628
955.00,50.541
956.00,50.565
957.00,50.496
958.00,50.518
959.00,50.466
960.00,50.472
961.00,50.474
962.00,50.465
963.00,50.425
964.00,50.418
965.00,50.435
966.00,50.404
967.00,50.415
968.00,50.351
969.00,50.427
970.00,50.370
971.00,50.382
972.00,50.347
973.00,50.380
974.00,50.407
975.00,50.344
976.00,50.386
977.00,50.369
978.00,50.440
979.00,50.387
980.00,50.402
981.00,50.425
982.00,50.350
983.00,50.405
984.00,50.385
985.00,50.395
986.00,50.357
987.00,50.382
988.00,50.328
989.00,50.318
990.00,50.314
991.00,50.293
992.00,50.324
993.00,50.279
994.00,50.260
995.00,50.251
996.00,50.224
997.00,50.232
998.00,50.193
999.00,50.219
1000.00,50.199
1001.00,50.182
1002.00,50.190
1003.00,50.180
1004.00,50.153
1005.00,50.118
1006.00,50.177
1007.00,50.128
1008.00,50.110
1009.00,50.094
1010.00,50.086
1011.00,50.091
1012.00,50.055
1013.00,50.076
1014.00,50.042
1015.00,50.044
1016.00,50.006
1017.00,49.984
1018.00,49.985
1019.00,49.954
1020.00,49.971
1021.00,49.936
1022.00,49.946
1023.00,49.875
1024.00,49.901
1025.00,49.895
1026.00,49.858
1027.00,49.852
1028.00,49.839
1029.00,49.821
1030.00,49.808
1031.00,49.800
1032.00,49.753
1033.00,49.772
1034.00,49.733
1035.00,49.705
1036.00,49.694
1037.00,49.663
1038.00,49.659
1039.00,49.636
1040.00,49.619
1041.00,49.598
1042.00,49.613
1043.00,49.580
1044.00,49.623
1045.00,49.587
1046.00,49.579
1047.00,49.615
1048.00,49.596
1049.00,49.630
1050.00,49.610
1051.00,49.657
1052.00,49.641
1053.00,49.662
1054.00,49.650
1055.00,49.683
1056.00,49.691
1057.00,49.686
1058.00,49.671
1059.00,49.655
1060.00,49.690
1061.00,49.661
1062.00,49.645
1063.00,49.678
1064.00,49.663
1065.00,49.619
1066.00,49.662
1067.00,49.635
1068.00,49.658
1069.00,49.611
1070.00,49.594
1071.00,49.577
1072.00,49.611
1073.00,49.587
1074.00,49.571
1075.00,49.567
1076.00,49.602
1077.00,49.558
1078.00,49.519
1079.00,49.538
1080.00,49.538
1081.00,49.516
1082.00,49.519
1083.00,49.511
1084.00,49.500
1085.00,49.526
1086.00,49.534
1087.00,49.504
1088.00,49.494
1089.00,49.479
1090.00,49.477
1091.00,49.515
1092.00,49.490
1093.00,49.465
1094.00,49.435
1095.00,49.437
1096.00,49.423
1097.00,49.433
1098.00,49.404
1099.00,49.404
1100.00,49.385
1101.00,49.398
1102.00,49.377
1103.00,49.373
1104.00,49.380
1105.00,49.373
1106.00,49.355
1107.00,49.367
1108.00,49.313
1109.00,49.304
1110.00,49.302
1111.00,49.289
1112.00,49.276
1113.00,49.275
1114.00,49.260
1115.00,49.293
1116.00,49.279
1117.00,49.267
1118.00,49.267
1119.00,49.274
1120.00,49.258
1121.00,49.260
1122.00,49.227
1123.00,49.218
1124.00,49.226
1125.00,49.211
1126.00,49.209
1127.00,49.218
1128.00,49.181
1129.00,49.187
1130.00,49.170
1131.00,49.178
1132.00,49.189
1133.00,49.173
1134.00,49.152
1135.00,49.156
1136.00,49.133
1137.00,49.160
1138.00,49.151
1139.00,49.145
1140.00,49.138
1141.00,49.138
1142.00,49.125
1143.00,49.169
1144.00,49.122
1145.00,49.125
1146.00,49.121
1147.00,49.103
1148.00,49.097
1149.00,49.121
1150.00,49.117
1151.00,49.121
1152.00,49.106
1153.00,49.108
1154.00,49.097
1155.00,49.093
1156.00,49.083
1157.00,49.119
1158.00,49.099
1159.00,49.105
1160.00,49.101
1161.00,49.103
1162.00,49.106
1163.00,49.084
1164.00,49.088
1165.00,49.083
1166.00,49.084
1167.00,49.067
1168.00,49.103
1169.00,49.067
1170.00,49.066
1171.00,49.064
1172.00,49.051
1173.00,49.050
1174.00,49.054
1175.00,49.045
1176.00,49.067
1177.00,49.040
1178.00,49.047
1179.00,49.076
1180.00,49.043
1181.00,49.077
1182.00,49.056
1183.00,49.055
1184.00,49.050
1185.00,49.053
1186.00,49.042
1187.00,49.059
1188.00,49.056
1189.00,49.052
1190.00,49.061
1191.00,49.036
1192.00,49.074
1193.00,49.062
1194.00,49.049
1195.00,49.037
1196.00,49.060
1197.00,49.052
1198.00,49.036
1199.00,49.039
1200.00,49.051
1201.00,49.085
1202.00,49.047
1203.00,49.057
1204.00,49.066
1205.00,49.078
1206.00,49.084
1207.00,49.063
1208.00,49.062
1209.00,49.087
1210.00,49.058
1211.00,49.074
1212.00,49.094
1213.00,49.051
1214.00,49.108
1215.00,49.063
1216.00,49.060
1217.00,49.063
1218.00,49.050
1219.00,49.081
1220.00,49.067
1221.00,49.081
1222.00,49.064
1223.00,49.092
1224.00,49.060
1225.00,49.059
1226.00,49.065
1227.00,49.051
1228.00,49.087
1229.00,49.078
1230.00,49.092
1231.00,49.097
1232.00,49.118
1233.00,49.127
1234.00,49.133
1235.00,49.119
1236.00,49.122
1237.00,49.142
1238.00,49.114
1239.00,49.139
1240.00,49.110
1241.00,49.126
1242.00,49.148
1243.00,49.145
1244.00,49.133
1245.00,49.174
1246.00,49.162
1247.00,49.168
1248.00,49.166
1249.00,49.172
1250.00,49.189
1251.00,49.159
1252.00,49.165
1253.00,49.159
1254.00,49.173
1255.00,49.170
1256.00,49.176
1257.00,49.166
1258.00,49.207
1259.00,49.197
1260.00,49.236
1261.00,49.217
1262.00,49.207
1263.00,49.209
1264.00,49.233
1265.00,49.232
1266.00,49.227
1267.00,49.256
1268.00,49.224
1269.00,49.249
1270.00,49.277
1271.00,49.269
1272.00,49.277
1273.00,49.304
1274.00,49.291
1275.00,49.334
1276.00,49.302
1277.00,49.303
1278.00,49.318
1279.00,49.302
1280.00,49.306
1281.00,49.338
1282.00,49.338
1283.00,49.332
1284.00,49.348
1285.00,49.339
1286.00,49.375
1287.00,49.353
1288.00,49.366
1289.00,49.362
1290.00,49.391
1291.00,49.388
1292.00,49.388
1293.00,49.396
1294.00,49.412
1295.00,49.416
1296.00,49.415
1297.00,49.426
1298.00,49.459
1299.00,49.418
1300.00,49.462
1301.00,49.429
1302.00,49.469
1303.00,49.461
1304.00,49.459
1305.00,49.498
1306.00,49.489
1307.00,49.500
1308.00,49.506
1309.00,49.508
1310.00,49.497
1311.00,49.506
1312.00,49.509
1313.00,49.547
1314.00,49.571
1315.00,49.577
1316.00,49.583
1317.00,49.599
1318.00,49.596
1319.00,49.628
1320.00,49.601
1321.00,49.780
1322.00,49.778
1323.00,49.749
1324.00,49.744
1325.00,49.747
1326.00,49.764
1327.00,49.750
1328.00,49.748
1329.00,49.736
1330.00,49.770
1331.00,49.749
1332.00,49.756
1333.00,49.770
1334.00,49.801
1335.00,49.812
1336.00,49.850
1337.00,49.873
1338.00,49.947
1339.00,49.970
1340.00,50.040
1341.00,50.132
1342.00,50.185
1343.00,50.212
1344.00,50.283
1345.00,50.321
1346.00,50.340
1347.00,50.398
1348.00,50.416
1349.00,50.453
1350.00,50.467
1351.00,50.467
1352.00,50.507
1353.00,50.437
1354.00,50.469
1355.00,50.460
1356.00,50.524
1357.00,50.500
1358.00,50.536
1359.00,50.534
1360.00,50.580
1361.00,50.567
1362.00,50.533
1363.00,50.682
1364.00,50.609
1365.00,50.631
1366.00,50.674
1367.00,50.564
1368.00,50.549
1369.00,50.627
1370.00,50.534
1371.00,50.645
1372.00,50.613
1373.00,50.573
1374.00,50.608
1375.00,50.571
1376.00,50.580
1377.00,50.533
1378.00,50.624
1379.00,50.595
1380.00,50.689
1381.00,50.606
1382.00,50.529
1383.00,50.627
1384.00,50.531
1385.00,50.584
1386.00,50.604
1387.00,50.600
1388.00,50.493
1389.00,50.569
1390.00,50.584
1391.00,50.580
1392.00,50.557
1393.00,50.603
1394.00,50.588
1395.00,50.514
1396.00,50.505
1397.00,50.549
1398.00,50.561
1399.00,50.515
1400.00,50.543
1401.00,50.558
1402.00,50.607
1403.00,50.537
1404.00,50.628
1405.00,50.630
1406.00,50.652
1407.00,50.634
1408.00,50.638
1409.00,50.614
1410.00,50.694
1411.00,50.648
1412.00,50.814
1413.00,50.724
1414.00,50.667
1415.00,50.721
1416.00,50.743
1417.00,50.783
1418.00,50.729
1419.00,50.724
1420.00,50.763
1421.00,50.839
1422.00,50.801
1423.00,50.838
1424.00,50.837
1425.00,50.883
1426.00,50.859
1427.00,50.923
1428.00,50.902
1429.00,50.925
1430.00,50.932
1431.00,50.943
1432.00,50.972
1433.00,50.988
1434.00,50.987
1435.00,51.082
1436.00,51.066
1437.00,51.058
1438.00,51.070
1439.00,51.102
1440.00,51.135
1441.00,51.129
1442.00,51.143
1443.00,51.198
1444.00,51.251
1445.00,51.194
1446.00,51.224
1447.00,51.241
1448.00,51.298
1449.00,51.287
1450.00,51.290
1451.00,51.317
1452.00,51.336
1453.00,51.334
1454.00,51.379
1455.00,51.390
1456.00,51.419
1457.00,51.422
1458.00,51.458
1459.00,51.482
1460.00,51.493
1461.00,51.473
1462.00,51.548
1463.00,51.520
1464.00,51.540
1465.00,51.578
1466.00,51.561
1467.00,51.582
1468.00,51.657
1469.00,51.619
1470.00,51.649
1471.00,51.654
1472.00,51.677
1473.00,51.703
1474.00,51.726
1475.00,51.747
1476.00,51.764
1477.00,51.732
1478.00,51.781
1479.00,51.812
1480.00,51.780
1481.00,51.802
1482.00,51.835
1483.00,51.832
1484.00,51.867
1485.00,51.864
1486.00,51.903
1487.00,51.938
1488.00,51.940
1489.00,51.923
1490.00,51.959
1491.00,51.958
1492.00,51.994
1493.00,51.984
1494.00,52.041
1495.00,52.035
1496.00,52.058
1497.00,52.030
1498.00,52.071
1499.00,52.073
1500.00,52.082
1501.00, 
1502.00, 
1503.00, 
1504.00, 
1505.00, 
1506.00, 
1507.00, 
1508.00, 
1509.00, 
1510.00, 
1511.00, 
1512.00, 
1513.00, 
1514.00, 
1515.00, 
1516.00, 
1517.00, 
1518.00, 
1519.00, 
1520.00, 
1521.00, 
1522.00, 
1523.00, 
1524.00, 
1525.00, 
1526.00, 
1527.00, 
1528.00, 
1529.00, 
1530.00, 
1531.00, 
1532.00, 
1533.00, 
1534.00, 
1535.00, 
1536.00, 
1537.00, 
1538.00, 
1539.00, 
1540.00, 
1541.00, 
1542.00, 
1543.00, 
1544.00, 
1545.00, 
1546.00, 
1547.00, 
1548.00, 
1549.00, 
1550.00, 
1551.00, 
1552.00, 
1553.00, 
1554.00, 
1555.00, 
1556.00, 
1557.00, 
1558.00, 
1559.00, 
1560.00, 
1561.00, 
1562.00, 
1563.00, 
1564.00, 
1565.00, 
1566.00, 
1567.00, 
1568.00, 
1569.00, 
1570.00, 
1571.00, 
1572.00, 
1573.00, 
1574.00, 
1575.00, 
1576.00, 
1577.00, 
1578.00, 
1579.00, 
1580.00, 
1581.00, 
1582.00, 
1583.00, 
1584.00, 
1585.00, 
1586.00, 
1587.00, 
1588.00, 
1589.00, 
1590.00, 
1591.00, 
1592.00, 
1593.00, 
1594.00, 
1595.00, 
1596.00, 
1597.00, 
1598.00, 
1599.00, 
1600.00, 
1601.00, 
1602.00, 
1603.00, 
1604.00, 
1605.00, 
1606.00, 
1607.00, 
1608.00, 
1609.00, 
1610.00, 
1611.00, 
1612.00, 
1613.00, 
1614.00, 
1615.00, 
1616.00, 
1617.00, 
1618.00, 
1619.00, 
1620.00, 
1621.00, 
1622.00, 
1623.00, 
1624.00, 
1625.00, 
1626.00, 
1627.00, 
1628.00, 
1629.00, 
1630.00, 
1631.00, 
1632.00, 
1633.00, 
1634.00, 
1635.00, 
1636.00, 
1637.00, 
1638.00, 
1639.00, 
1640.00, 
1641.00, 
1642.00, 
1643.00, 
1644.00, 
1645.00, 
1646.00, 
1647.00, 
1648.00, 
1649.00, 
1650.00, 
1651.00, 
1652.00, 
1653.00, 
1654.00, 
1655.00, 
1656.00, 
1657.00, 
1658.00, 
1659.00, 
1660.00, 
1661.00, 
1662.00, 
1663.00, 
1664.00, 
1665.00, 
1666.00, 
1667.00, 
1668.00, 
1669.00, 
1670.00, 
1671.00, 
1672.00, 
1673.00, 
1674.00, 
1675.00, 
1676.00, 
1677.00, 
1678.00, 
1679.00, 
1680.00, 
1681.00, 
1682.00, 
1683.00, 
1684.00, 
1685.00, 
1686.00, 
1687.00, 
1688.00, 
1689.00, 
1690.00, 
1691.00, 
1692.00, 
1693.00, 
1694.00, 
1695.00, 
1696.00, 
1697.00, 
1698.00, 
1699.00, 
1700.00, 
1701.00, 
1702.00, 
1703.00, 
1704.00, 
1705.00, 
1706.00, 
1707.00, 
1708.00, 
1709.00, 
1710.00, 
1711.00, 
1712.00, 
1713.00, 
1714.00, 
1715.00, 
1716.00, 
1717.00, 
1718.00, 
1719.00, 
1720.00, 
1721.00, 
1722.00, 
1723.00, 
1724.00, 
1725.00, 
1726.00, 
1727.00, 
1728.00, 
1729.00, 
1730.00, 
1731.00, 
1732.00, 
1733.00, 
1734.00, 
1735.00, 
1736.00, 
1737.00, 
1738.00, 
1739.00, 
1740.00, 
1741.00, 
1742.00, 
1743.00, 
1744.00, 
1745.00, 
1746.00, 
1747.00, 
1748.00, 
1749.00, 
1750.00, 
1751.00, 
1752.00, 
1753.00, 
1754.00, 
1755.00, 
1756.00, 
1757.00, 
1758.00, 
1759.00, 
1760.00, 
1761.00, 
1762.00, 
1763.00, 
1764.00, 
1765.00, 
1766.00, 
1767.00, 
1768.00, 
1769.00, 
1770.00, 
1771.00, 
1772.00, 
1773.00, 
1774.00, 
1775.00, 
1776.00, 
1777.00, 
1778.00, 
1779.00, 
1780.00, 
1781.00, 
1782.00, 
1783.00, 
1784.00, 
1785.00, 
1786.00, 
1787.00, 
1788.00, 
1789.00, 
1790.00, 
1791.00, 
1792.00, 
1793.00, 
1794.00, 
1795.00, 
1796.00, 
1797.00, 
1798.00, 
1799.00, 
1800.00, 
1801.00, 
1802.00, 
1803.00, 
1804.00, 
1805.00, 
1806.00, 
1807.00, 
1808.00, 
1809.00, 
1810.00, 
1811.00, 
1812.00, 
1813.00, 
1814.00, 
1815.00, 
1816.00, 
1817.00, 
1818.00, 
1819.00, 
1820.00, 
1821.00, 
1822.00, 
1823.00, 
1824.00, 
1825.00, 
1826.00, 
1827.00, 
1828.00, 
1829.00, 
1830.00, 
1831.00, 
1832.00, 
1833.00, 
1834.00, 
1835.00, 
1836.00, 
1837.00, 
1838.00, 
1839.00, 
1840.00, 
1841.00, 
1842.00, 
1843.00, 
1844.00, 
1845.00, 
1846.00, 
1847.00, 
1848.00, 
1849.00, 
1850.00, 
1851.00, 
1852.00, 
1853.00, 
1854.00, 
1855.00, 
1856.00, 
1857.00, 
1858.00, 
1859.00, 
1860.00, 
1861.00, 
1862.00, 
1863.00, 
1864.00, 
1865.00, 
1866.00, 
1867.00, 
1868.00, 
1869.00, 
1870.00, 
1871.00, 
1872.00, 
1873.00, 
1874.00, 
1875.00, 
1876.00, 
1877.00, 
1878.00, 
1879.00, 
1880.00, 
1881.00, 
1882.00, 
1883.00, 
1884.00, 
1885.00, 
1886.00, 
1887.00, 
1888.00, 
1889.00, 
1890.00, 
1891.00, 
1892.00, 
1893.00, 
1894.00, 
1895.00, 
1896.00, 
1897.00, 
1898.00, 
1899.00, 
1900.00, 
1901.00, 
1902.00, 
1903.00, 
1904.00, 
1905.00, 
1906.00, 
1907.00, 
1908.00, 
1909.00, 
1910.00, 
1911.00, 
1912.00, 
1913.00, 
1914.00, 
1915.00, 
1916.00, 
1917.00, 
1918.00, 
1919.00, 
1920.00, 
1921.00, 
1922.00, 
1923.00, 
1924.00, 
1925.00, 
1926.00, 
1927.00, 
1928.00, 
1929.00, 
1930.00, 
1931.00, 
1932.00, 
1933.00, 
1934.00, 
1935.00, 
1936.00, 
1937.00, 
1938.00, 
1939.00, 
1940.00, 
1941.00, 
1942.00, 
1943.00, 
1944.00, 
1945.00, 
1946.00, 
1947.00, 
1948.00, 
1949.00, 
1950.00, 
1951.00, 
1952.00, 
1953.00, 
1954.00, 
1955.00, 
1956.00, 
1957.00, 
1958.00, 
1959.00, 
1960.00, 
1961.00, 
1962.00, 
1963.00, 
1964.00, 
1965.00, 
1966.00, 
1967.00, 
1968.00, 
1969.00, 
1970.00, 
1971.00, 
1972.00, 
1973.00, 
1974.00, 
1975.00, 
1976.00, 
1977.00, 
1978.00, 
1979.00, 
1980.00, 
1981.00, 
1982.00, 
1983.00, 
1984.00, 
1985.00, 
1986.00, 
1987.00, 
1988.00, 
1989.00, 
1990.00, 
1991.00, 
1992.00, 
1993.00, 
1994.00, 
1995.00, 
1996.00, 
1997.00, 
1998.00, 
1999.00, 
2000.00, 
2001.00, 
2002.00, 
2003.00, 
2004.00, 
2005.00, 
2006.00, 
2007.00, 
2008.00, 
2009.00, 
2010.00, 
2011.00, 
2012.00, 
2013.00, 
2014.00, 
2015.00, 
2016.00, 
2017.00, 
2018.00, 
2019.00, 
2020.00, 
2021.00, 
2022.00, 
2023.00, 
2024.00, 
2025.00, 
2026.00, 
2027.00, 
2028.00, 
2029.00, 
2030.00, 
2031.00, 
2032.00, 
2033.00, 
2034.00, 
2035.00, 
2036.00, 
2037.00, 
2038.00, 
2039.00, 
2040.00, 
2041.00, 
2042.00, 
2043.00, 
2044.00, 
2045.00, 
2046.00, 
2047.00, 
2048.00, 
2049.00, 
2050.00, 
2051.00, 
2052.00, 
2053.00, 
2054.00, 
2055.00, 
2056.00, 
2057.00, 
2058.00, 
2059.00, 
2060.00, 
2061.00, 
2062.00, 
2063.00, 
2064.00, 
2065.00, 
2066.00, 
2067.00, 
2068.00, 
2069.00, 
2070.00, 
2071.00, 
2072.00, 
2073.00, 
2074.00, 
2075.00, 
2076.00, 
2077.00, 
2078.00, 
2079.00, 
2080.00, 
2081.00, 
2082.00, 
2083.00, 
2084.00, 
2085.00, 
2086.00, 
2087.00, 
2088.00, 
2089.00, 
2090.00, 
2091.00, 
2092.00, 
2093.00, 
2094.00, 
2095.00, 
2096.00, 
2097.00, 
2098.00, 
2099.00, 
2100.00, 
2101.00, 
2102.00, 
2103.00, 
2104.00, 
2105.00, 
2106.00, 
2107.00, 
2108.00, 
2109.00, 
2110.00, 
2111.00, 
2112.00, 
2113.00, 
2114.00, 
2115.00, 
2116.00, 
2117.00, 
2118.00, 
2119.00, 
2120.00, 
2121.00, 
2122.00, 
2123.00, 
2124.00, 
2125.00, 
2126.00, 
2127.00, 
2128.00, 
2129.00, 
2130.00, 
2131.00, 
2132.00, 
2133.00, 
2134.00, 
2135.00, 
2136.00, 
2137.00, 
2138.00, 
2139.00, 
2140.00, 
2141.00, 
2142.00, 
2143.00, 
2144.00, 
2145.00, 
2146.00, 
2147.00, 
2148.00, 
2149.00, 
2150.00, 
2151.00, 
2152.00, 
2153.00, 
2154.00, 
2155.00, 
2156.00, 
2157.00, 
2158.00, 
2159.00, 
2160.00, 
2161.00, 
2162.00, 
2163.00, 
2164.00, 
2165.00, 
2166.00, 
2167.00, 
2168.00, 
2169.00, 
2170.00, 
2171.00, 
2172.00, 
2173.00, 
2174.00, 
2175.00, 
2176.00, 
2177.00, 
2178.00, 
2179.00, 
2180.00, 
2181.00, 
2182.00, 
2183.00, 
2184.00, 
2185.00, 
2186.00, 
2187.00, 
2188.00, 
2189.00, 
2190.00, 
2191.00, 
2192.00, 
2193.00, 
2194.00, 
2195.00, 
2196.00, 
2197.00, 
2198.00, 
2199.00, 
2200.00, 
2201.00, 
2202.00, 
2203.00, 
2204.00, 
2205.00, 
2206.00, 
2207.00, 
2208.00, 
2209.00, 
2210.00, 
2211.00, 
2212.00, 
2213.00, 
2214.00, 
2215.00, 
2216.00, 
2217.00, 
2218.00, 
2219.00, 
2220.00, 
2221.00, 
2222.00, 
2223.00, 
2224.00, 
2225.00, 
2226.00, 
2227.00, 
2228.00, 
2229.00, 
2230.00, 
2231.00, 
2232.00, 
2233.00, 
2234.00, 
2235.00, 
2236.00, 
2237.00, 
2238.00, 
2239.00, 
2240.00, 
2241.00, 
2242.00, 
2243.00, 
2244.00, 
2245.00, 
2246.00, 
2247.00, 
2248.00, 
2249.00, 
2250.00, 
2251.00, 
2252.00, 
2253.00, 
2254.00, 
2255.00, 
2256.00, 
2257.00, 
2258.00, 
2259.00, 
2260.00, 
2261.00, 
2262.00, 
2263.00, 
2264.00, 
2265.00, 
2266.00, 
2267.00, 
2268.00, 
2269.00, 
2270.00, 
2271.00, 
2272.00, 
2273.00, 
2274.00, 
2275.00, 
2276.00, 
2277.00, 
2278.00, 
2279.00, 
2280.00, 
2281.00, 
2282.00, 
2283.00, 
2284.00, 
2285.00, 
2286.00, 
2287.00, 
2288.00, 
2289.00, 
2290.00, 
2291.00, 
2292.00, 
2293.00, 
2294.00, 
2295.00, 
2296.00, 
2297.00, 
2298.00, 
2299.00, 
2300.00, 
2301.00, 
2302.00, 
2303.00, 
2304.00, 
2305.00, 
2306.00, 
2307.00, 
2308.00, 
2309.00, 
2310.00, 
2311.00, 
2312.00, 
2313.00, 
2314.00, 
2315.00, 
2316.00, 
2317.00, 
2318.00, 
2319.00, 
2320.00, 
2321.00, 
2322.00, 
2323.00, 
2324.00, 
2325.00, 
2326.00, 
2327.00, 
2328.00, 
2329.00, 
2330.00, 
2331.00, 
2332.00, 
2333.00, 
2334.00, 
2335.00, 
2336.00, 
2337.00, 
2338.00, 
2339.00, 
2340.00, 
2341.00, 
2342.00, 
2343.00, 
2344.00, 
2345.00, 
2346.00, 
2347.00, 
2348.00, 
2349.00, 
2350.00, 
2351.00, 
2352.00, 
2353.00, 
2354.00, 
2355.00, 
2356.00, 
2357.00, 
2358.00, 
2359.00, 
2360.00, 
2361.00, 
2362.00, 
2363.00, 
2364.00, 
2365.00, 
2366.00, 
2367.00, 
2368.00, 
2369.00, 
2370.00, 
2371.00, 
2372.00, 
2373.00, 
2374.00, 
2375.00, 
2376.00, 
2377.00, 
2378.00, 
2379.00, 
2380.00, 
2381.00, 
2382.00, 
2383.00, 
2384.00, 
2385.00, 
2386.00, 
2387.00, 
2388.00, 
2389.00, 
2390.00, 
2391.00, 
2392.00, 
2393.00, 
2394.00, 
2395.00, 
2396.00, 
2397.00, 
2398.00, 
2399.00, 
2400.00, 
2401.00, 
2402.00, 
2403.00, 
2404.00, 
2405.00, 
2406.00, 
2407.00, 
2408.00, 
2409.00, 
2410.00, 
2411.00, 
2412.00, 
2413.00, 
2414.00, 
2415.00, 
2416.00, 
2417.00, 
2418.00, 
2419.00, 
2420.00, 
2421.00, 
2422.00, 
2423.00, 
2424.00, 
2425.00, 
2426.00, 
2427.00, 
2428.00, 
2429.00, 
2430.00, 
2431.00, 
2432.00, 
2433.00, 
2434.00, 
2435.00, 
2436.00, 
2437.00, 
2438.00, 
2439.00, 
2440.00, 
2441.00, 
2442.00, 
2443.00, 
2444.00, 
2445.00, 
2446.00, 
2447.00, 
2448.00, 
2449.00, 
2450.00, 
2451.00, 
2452.00, 
2453.00, 
2454.00, 
2455.00, 
2456.00, 
2457.00, 
2458.00, 
2459.00, 
2460.00, 
2461.00, 
2462.00, 
2463.00, 
2464.00, 
2465.00, 
2466.00, 
2467.00, 
2468.00, 
2469.00, 
2470.00, 
2471.00, 
2472.00, 
2473.00, 
2474.00, 
2475.00, 
2476.00, 
2477.00, 
2478.00, 
2479.00, 
2480.00, 
2481.00, 
2482.00, 
2483.00, 
2484.00, 
2485.00, 
2486.00, 
2487.00, 
2488.00, 
2489.00, 
2490.00, 
2491.00, 
2492.00, 
2493.00, 
2494.00, 
2495.00, 
2496.00, 
2497.00, 
2498.00, 
2499.00, 
2500.00, 
2501.00, 
2502.00, 
2503.00, 
2504.00, 
2505.00, 
2506.00, 
2507.00, 
2508.00, 
2509.00, 
2510.00, 
2511.00, 
2512.00, 
2513.00, 
2514.00, 
2515.00, 
2516.00, 
2517.00, 
2518.00, 
2519.00, 
2520.00, 
2521.00, 
2522.00, 
2523.00, 
2524.00, 
2525.00, 
2526.00, 
2527.00, 
2528.00, 
2529.00, 
2530.00, 
2531.00, 
2532.00, 
2533.00, 
2534.00, 
2535.00, 
2536.00, 
2537.00, 
2538.00, 
2539.00, 
2540.00, 
2541.00, 
2542.00, 
2543.00, 
2544.00, 
2545.00, 
2546.00, 
2547.00, 
2548.00, 
2549.00, 
2550.00, 
2551.00, 
2552.00, 
2553.00, 
2554.00, 
2555.00, 
2556.00, 
2557.00, 
2558.00, 
2559.00, 
2560.00, 
2561.00, 
2562.00, 
2563.00, 
2564.00, 
2565.00, 
2566.00, 
2567.00, 
2568.00, 
2569.00, 
2570.00, 
2571.00, 
2572.00, 
2573.00, 
2574.00, 
2575.00, 
2576.00, 
2577.00, 
2578.00, 
2579.00, 
2580.00, 
2581.00, 
2582.00, 
2583.00, 
2584.00, 
2585.00, 
2586.00, 
2587.00, 
2588.00, 
2589.00, 
2590.00, 
2591.00, 
2592.00, 
2593.00, 
2594.00, 
2595.00, 
2596.00, 
2597.00, 
2598.00, 
2599.00, 
2600.00, 
