"2cP2 - RawData"
"Wavelength nm.","T%"
200.00,-0.000
201.00,0.003
202.00,0.001
203.00,0.001
204.00,0.000
205.00,0.000
206.00,-0.000
207.00,0.000
208.00,0.002
209.00,-0.000
210.00,0.002
211.00,0.002
212.00,-0.002
213.00,0.000
214.00,0.001
215.00,-0.001
216.00,0.003
217.00,0.004
218.00,0.000
219.00,0.001
220.00,-0.000
221.00,-0.002
222.00,0.002
223.00,0.001
224.00,0.000
225.00,-0.001
226.00,-0.001
227.00,0.002
228.00,0.001
229.00,0.001
230.00,-0.001
231.00,0.001
232.00,0.001
233.00,0.000
234.00,0.001
235.00,0.000
236.00,0.002
237.00,0.001
238.00,0.000
239.00,0.000
240.00,-0.000
241.00,0.002
242.00,0.000
243.00,0.000
244.00,0.001
245.00,0.002
246.00,0.000
247.00,0.000
248.00,0.001
249.00,0.000
250.00,0.000
251.00,0.000
252.00,0.000
253.00,0.001
254.00,0.001
255.00,0.001
256.00,-0.002
257.00,0.001
258.00,-0.001
259.00,0.000
260.00,-0.000
261.00,0.000
262.00,0.001
263.00,0.000
264.00,-0.001
265.00,0.001
266.00,-0.000
267.00,0.002
268.00,0.001
269.00,0.000
270.00,0.000
271.00,-0.000
272.00,0.000
273.00,0.001
274.00,0.001
275.00,-0.000
276.00,0.001
277.00,-0.000
278.00,0.001
279.00,-0.001
280.00,0.000
281.00,0.000
282.00,0.001
283.00,-0.001
284.00,0.000
285.00,0.001
286.00,0.001
287.00,0.000
288.00,-0.001
289.00,0.001
290.00,-0.000
291.00,-0.001
292.00,0.000
293.00,0.000
294.00,0.000
295.00,0.001
296.00,-0.001
297.00,0.000
298.00,0.001
299.00,0.001
300.00,0.002
301.00,0.002
302.00,0.003
303.00,0.004
304.00,0.008
305.00,0.011
306.00,0.020
307.00,0.029
308.00,0.046
309.00,0.071
310.00,0.103
311.00,0.133
312.00,0.178
313.00,0.250
314.00,0.325
315.00,0.429
316.00,0.541
317.00,0.676
318.00,0.841
319.00,1.027
320.00,1.252
321.00,1.498
322.00,1.708
323.00,2.090
324.00,2.419
325.00,2.762
326.00,3.096
327.00,3.501
328.00,3.932
329.00,4.334
330.00,4.759
331.00,5.186
332.00,5.647
333.00,6.133
334.00,6.582
335.00,7.038
336.00,7.499
337.00,7.928
338.00,8.400
339.00,8.805
340.00,9.224
341.00,9.636
342.00,10.051
343.00,10.406
344.00,10.748
345.00,11.060
346.00,11.424
347.00,11.726
348.00,11.941
349.00,12.261
350.00,12.519
351.00,12.725
352.00,12.954
353.00,13.143
354.00,13.364
355.00,13.504
356.00,13.669
357.00,13.835
358.00,13.907
359.00,14.059
360.00,14.155
361.00,14.278
362.00,14.330
363.00,14.413
364.00,14.527
365.00,14.537
366.00,14.570
367.00,14.586
368.00,14.614
369.00,14.650
370.00,14.635
371.00,14.639
372.00,14.597
373.00,14.556
374.00,14.517
375.00,14.492
376.00,14.454
377.00,14.407
378.00,14.337
379.00,14.269
380.00,14.222
381.00,14.181
382.00,14.137
383.00,14.094
384.00,14.085
385.00,14.073
386.00,14.072
387.00,14.069
388.00,14.038
389.00,14.037
390.00,14.021
391.00,14.008
392.00,13.974
393.00,13.959
394.00,13.946
395.00,13.899
396.00,13.891
397.00,13.873
398.00,13.861
399.00,13.835
400.00,13.806
401.00,13.768
402.00,13.749
403.00,13.734
404.00,13.708
405.00,13.693
406.00,13.669
407.00,13.631
408.00,13.599
409.00,13.567
410.00,13.520
411.00,13.508
412.00,13.468
413.00,13.449
414.00,13.428
415.00,13.409
416.00,13.432
417.00,13.419
418.00,13.408
419.00,13.426
420.00,13.414
421.00,13.432
422.00,13.426
423.00,13.431
424.00,13.443
425.00,13.449
426.00,13.470
427.00,13.496
428.00,13.506
429.00,13.554
430.00,13.580
431.00,13.620
432.00,13.659
433.00,13.680
434.00,13.711
435.00,13.757
436.00,13.794
437.00,13.859
438.00,13.906
439.00,13.933
440.00,14.021
441.00,14.099
442.00,14.138
443.00,14.146
444.00,14.248
445.00,14.309
446.00,14.396
447.00,14.467
448.00,14.544
449.00,14.632
450.00,14.724
451.00,14.795
452.00,14.894
453.00,14.982
454.00,15.070
455.00,15.158
456.00,15.264
457.00,15.358
458.00,15.418
459.00,15.545
460.00,15.662
461.00,15.751
462.00,15.876
463.00,15.987
464.00,16.106
465.00,16.222
466.00,16.310
467.00,16.435
468.00,16.534
469.00,16.652
470.00,16.743
471.00,16.858
472.00,16.948
473.00,17.031
474.00,17.120
475.00,17.292
476.00,17.429
477.00,17.537
478.00,17.674
479.00,17.818
480.00,17.958
481.00,18.079
482.00,18.211
483.00,18.363
484.00,18.508
485.00,18.678
486.00,18.820
487.00,18.951
488.00,19.089
489.00,19.273
490.00,19.395
491.00,19.521
492.00,19.683
493.00,19.846
494.00,19.939
495.00,20.020
496.00,20.163
497.00,20.259
498.00,20.407
499.00,20.558
500.00,20.626
501.00,20.838
502.00,21.012
503.00,21.149
504.00,21.265
505.00,21.422
506.00,21.534
507.00,21.657
508.00,21.784
509.00,21.922
510.00,22.080
511.00,22.186
512.00,22.338
513.00,22.478
514.00,22.593
515.00,22.704
516.00,22.846
517.00,22.975
518.00,23.133
519.00,23.238
520.00,23.370
521.00,23.432
522.00,23.560
523.00,23.652
524.00,23.759
525.00,23.883
526.00,24.010
527.00,24.113
528.00,24.203
529.00,24.315
530.00,24.413
531.00,24.588
532.00,24.692
533.00,24.788
534.00,24.899
535.00,24.989
536.00,25.112
537.00,25.175
538.00,25.314
539.00,25.393
540.00,25.471
541.00,25.559
542.00,25.618
543.00,25.723
544.00,25.819
545.00,25.876
546.00,25.972
547.00,26.101
548.00,26.145
549.00,26.217
550.00,26.347
551.00,26.428
552.00,26.515
553.00,26.598
554.00,26.663
555.00,26.746
556.00,26.805
557.00,26.848
558.00,26.906
559.00,26.987
560.00,27.082
561.00,27.211
562.00,27.294
563.00,27.307
564.00,27.390
565.00,27.459
566.00,27.466
567.00,27.570
568.00,27.594
569.00,27.620
570.00,27.683
571.00,27.756
572.00,27.760
573.00,27.849
574.00,27.929
575.00,27.865
576.00,28.007
577.00,28.091
578.00,28.156
579.00,28.254
580.00,28.317
581.00,28.438
582.00,28.493
583.00,28.557
584.00,28.706
585.00,28.719
586.00,28.790
587.00,28.883
588.00,28.921
589.00,28.953
590.00,29.000
591.00,29.056
592.00,29.086
593.00,29.172
594.00,29.214
595.00,29.256
596.00,29.348
597.00,29.377
598.00,29.533
599.00,29.507
600.00,29.577
601.00,29.667
602.00,29.685
603.00,29.749
604.00,29.744
605.00,29.768
606.00,29.946
607.00,30.085
608.00,30.139
609.00,30.155
610.00,30.194
611.00,30.321
612.00,30.284
613.00,30.376
614.00,30.375
615.00,30.464
616.00,30.563
617.00,30.569
618.00,30.740
619.00,30.795
620.00,30.823
621.00,30.878
622.00,30.987
623.00,31.068
624.00,31.139
625.00,31.233
626.00,31.293
627.00,31.375
628.00,31.462
629.00,31.518
630.00,31.577
631.00,31.641
632.00,31.763
633.00,31.823
634.00,31.965
635.00,32.082
636.00,32.198
637.00,32.275
638.00,32.371
639.00,32.435
640.00,32.542
641.00,32.618
642.00,32.736
643.00,32.832
644.00,32.972
645.00,33.048
646.00,33.188
647.00,33.258
648.00,33.364
649.00,33.539
650.00,33.589
651.00,33.667
652.00,33.809
653.00,33.922
654.00,34.013
655.00,34.149
656.00,34.243
657.00,34.475
658.00,34.550
659.00,34.609
660.00,34.756
661.00,34.828
662.00,35.012
663.00,35.130
664.00,35.299
665.00,35.368
666.00,35.471
667.00,35.648
668.00,35.777
669.00,35.946
670.00,36.056
671.00,36.222
672.00,36.228
673.00,36.431
674.00,36.617
675.00,36.688
676.00,36.844
677.00,36.928
678.00,37.074
679.00,37.181
680.00,37.312
681.00,37.432
682.00,37.618
683.00,37.738
684.00,37.947
685.00,38.048
686.00,38.149
687.00,38.356
688.00,38.399
689.00,38.492
690.00,38.644
691.00,38.795
692.00,38.914
693.00,39.022
694.00,39.165
695.00,39.277
696.00,39.419
697.00,39.542
698.00,39.702
699.00,39.910
700.00,40.133
701.00,40.153
702.00,40.307
703.00,40.533
704.00,40.601
705.00,40.637
706.00,40.851
707.00,41.013
708.00,40.968
709.00,41.172
710.00,41.406
711.00,41.470
712.00,41.534
713.00,41.613
714.00,41.726
715.00,41.834
716.00,42.098
717.00,41.995
718.00,42.139
719.00,42.374
720.00,42.438
721.00,46.499
722.00,46.567
723.00,46.508
724.00,46.637
725.00,46.647
726.00,46.717
727.00,46.828
728.00,46.909
729.00,46.960
730.00,47.081
731.00,47.127
732.00,47.186
733.00,47.250
734.00,47.369
735.00,47.465
736.00,47.525
737.00,47.640
738.00,47.742
739.00,47.835
740.00,47.910
741.00,47.905
742.00,48.052
743.00,48.028
744.00,48.109
745.00,48.197
746.00,48.206
747.00,48.264
748.00,48.220
749.00,48.329
750.00,48.342
751.00,48.405
752.00,48.448
753.00,48.499
754.00,48.572
755.00,48.636
756.00,48.657
757.00,48.722
758.00,48.706
759.00,48.777
760.00,48.811
761.00,48.871
762.00,48.930
763.00,49.026
764.00,49.064
765.00,49.085
766.00,49.148
767.00,49.100
768.00,49.257
769.00,49.277
770.00,49.231
771.00,49.297
772.00,49.440
773.00,49.409
774.00,49.417
775.00,49.544
776.00,49.530
777.00,49.541
778.00,49.596
779.00,49.551
780.00,49.623
781.00,49.638
782.00,49.696
783.00,49.637
784.00,49.759
785.00,49.777
786.00,49.791
787.00,49.796
788.00,49.775
789.00,49.866
790.00,49.785
791.00,49.900
792.00,49.844
793.00,49.785
794.00,49.919
795.00,49.975
796.00,49.943
797.00,49.885
798.00,49.942
799.00,49.951
800.00,49.866
801.00,49.928
802.00,49.877
803.00,49.938
804.00,49.910
805.00,49.960
806.00,49.971
807.00,49.947
808.00,49.996
809.00,49.978
810.00,49.956
811.00,49.921
812.00,49.942
813.00,49.938
814.00,50.010
815.00,49.979
816.00,49.956
817.00,50.063
818.00,49.999
819.00,49.977
820.00,49.939
821.00,49.928
822.00,49.936
823.00,49.901
824.00,49.964
825.00,49.958
826.00,49.971
827.00,49.994
828.00,50.051
829.00,49.970
830.00,49.968
831.00,52.463
832.00,52.468
833.00,52.440
834.00,52.459
835.00,52.475
836.00,52.448
837.00,52.470
838.00,52.405
839.00,52.407
840.00,52.387
841.00,52.419
842.00,52.399
843.00,52.386
844.00,52.378
845.00,52.309
846.00,52.360
847.00,52.393
848.00,52.336
849.00,52.255
850.00,52.266
851.00,52.233
852.00,52.268
853.00,52.151
854.00,52.192
855.00,52.138
856.00,52.162
857.00,52.142
858.00,52.143
859.00,52.102
860.00,52.124
861.00,52.128
862.00,52.022
863.00,52.105
864.00,52.059
865.00,52.043
866.00,52.043
867.00,52.068
868.00,52.017
869.00,52.003
870.00,52.049
871.00,52.013
872.00,52.054
873.00,51.979
874.00,52.039
875.00,51.993
876.00,52.050
877.00,51.991
878.00,51.969
879.00,52.055
880.00,51.951
881.00,51.889
882.00,51.937
883.00,51.929
884.00,51.902
885.00,51.862
886.00,51.887
887.00,51.848
888.00,51.834
889.00,51.827
890.00,51.819
891.00,51.813
892.00,51.783
893.00,51.738
894.00,51.758
895.00,51.727
896.00,51.711
897.00,51.696
898.00,51.675
899.00,51.666
900.00,51.675
901.00,51.612
902.00,51.711
903.00,51.639
904.00,51.624
905.00,51.611
906.00,51.581
907.00,51.586
908.00,51.543
909.00,51.544
910.00,51.492
911.00,51.518
912.00,51.519
913.00,51.474
914.00,51.436
915.00,51.430
916.00,51.432
917.00,51.411
918.00,51.322
919.00,51.421
920.00,51.341
921.00,51.339
922.00,51.311
923.00,51.311
924.00,51.274
925.00,51.274
926.00,51.244
927.00,51.236
928.00,51.184
929.00,51.220
930.00,51.161
931.00,51.168
932.00,51.111
933.00,51.127
934.00,51.239
935.00,51.083
936.00,51.071
937.00,51.086
938.00,51.037
939.00,51.046
940.00,50.996
941.00,51.012
942.00,50.980
943.00,50.986
944.00,50.956
945.00,50.964
946.00,50.967
947.00,50.837
948.00,50.927
949.00,50.848
950.00,50.855
951.00,50.830
952.00,50.802
953.00,50.779
954.00,50.761
955.00,50.714
956.00,50.729
957.00,50.666
958.00,50.693
959.00,50.653
960.00,50.644
961.00,50.620
962.00,50.627
963.00,50.579
964.00,50.565
965.00,50.573
966.00,50.545
967.00,50.577
968.00,50.513
969.00,50.557
970.00,50.533
971.00,50.540
972.00,50.519
973.00,50.537
974.00,50.570
975.00,50.531
976.00,50.558
977.00,50.530
978.00,50.586
979.00,50.494
980.00,50.532
981.00,50.546
982.00,50.498
983.00,50.530
984.00,50.513
985.00,50.524
986.00,50.487
987.00,50.516
988.00,50.496
989.00,50.475
990.00,50.469
991.00,50.434
992.00,50.475
993.00,50.426
994.00,50.395
995.00,50.428
996.00,50.363
997.00,50.385
998.00,50.348
999.00,50.365
1000.00,50.341
1001.00,50.332
1002.00,50.335
1003.00,50.327
1004.00,50.309
1005.00,50.285
1006.00,50.322
1007.00,50.272
1008.00,50.264
1009.00,50.240
1010.00,50.212
1011.00,50.215
1012.00,50.172
1013.00,50.199
1014.00,50.160
1015.00,50.167
1016.00,50.142
1017.00,50.135
1018.00,50.117
1019.00,50.088
1020.00,50.098
1021.00,50.067
1022.00,50.082
1023.00,50.028
1024.00,50.027
1025.00,50.021
1026.00,49.996
1027.00,49.968
1028.00,49.963
1029.00,49.949
1030.00,49.923
1031.00,49.929
1032.00,49.887
1033.00,49.905
1034.00,49.857
1035.00,49.824
1036.00,49.820
1037.00,49.779
1038.00,49.769
1039.00,49.737
1040.00,49.739
1041.00,49.699
1042.00,49.699
1043.00,49.664
1044.00,49.701
1045.00,49.673
1046.00,49.675
1047.00,49.697
1048.00,49.689
1049.00,49.717
1050.00,49.697
1051.00,49.721
1052.00,49.746
1053.00,49.755
1054.00,49.738
1055.00,49.768
1056.00,49.799
1057.00,49.774
1058.00,49.779
1059.00,49.765
1060.00,49.770
1061.00,49.772
1062.00,49.739
1063.00,49.757
1064.00,49.732
1065.00,49.688
1066.00,49.714
1067.00,49.680
1068.00,49.700
1069.00,49.675
1070.00,49.660
1071.00,49.644
1072.00,49.672
1073.00,49.636
1074.00,49.635
1075.00,49.626
1076.00,49.618
1077.00,49.617
1078.00,49.574
1079.00,49.568
1080.00,49.580
1081.00,49.548
1082.00,49.554
1083.00,49.552
1084.00,49.540
1085.00,49.544
1086.00,49.541
1087.00,49.537
1088.00,49.524
1089.00,49.517
1090.00,49.509
1091.00,49.512
1092.00,49.463
1093.00,49.448
1094.00,49.434
1095.00,49.429
1096.00,49.435
1097.00,49.421
1098.00,49.414
1099.00,49.408
1100.00,49.383
1101.00,49.386
1102.00,49.400
1103.00,49.365
1104.00,49.353
1105.00,49.344
1106.00,49.332
1107.00,49.328
1108.00,49.319
1109.00,49.306
1110.00,49.311
1111.00,49.294
1112.00,49.285
1113.00,49.279
1114.00,49.270
1115.00,49.269
1116.00,49.262
1117.00,49.242
1118.00,49.240
1119.00,49.236
1120.00,49.220
1121.00,49.221
1122.00,49.204
1123.00,49.198
1124.00,49.200
1125.00,49.174
1126.00,49.185
1127.00,49.193
1128.00,49.155
1129.00,49.160
1130.00,49.148
1131.00,49.132
1132.00,49.139
1133.00,49.121
1134.00,49.106
1135.00,49.115
1136.00,49.080
1137.00,49.080
1138.00,49.081
1139.00,49.074
1140.00,49.077
1141.00,49.078
1142.00,49.068
1143.00,49.086
1144.00,49.040
1145.00,49.038
1146.00,49.060
1147.00,49.042
1148.00,49.040
1149.00,49.042
1150.00,49.040
1151.00,49.035
1152.00,49.013
1153.00,48.998
1154.00,49.003
1155.00,48.997
1156.00,48.979
1157.00,49.020
1158.00,48.989
1159.00,48.978
1160.00,48.987
1161.00,48.983
1162.00,48.990
1163.00,48.987
1164.00,48.976
1165.00,48.976
1166.00,48.970
1167.00,48.961
1168.00,48.988
1169.00,48.956
1170.00,48.960
1171.00,48.939
1172.00,48.937
1173.00,48.944
1174.00,48.960
1175.00,48.956
1176.00,48.959
1177.00,48.948
1178.00,48.944
1179.00,48.955
1180.00,48.925
1181.00,48.949
1182.00,48.935
1183.00,48.932
1184.00,48.924
1185.00,48.936
1186.00,48.914
1187.00,48.928
1188.00,48.917
1189.00,48.894
1190.00,48.910
1191.00,48.895
1192.00,48.908
1193.00,48.890
1194.00,48.907
1195.00,48.887
1196.00,48.896
1197.00,48.900
1198.00,48.885
1199.00,48.884
1200.00,48.879
1201.00,48.898
1202.00,48.865
1203.00,48.876
1204.00,48.872
1205.00,48.871
1206.00,48.885
1207.00,48.879
1208.00,48.870
1209.00,48.879
1210.00,48.864
1211.00,48.853
1212.00,48.880
1213.00,48.836
1214.00,48.872
1215.00,48.864
1216.00,48.848
1217.00,48.854
1218.00,48.840
1219.00,48.861
1220.00,48.841
1221.00,48.856
1222.00,48.847
1223.00,48.880
1224.00,48.867
1225.00,48.846
1226.00,48.862
1227.00,48.835
1228.00,48.863
1229.00,48.864
1230.00,48.891
1231.00,48.882
1232.00,48.894
1233.00,48.890
1234.00,48.906
1235.00,48.893
1236.00,48.885
1237.00,48.892
1238.00,48.881
1239.00,48.909
1240.00,48.891
1241.00,48.894
1242.00,48.912
1243.00,48.912
1244.00,48.889
1245.00,48.922
1246.00,48.918
1247.00,48.919
1248.00,48.912
1249.00,48.912
1250.00,48.920
1251.00,48.915
1252.00,48.914
1253.00,48.917
1254.00,48.930
1255.00,48.916
1256.00,48.919
1257.00,48.880
1258.00,48.935
1259.00,48.921
1260.00,48.940
1261.00,48.948
1262.00,48.932
1263.00,48.915
1264.00,48.938
1265.00,48.935
1266.00,48.931
1267.00,48.953
1268.00,48.947
1269.00,48.948
1270.00,48.962
1271.00,48.949
1272.00,48.977
1273.00,48.981
1274.00,48.983
1275.00,49.005
1276.00,48.977
1277.00,48.972
1278.00,49.011
1279.00,49.001
1280.00,49.008
1281.00,49.021
1282.00,49.019
1283.00,49.012
1284.00,49.015
1285.00,48.996
1286.00,49.012
1287.00,48.983
1288.00,48.997
1289.00,49.009
1290.00,49.015
1291.00,49.019
1292.00,49.034
1293.00,49.027
1294.00,49.055
1295.00,49.059
1296.00,49.053
1297.00,49.064
1298.00,49.088
1299.00,49.063
1300.00,49.087
1301.00,49.070
1302.00,49.078
1303.00,49.112
1304.00,49.070
1305.00,49.108
1306.00,49.105
1307.00,49.115
1308.00,49.126
1309.00,49.113
1310.00,49.125
1311.00,49.134
1312.00,49.121
1313.00,49.115
1314.00,49.135
1315.00,49.129
1316.00,49.144
1317.00,49.158
1318.00,49.136
1319.00,49.161
1320.00,49.159
1321.00,49.316
1322.00,49.344
1323.00,49.319
1324.00,49.317
1325.00,49.299
1326.00,49.322
1327.00,49.319
1328.00,49.329
1329.00,49.294
1330.00,49.332
1331.00,49.319
1332.00,49.327
1333.00,49.332
1334.00,49.353
1335.00,49.351
1336.00,49.394
1337.00,49.417
1338.00,49.497
1339.00,49.521
1340.00,49.584
1341.00,49.649
1342.00,49.718
1343.00,49.748
1344.00,49.814
1345.00,49.861
1346.00,49.905
1347.00,49.918
1348.00,49.948
1349.00,49.960
1350.00,49.990
1351.00,49.998
1352.00,50.015
1353.00,50.021
1354.00,50.010
1355.00,49.957
1356.00,50.017
1357.00,50.015
1358.00,50.049
1359.00,50.058
1360.00,50.062
1361.00,50.073
1362.00,50.001
1363.00,50.122
1364.00,50.068
1365.00,50.025
1366.00,50.134
1367.00,50.053
1368.00,49.956
1369.00,50.079
1370.00,49.984
1371.00,50.084
1372.00,50.081
1373.00,50.011
1374.00,50.059
1375.00,49.988
1376.00,50.016
1377.00,49.980
1378.00,50.047
1379.00,50.010
1380.00,50.030
1381.00,50.008
1382.00,49.945
1383.00,50.003
1384.00,49.954
1385.00,49.977
1386.00,50.004
1387.00,49.960
1388.00,49.919
1389.00,50.000
1390.00,49.848
1391.00,49.979
1392.00,49.995
1393.00,49.983
1394.00,49.952
1395.00,49.910
1396.00,49.915
1397.00,49.953
1398.00,50.014
1399.00,49.915
1400.00,49.963
1401.00,49.957
1402.00,49.954
1403.00,49.950
1404.00,49.982
1405.00,50.043
1406.00,50.009
1407.00,50.046
1408.00,50.015
1409.00,49.998
1410.00,50.047
1411.00,50.009
1412.00,50.091
1413.00,50.046
1414.00,50.026
1415.00,50.076
1416.00,50.107
1417.00,50.119
1418.00,50.096
1419.00,50.093
1420.00,50.134
1421.00,50.167
1422.00,50.145
1423.00,50.159
1424.00,50.181
1425.00,50.188
1426.00,50.196
1427.00,50.214
1428.00,50.215
1429.00,50.231
1430.00,50.244
1431.00,50.256
1432.00,50.282
1433.00,50.280
1434.00,50.283
1435.00,50.364
1436.00,50.346
1437.00,50.335
1438.00,50.343
1439.00,50.382
1440.00,50.405
1441.00,50.389
1442.00,50.410
1443.00,50.465
1444.00,50.477
1445.00,50.452
1446.00,50.474
1447.00,50.488
1448.00,50.517
1449.00,50.526
1450.00,50.508
1451.00,50.557
1452.00,50.557
1453.00,50.565
1454.00,50.574
1455.00,50.593
1456.00,50.628
1457.00,50.607
1458.00,50.645
1459.00,50.668
1460.00,50.667
1461.00,50.669
1462.00,50.703
1463.00,50.717
1464.00,50.717
1465.00,50.741
1466.00,50.733
1467.00,50.765
1468.00,50.801
1469.00,50.798
1470.00,50.804
1471.00,50.810
1472.00,50.824
1473.00,50.853
1474.00,50.861
1475.00,50.880
1476.00,50.918
1477.00,50.899
1478.00,50.902
1479.00,50.931
1480.00,50.922
1481.00,50.943
1482.00,50.971
1483.00,50.965
1484.00,50.985
1485.00,50.994
1486.00,50.987
1487.00,51.022
1488.00,51.020
1489.00,51.024
1490.00,51.045
1491.00,51.052
1492.00,51.094
1493.00,51.064
1494.00,51.083
1495.00,51.108
1496.00,51.110
1497.00,51.109
1498.00,51.126
1499.00,51.126
1500.00,51.157
1501.00, 
1502.00, 
1503.00, 
1504.00, 
1505.00, 
1506.00, 
1507.00, 
1508.00, 
1509.00, 
1510.00, 
1511.00, 
1512.00, 
1513.00, 
1514.00, 
1515.00, 
1516.00, 
1517.00, 
1518.00, 
1519.00, 
1520.00, 
1521.00, 
1522.00, 
1523.00, 
1524.00, 
1525.00, 
1526.00, 
1527.00, 
1528.00, 
1529.00, 
1530.00, 
1531.00, 
1532.00, 
1533.00, 
1534.00, 
1535.00, 
1536.00, 
1537.00, 
1538.00, 
1539.00, 
1540.00, 
1541.00, 
1542.00, 
1543.00, 
1544.00, 
1545.00, 
1546.00, 
1547.00, 
1548.00, 
1549.00, 
1550.00, 
1551.00, 
1552.00, 
1553.00, 
1554.00, 
1555.00, 
1556.00, 
1557.00, 
1558.00, 
1559.00, 
1560.00, 
1561.00, 
1562.00, 
1563.00, 
1564.00, 
1565.00, 
1566.00, 
1567.00, 
1568.00, 
1569.00, 
1570.00, 
1571.00, 
1572.00, 
1573.00, 
1574.00, 
1575.00, 
1576.00, 
1577.00, 
1578.00, 
1579.00, 
1580.00, 
1581.00, 
1582.00, 
1583.00, 
1584.00, 
1585.00, 
1586.00, 
1587.00, 
1588.00, 
1589.00, 
1590.00, 
1591.00, 
1592.00, 
1593.00, 
1594.00, 
1595.00, 
1596.00, 
1597.00, 
1598.00, 
1599.00, 
1600.00, 
1601.00, 
1602.00, 
1603.00, 
1604.00, 
1605.00, 
1606.00, 
1607.00, 
1608.00, 
1609.00, 
1610.00, 
1611.00, 
1612.00, 
1613.00, 
1614.00, 
1615.00, 
1616.00, 
1617.00, 
1618.00, 
1619.00, 
1620.00, 
1621.00, 
1622.00, 
1623.00, 
1624.00, 
1625.00, 
1626.00, 
1627.00, 
1628.00, 
1629.00, 
1630.00, 
1631.00, 
1632.00, 
1633.00, 
1634.00, 
1635.00, 
1636.00, 
1637.00, 
1638.00, 
1639.00, 
1640.00, 
1641.00, 
1642.00, 
1643.00, 
1644.00, 
1645.00, 
1646.00, 
1647.00, 
1648.00, 
1649.00, 
1650.00, 
1651.00, 
1652.00, 
1653.00, 
1654.00, 
1655.00, 
1656.00, 
1657.00, 
1658.00, 
1659.00, 
1660.00, 
1661.00, 
1662.00, 
1663.00, 
1664.00, 
1665.00, 
1666.00, 
1667.00, 
1668.00, 
1669.00, 
1670.00, 
1671.00, 
1672.00, 
1673.00, 
1674.00, 
1675.00, 
1676.00, 
1677.00, 
1678.00, 
1679.00, 
1680.00, 
1681.00, 
1682.00, 
1683.00, 
1684.00, 
1685.00, 
1686.00, 
1687.00, 
1688.00, 
1689.00, 
1690.00, 
1691.00, 
1692.00, 
1693.00, 
1694.00, 
1695.00, 
1696.00, 
1697.00, 
1698.00, 
1699.00, 
1700.00, 
1701.00, 
1702.00, 
1703.00, 
1704.00, 
1705.00, 
1706.00, 
1707.00, 
1708.00, 
1709.00, 
1710.00, 
1711.00, 
1712.00, 
1713.00, 
1714.00, 
1715.00, 
1716.00, 
1717.00, 
1718.00, 
1719.00, 
1720.00, 
1721.00, 
1722.00, 
1723.00, 
1724.00, 
1725.00, 
1726.00, 
1727.00, 
1728.00, 
1729.00, 
1730.00, 
1731.00, 
1732.00, 
1733.00, 
1734.00, 
1735.00, 
1736.00, 
1737.00, 
1738.00, 
1739.00, 
1740.00, 
1741.00, 
1742.00, 
1743.00, 
1744.00, 
1745.00, 
1746.00, 
1747.00, 
1748.00, 
1749.00, 
1750.00, 
1751.00, 
1752.00, 
1753.00, 
1754.00, 
1755.00, 
1756.00, 
1757.00, 
1758.00, 
1759.00, 
1760.00, 
1761.00, 
1762.00, 
1763.00, 
1764.00, 
1765.00, 
1766.00, 
1767.00, 
1768.00, 
1769.00, 
1770.00, 
1771.00, 
1772.00, 
1773.00, 
1774.00, 
1775.00, 
1776.00, 
1777.00, 
1778.00, 
1779.00, 
1780.00, 
1781.00, 
1782.00, 
1783.00, 
1784.00, 
1785.00, 
1786.00, 
1787.00, 
1788.00, 
1789.00, 
1790.00, 
1791.00, 
1792.00, 
1793.00, 
1794.00, 
1795.00, 
1796.00, 
1797.00, 
1798.00, 
1799.00, 
1800.00, 
1801.00, 
1802.00, 
1803.00, 
1804.00, 
1805.00, 
1806.00, 
1807.00, 
1808.00, 
1809.00, 
1810.00, 
1811.00, 
1812.00, 
1813.00, 
1814.00, 
1815.00, 
1816.00, 
1817.00, 
1818.00, 
1819.00, 
1820.00, 
1821.00, 
1822.00, 
1823.00, 
1824.00, 
1825.00, 
1826.00, 
1827.00, 
1828.00, 
1829.00, 
1830.00, 
1831.00, 
1832.00, 
1833.00, 
1834.00, 
1835.00, 
1836.00, 
1837.00, 
1838.00, 
1839.00, 
1840.00, 
1841.00, 
1842.00, 
1843.00, 
1844.00, 
1845.00, 
1846.00, 
1847.00, 
1848.00, 
1849.00, 
1850.00, 
1851.00, 
1852.00, 
1853.00, 
1854.00, 
1855.00, 
1856.00, 
1857.00, 
1858.00, 
1859.00, 
1860.00, 
1861.00, 
1862.00, 
1863.00, 
1864.00, 
1865.00, 
1866.00, 
1867.00, 
1868.00, 
1869.00, 
1870.00, 
1871.00, 
1872.00, 
1873.00, 
1874.00, 
1875.00, 
1876.00, 
1877.00, 
1878.00, 
1879.00, 
1880.00, 
1881.00, 
1882.00, 
1883.00, 
1884.00, 
1885.00, 
1886.00, 
1887.00, 
1888.00, 
1889.00, 
1890.00, 
1891.00, 
1892.00, 
1893.00, 
1894.00, 
1895.00, 
1896.00, 
1897.00, 
1898.00, 
1899.00, 
1900.00, 
1901.00, 
1902.00, 
1903.00, 
1904.00, 
1905.00, 
1906.00, 
1907.00, 
1908.00, 
1909.00, 
1910.00, 
1911.00, 
1912.00, 
1913.00, 
1914.00, 
1915.00, 
1916.00, 
1917.00, 
1918.00, 
1919.00, 
1920.00, 
1921.00, 
1922.00, 
1923.00, 
1924.00, 
1925.00, 
1926.00, 
1927.00, 
1928.00, 
1929.00, 
1930.00, 
1931.00, 
1932.00, 
1933.00, 
1934.00, 
1935.00, 
1936.00, 
1937.00, 
1938.00, 
1939.00, 
1940.00, 
1941.00, 
1942.00, 
1943.00, 
1944.00, 
1945.00, 
1946.00, 
1947.00, 
1948.00, 
1949.00, 
1950.00, 
1951.00, 
1952.00, 
1953.00, 
1954.00, 
1955.00, 
1956.00, 
1957.00, 
1958.00, 
1959.00, 
1960.00, 
1961.00, 
1962.00, 
1963.00, 
1964.00, 
1965.00, 
1966.00, 
1967.00, 
1968.00, 
1969.00, 
1970.00, 
1971.00, 
1972.00, 
1973.00, 
1974.00, 
1975.00, 
1976.00, 
1977.00, 
1978.00, 
1979.00, 
1980.00, 
1981.00, 
1982.00, 
1983.00, 
1984.00, 
1985.00, 
1986.00, 
1987.00, 
1988.00, 
1989.00, 
1990.00, 
1991.00, 
1992.00, 
1993.00, 
1994.00, 
1995.00, 
1996.00, 
1997.00, 
1998.00, 
1999.00, 
2000.00, 
2001.00, 
2002.00, 
2003.00, 
2004.00, 
2005.00, 
2006.00, 
2007.00, 
2008.00, 
2009.00, 
2010.00, 
2011.00, 
2012.00, 
2013.00, 
2014.00, 
2015.00, 
2016.00, 
2017.00, 
2018.00, 
2019.00, 
2020.00, 
2021.00, 
2022.00, 
2023.00, 
2024.00, 
2025.00, 
2026.00, 
2027.00, 
2028.00, 
2029.00, 
2030.00, 
2031.00, 
2032.00, 
2033.00, 
2034.00, 
2035.00, 
2036.00, 
2037.00, 
2038.00, 
2039.00, 
2040.00, 
2041.00, 
2042.00, 
2043.00, 
2044.00, 
2045.00, 
2046.00, 
2047.00, 
2048.00, 
2049.00, 
2050.00, 
2051.00, 
2052.00, 
2053.00, 
2054.00, 
2055.00, 
2056.00, 
2057.00, 
2058.00, 
2059.00, 
2060.00, 
2061.00, 
2062.00, 
2063.00, 
2064.00, 
2065.00, 
2066.00, 
2067.00, 
2068.00, 
2069.00, 
2070.00, 
2071.00, 
2072.00, 
2073.00, 
2074.00, 
2075.00, 
2076.00, 
2077.00, 
2078.00, 
2079.00, 
2080.00, 
2081.00, 
2082.00, 
2083.00, 
2084.00, 
2085.00, 
2086.00, 
2087.00, 
2088.00, 
2089.00, 
2090.00, 
2091.00, 
2092.00, 
2093.00, 
2094.00, 
2095.00, 
2096.00, 
2097.00, 
2098.00, 
2099.00, 
2100.00, 
2101.00, 
2102.00, 
2103.00, 
2104.00, 
2105.00, 
2106.00, 
2107.00, 
2108.00, 
2109.00, 
2110.00, 
2111.00, 
2112.00, 
2113.00, 
2114.00, 
2115.00, 
2116.00, 
2117.00, 
2118.00, 
2119.00, 
2120.00, 
2121.00, 
2122.00, 
2123.00, 
2124.00, 
2125.00, 
2126.00, 
2127.00, 
2128.00, 
2129.00, 
2130.00, 
2131.00, 
2132.00, 
2133.00, 
2134.00, 
2135.00, 
2136.00, 
2137.00, 
2138.00, 
2139.00, 
2140.00, 
2141.00, 
2142.00, 
2143.00, 
2144.00, 
2145.00, 
2146.00, 
2147.00, 
2148.00, 
2149.00, 
2150.00, 
2151.00, 
2152.00, 
2153.00, 
2154.00, 
2155.00, 
2156.00, 
2157.00, 
2158.00, 
2159.00, 
2160.00, 
2161.00, 
2162.00, 
2163.00, 
2164.00, 
2165.00, 
2166.00, 
2167.00, 
2168.00, 
2169.00, 
2170.00, 
2171.00, 
2172.00, 
2173.00, 
2174.00, 
2175.00, 
2176.00, 
2177.00, 
2178.00, 
2179.00, 
2180.00, 
2181.00, 
2182.00, 
2183.00, 
2184.00, 
2185.00, 
2186.00, 
2187.00, 
2188.00, 
2189.00, 
2190.00, 
2191.00, 
2192.00, 
2193.00, 
2194.00, 
2195.00, 
2196.00, 
2197.00, 
2198.00, 
2199.00, 
2200.00, 
2201.00, 
2202.00, 
2203.00, 
2204.00, 
2205.00, 
2206.00, 
2207.00, 
2208.00, 
2209.00, 
2210.00, 
2211.00, 
2212.00, 
2213.00, 
2214.00, 
2215.00, 
2216.00, 
2217.00, 
2218.00, 
2219.00, 
2220.00, 
2221.00, 
2222.00, 
2223.00, 
2224.00, 
2225.00, 
2226.00, 
2227.00, 
2228.00, 
2229.00, 
2230.00, 
2231.00, 
2232.00, 
2233.00, 
2234.00, 
2235.00, 
2236.00, 
2237.00, 
2238.00, 
2239.00, 
2240.00, 
2241.00, 
2242.00, 
2243.00, 
2244.00, 
2245.00, 
2246.00, 
2247.00, 
2248.00, 
2249.00, 
2250.00, 
2251.00, 
2252.00, 
2253.00, 
2254.00, 
2255.00, 
2256.00, 
2257.00, 
2258.00, 
2259.00, 
2260.00, 
2261.00, 
2262.00, 
2263.00, 
2264.00, 
2265.00, 
2266.00, 
2267.00, 
2268.00, 
2269.00, 
2270.00, 
2271.00, 
2272.00, 
2273.00, 
2274.00, 
2275.00, 
2276.00, 
2277.00, 
2278.00, 
2279.00, 
2280.00, 
2281.00, 
2282.00, 
2283.00, 
2284.00, 
2285.00, 
2286.00, 
2287.00, 
2288.00, 
2289.00, 
2290.00, 
2291.00, 
2292.00, 
2293.00, 
2294.00, 
2295.00, 
2296.00, 
2297.00, 
2298.00, 
2299.00, 
2300.00, 
2301.00, 
2302.00, 
2303.00, 
2304.00, 
2305.00, 
2306.00, 
2307.00, 
2308.00, 
2309.00, 
2310.00, 
2311.00, 
2312.00, 
2313.00, 
2314.00, 
2315.00, 
2316.00, 
2317.00, 
2318.00, 
2319.00, 
2320.00, 
2321.00, 
2322.00, 
2323.00, 
2324.00, 
2325.00, 
2326.00, 
2327.00, 
2328.00, 
2329.00, 
2330.00, 
2331.00, 
2332.00, 
2333.00, 
2334.00, 
2335.00, 
2336.00, 
2337.00, 
2338.00, 
2339.00, 
2340.00, 
2341.00, 
2342.00, 
2343.00, 
2344.00, 
2345.00, 
2346.00, 
2347.00, 
2348.00, 
2349.00, 
2350.00, 
2351.00, 
2352.00, 
2353.00, 
2354.00, 
2355.00, 
2356.00, 
2357.00, 
2358.00, 
2359.00, 
2360.00, 
2361.00, 
2362.00, 
2363.00, 
2364.00, 
2365.00, 
2366.00, 
2367.00, 
2368.00, 
2369.00, 
2370.00, 
2371.00, 
2372.00, 
2373.00, 
2374.00, 
2375.00, 
2376.00, 
2377.00, 
2378.00, 
2379.00, 
2380.00, 
2381.00, 
2382.00, 
2383.00, 
2384.00, 
2385.00, 
2386.00, 
2387.00, 
2388.00, 
2389.00, 
2390.00, 
2391.00, 
2392.00, 
2393.00, 
2394.00, 
2395.00, 
2396.00, 
2397.00, 
2398.00, 
2399.00, 
2400.00, 
2401.00, 
2402.00, 
2403.00, 
2404.00, 
2405.00, 
2406.00, 
2407.00, 
2408.00, 
2409.00, 
2410.00, 
2411.00, 
2412.00, 
2413.00, 
2414.00, 
2415.00, 
2416.00, 
2417.00, 
2418.00, 
2419.00, 
2420.00, 
2421.00, 
2422.00, 
2423.00, 
2424.00, 
2425.00, 
2426.00, 
2427.00, 
2428.00, 
2429.00, 
2430.00, 
2431.00, 
2432.00, 
2433.00, 
2434.00, 
2435.00, 
2436.00, 
2437.00, 
2438.00, 
2439.00, 
2440.00, 
2441.00, 
2442.00, 
2443.00, 
2444.00, 
2445.00, 
2446.00, 
2447.00, 
2448.00, 
2449.00, 
2450.00, 
2451.00, 
2452.00, 
2453.00, 
2454.00, 
2455.00, 
2456.00, 
2457.00, 
2458.00, 
2459.00, 
2460.00, 
2461.00, 
2462.00, 
2463.00, 
2464.00, 
2465.00, 
2466.00, 
2467.00, 
2468.00, 
2469.00, 
2470.00, 
2471.00, 
2472.00, 
2473.00, 
2474.00, 
2475.00, 
2476.00, 
2477.00, 
2478.00, 
2479.00, 
2480.00, 
2481.00, 
2482.00, 
2483.00, 
2484.00, 
2485.00, 
2486.00, 
2487.00, 
2488.00, 
2489.00, 
2490.00, 
2491.00, 
2492.00, 
2493.00, 
2494.00, 
2495.00, 
2496.00, 
2497.00, 
2498.00, 
2499.00, 
2500.00, 
2501.00, 
2502.00, 
2503.00, 
2504.00, 
2505.00, 
2506.00, 
2507.00, 
2508.00, 
2509.00, 
2510.00, 
2511.00, 
2512.00, 
2513.00, 
2514.00, 
2515.00, 
2516.00, 
2517.00, 
2518.00, 
2519.00, 
2520.00, 
2521.00, 
2522.00, 
2523.00, 
2524.00, 
2525.00, 
2526.00, 
2527.00, 
2528.00, 
2529.00, 
2530.00, 
2531.00, 
2532.00, 
2533.00, 
2534.00, 
2535.00, 
2536.00, 
2537.00, 
2538.00, 
2539.00, 
2540.00, 
2541.00, 
2542.00, 
2543.00, 
2544.00, 
2545.00, 
2546.00, 
2547.00, 
2548.00, 
2549.00, 
2550.00, 
2551.00, 
2552.00, 
2553.00, 
2554.00, 
2555.00, 
2556.00, 
2557.00, 
2558.00, 
2559.00, 
2560.00, 
2561.00, 
2562.00, 
2563.00, 
2564.00, 
2565.00, 
2566.00, 
2567.00, 
2568.00, 
2569.00, 
2570.00, 
2571.00, 
2572.00, 
2573.00, 
2574.00, 
2575.00, 
2576.00, 
2577.00, 
2578.00, 
2579.00, 
2580.00, 
2581.00, 
2582.00, 
2583.00, 
2584.00, 
2585.00, 
2586.00, 
2587.00, 
2588.00, 
2589.00, 
2590.00, 
2591.00, 
2592.00, 
2593.00, 
2594.00, 
2595.00, 
2596.00, 
2597.00, 
2598.00, 
2599.00, 
2600.00, 
