"2cP3 - RawData"
"Wavelength nm.","T%"
200.00,-0.000
201.00,0.001
202.00,0.002
203.00,-0.001
204.00,0.003
205.00,0.003
206.00,0.001
207.00,-0.003
208.00,0.001
209.00,0.003
210.00,0.001
211.00,0.002
212.00,0.001
213.00,0.001
214.00,0.001
215.00,0.001
216.00,-0.002
217.00,0.004
218.00,0.002
219.00,0.004
220.00,-0.002
221.00,0.001
222.00,0.000
223.00,0.001
224.00,-0.001
225.00,0.002
226.00,0.000
227.00,0.000
228.00,0.002
229.00,0.003
230.00,0.000
231.00,0.002
232.00,0.002
233.00,0.001
234.00,-0.001
235.00,0.000
236.00,0.001
237.00,0.001
238.00,0.001
239.00,0.001
240.00,0.001
241.00,0.001
242.00,-0.000
243.00,-0.002
244.00,0.000
245.00,0.000
246.00,-0.001
247.00,0.001
248.00,0.001
249.00,-0.000
250.00,0.002
251.00,-0.000
252.00,0.000
253.00,0.001
254.00,-0.000
255.00,0.002
256.00,0.001
257.00,-0.001
258.00,0.000
259.00,-0.001
260.00,0.001
261.00,-0.001
262.00,0.001
263.00,0.002
264.00,0.001
265.00,0.000
266.00,0.001
267.00,-0.000
268.00,0.001
269.00,-0.000
270.00,0.001
271.00,0.001
272.00,-0.000
273.00,-0.001
274.00,-0.000
275.00,0.002
276.00,0.001
277.00,0.002
278.00,0.000
279.00,-0.000
280.00,0.001
281.00,0.000
282.00,0.001
283.00,0.000
284.00,0.000
285.00,-0.001
286.00,-0.002
287.00,-0.001
288.00,-0.000
289.00,0.000
290.00,0.002
291.00,0.002
292.00,0.000
293.00,0.000
294.00,-0.000
295.00,0.001
296.00,0.001
297.00,0.000
298.00,-0.001
299.00,0.002
300.00,0.002
301.00,0.001
302.00,0.002
303.00,0.004
304.00,0.007
305.00,0.009
306.00,0.015
307.00,0.022
308.00,0.036
309.00,0.053
310.00,0.077
311.00,0.102
312.00,0.139
313.00,0.185
314.00,0.242
315.00,0.317
316.00,0.407
317.00,0.508
318.00,0.631
319.00,0.780
320.00,0.947
321.00,1.122
322.00,1.325
323.00,1.568
324.00,1.813
325.00,2.053
326.00,2.321
327.00,2.572
328.00,2.923
329.00,3.215
330.00,3.531
331.00,3.862
332.00,4.192
333.00,4.544
334.00,4.860
335.00,5.201
336.00,5.517
337.00,5.859
338.00,6.176
339.00,6.478
340.00,6.795
341.00,7.088
342.00,7.366
343.00,7.627
344.00,7.901
345.00,8.099
346.00,8.353
347.00,8.548
348.00,8.738
349.00,8.959
350.00,9.110
351.00,9.254
352.00,9.407
353.00,9.556
354.00,9.679
355.00,9.801
356.00,9.911
357.00,10.006
358.00,10.084
359.00,10.185
360.00,10.247
361.00,10.329
362.00,10.347
363.00,10.401
364.00,10.475
365.00,10.450
366.00,10.488
367.00,10.496
368.00,10.514
369.00,10.518
370.00,10.498
371.00,10.509
372.00,10.475
373.00,10.453
374.00,10.425
375.00,10.396
376.00,10.352
377.00,10.306
378.00,10.245
379.00,10.209
380.00,10.182
381.00,10.143
382.00,10.110
383.00,10.093
384.00,10.073
385.00,10.056
386.00,10.050
387.00,10.060
388.00,10.036
389.00,10.000
390.00,10.033
391.00,9.982
392.00,9.972
393.00,9.962
394.00,9.963
395.00,9.946
396.00,9.927
397.00,9.918
398.00,9.888
399.00,9.893
400.00,9.881
401.00,9.849
402.00,9.855
403.00,9.844
404.00,9.814
405.00,9.804
406.00,9.782
407.00,9.760
408.00,9.758
409.00,9.718
410.00,9.707
411.00,9.696
412.00,9.670
413.00,9.678
414.00,9.670
415.00,9.666
416.00,9.687
417.00,9.682
418.00,9.706
419.00,9.709
420.00,9.710
421.00,9.720
422.00,9.759
423.00,9.737
424.00,9.771
425.00,9.796
426.00,9.815
427.00,9.833
428.00,9.869
429.00,9.911
430.00,9.937
431.00,9.968
432.00,10.011
433.00,10.049
434.00,10.073
435.00,10.130
436.00,10.173
437.00,10.224
438.00,10.259
439.00,10.322
440.00,10.383
441.00,10.472
442.00,10.497
443.00,10.550
444.00,10.614
445.00,10.660
446.00,10.726
447.00,10.793
448.00,10.864
449.00,10.981
450.00,11.067
451.00,11.150
452.00,11.226
453.00,11.301
454.00,11.390
455.00,11.496
456.00,11.571
457.00,11.656
458.00,11.764
459.00,11.863
460.00,11.963
461.00,12.048
462.00,12.170
463.00,12.268
464.00,12.389
465.00,12.498
466.00,12.606
467.00,12.721
468.00,12.803
469.00,12.921
470.00,13.011
471.00,13.134
472.00,13.249
473.00,13.336
474.00,13.450
475.00,13.570
476.00,13.684
477.00,13.785
478.00,13.912
479.00,14.055
480.00,14.178
481.00,14.317
482.00,14.447
483.00,14.574
484.00,14.721
485.00,14.874
486.00,14.993
487.00,15.151
488.00,15.272
489.00,15.422
490.00,15.571
491.00,15.705
492.00,15.849
493.00,16.012
494.00,16.124
495.00,16.206
496.00,16.346
497.00,16.465
498.00,16.610
499.00,16.787
500.00,16.881
501.00,16.993
502.00,17.181
503.00,17.318
504.00,17.414
505.00,17.566
506.00,17.693
507.00,17.820
508.00,17.946
509.00,18.097
510.00,18.220
511.00,18.325
512.00,18.520
513.00,18.617
514.00,18.764
515.00,18.891
516.00,18.989
517.00,19.121
518.00,19.274
519.00,19.357
520.00,19.476
521.00,19.580
522.00,19.700
523.00,19.801
524.00,19.922
525.00,20.026
526.00,20.152
527.00,20.246
528.00,20.366
529.00,20.458
530.00,20.586
531.00,20.737
532.00,20.826
533.00,20.910
534.00,20.979
535.00,21.180
536.00,21.276
537.00,21.346
538.00,21.489
539.00,21.565
540.00,21.651
541.00,21.746
542.00,21.786
543.00,21.910
544.00,21.984
545.00,22.058
546.00,22.152
547.00,22.273
548.00,22.319
549.00,22.424
550.00,22.531
551.00,22.622
552.00,22.708
553.00,22.771
554.00,22.915
555.00,22.965
556.00,23.022
557.00,23.112
558.00,23.175
559.00,23.259
560.00,23.378
561.00,23.407
562.00,23.505
563.00,23.547
564.00,23.656
565.00,23.695
566.00,23.740
567.00,23.814
568.00,23.826
569.00,23.930
570.00,23.950
571.00,24.039
572.00,24.090
573.00,24.116
574.00,24.230
575.00,24.218
576.00,24.260
577.00,24.326
578.00,24.411
579.00,24.470
580.00,24.603
581.00,24.707
582.00,24.760
583.00,24.842
584.00,24.939
585.00,24.976
586.00,25.032
587.00,25.136
588.00,25.172
589.00,25.220
590.00,25.312
591.00,25.337
592.00,25.392
593.00,25.420
594.00,25.488
595.00,25.582
596.00,25.627
597.00,25.692
598.00,25.837
599.00,25.830
600.00,25.881
601.00,25.990
602.00,26.003
603.00,26.030
604.00,26.162
605.00,26.227
606.00,26.296
607.00,26.379
608.00,26.415
609.00,26.434
610.00,26.587
611.00,26.681
612.00,26.592
613.00,26.725
614.00,26.790
615.00,26.836
616.00,26.955
617.00,26.991
618.00,27.096
619.00,27.106
620.00,27.150
621.00,27.316
622.00,27.447
623.00,27.532
624.00,27.603
625.00,27.688
626.00,27.755
627.00,27.879
628.00,27.929
629.00,28.038
630.00,28.133
631.00,28.208
632.00,28.328
633.00,28.402
634.00,28.493
635.00,28.626
636.00,28.717
637.00,28.868
638.00,28.899
639.00,29.047
640.00,29.138
641.00,29.257
642.00,29.384
643.00,29.415
644.00,29.596
645.00,29.682
646.00,29.811
647.00,29.941
648.00,30.023
649.00,30.217
650.00,30.245
651.00,30.332
652.00,30.527
653.00,30.642
654.00,30.827
655.00,30.957
656.00,31.023
657.00,31.154
658.00,31.310
659.00,31.443
660.00,31.630
661.00,31.704
662.00,31.927
663.00,31.992
664.00,32.227
665.00,32.300
666.00,32.486
667.00,32.685
668.00,32.612
669.00,32.928
670.00,33.058
671.00,33.208
672.00,33.303
673.00,33.541
674.00,33.687
675.00,33.801
676.00,34.004
677.00,34.070
678.00,34.232
679.00,34.382
680.00,34.498
681.00,34.614
682.00,34.809
683.00,34.966
684.00,35.226
685.00,35.347
686.00,35.523
687.00,35.725
688.00,35.640
689.00,35.844
690.00,36.081
691.00,36.101
692.00,36.184
693.00,36.481
694.00,36.579
695.00,36.741
696.00,36.840
697.00,37.095
698.00,37.259
699.00,37.501
700.00,37.687
701.00,37.701
702.00,37.909
703.00,38.221
704.00,38.249
705.00,38.393
706.00,38.585
707.00,38.796
708.00,38.783
709.00,39.089
710.00,39.222
711.00,39.261
712.00,39.384
713.00,39.529
714.00,39.650
715.00,39.827
716.00,40.054
717.00,40.002
718.00,40.142
719.00,40.333
720.00,40.475
721.00,44.275
722.00,44.371
723.00,44.420
724.00,44.491
725.00,44.543
726.00,44.709
727.00,44.793
728.00,44.929
729.00,45.025
730.00,45.142
731.00,45.181
732.00,45.338
733.00,45.437
734.00,45.539
735.00,45.664
736.00,45.742
737.00,45.877
738.00,45.897
739.00,46.084
740.00,46.151
741.00,46.240
742.00,46.441
743.00,46.405
744.00,46.493
745.00,46.542
746.00,46.611
747.00,46.706
748.00,46.718
749.00,46.736
750.00,46.880
751.00,46.907
752.00,46.980
753.00,47.022
754.00,47.159
755.00,47.211
756.00,47.302
757.00,47.363
758.00,47.370
759.00,47.447
760.00,47.516
761.00,47.626
762.00,47.710
763.00,47.796
764.00,47.789
765.00,47.838
766.00,47.886
767.00,47.915
768.00,48.006
769.00,48.060
770.00,48.065
771.00,48.187
772.00,48.265
773.00,48.304
774.00,48.357
775.00,48.475
776.00,48.524
777.00,48.582
778.00,48.613
779.00,48.610
780.00,48.724
781.00,48.746
782.00,48.778
783.00,48.757
784.00,48.853
785.00,48.850
786.00,48.880
787.00,48.902
788.00,48.881
789.00,48.918
790.00,48.934
791.00,49.064
792.00,48.977
793.00,48.994
794.00,49.068
795.00,49.105
796.00,49.120
797.00,49.096
798.00,49.122
799.00,49.136
800.00,49.136
801.00,49.186
802.00,49.144
803.00,49.244
804.00,49.214
805.00,49.263
806.00,49.219
807.00,49.315
808.00,49.353
809.00,49.357
810.00,49.309
811.00,49.337
812.00,49.292
813.00,49.361
814.00,49.384
815.00,49.333
816.00,49.430
817.00,49.502
818.00,49.408
819.00,49.405
820.00,49.395
821.00,49.397
822.00,49.407
823.00,49.432
824.00,49.425
825.00,49.424
826.00,49.479
827.00,49.480
828.00,49.525
829.00,49.489
830.00,49.493
831.00,52.075
832.00,52.084
833.00,52.067
834.00,52.064
835.00,52.093
836.00,52.093
837.00,52.055
838.00,52.060
839.00,52.066
840.00,52.041
841.00,52.084
842.00,52.061
843.00,52.081
844.00,52.116
845.00,52.007
846.00,52.064
847.00,52.077
848.00,52.047
849.00,51.973
850.00,51.978
851.00,51.928
852.00,51.999
853.00,51.925
854.00,51.941
855.00,51.876
856.00,51.913
857.00,51.880
858.00,51.879
859.00,51.848
860.00,51.855
861.00,51.848
862.00,51.803
863.00,51.859
864.00,51.847
865.00,51.868
866.00,51.806
867.00,51.840
868.00,51.822
869.00,51.832
870.00,51.860
871.00,51.843
872.00,51.836
873.00,51.816
874.00,51.849
875.00,51.833
876.00,51.837
877.00,51.820
878.00,51.843
879.00,51.817
880.00,51.800
881.00,51.780
882.00,51.810
883.00,51.809
884.00,51.773
885.00,51.735
886.00,51.745
887.00,51.743
888.00,51.702
889.00,51.696
890.00,51.695
891.00,51.669
892.00,51.658
893.00,51.637
894.00,51.648
895.00,51.650
896.00,51.630
897.00,51.572
898.00,51.608
899.00,51.602
900.00,51.599
901.00,51.587
902.00,51.584
903.00,51.580
904.00,51.557
905.00,51.541
906.00,51.530
907.00,51.520
908.00,51.489
909.00,51.521
910.00,51.449
911.00,51.485
912.00,51.469
913.00,51.443
914.00,51.414
915.00,51.396
916.00,51.388
917.00,51.360
918.00,51.344
919.00,51.327
920.00,51.299
921.00,51.288
922.00,51.307
923.00,51.277
924.00,51.252
925.00,51.252
926.00,51.242
927.00,51.215
928.00,51.181
929.00,51.214
930.00,51.179
931.00,51.162
932.00,51.183
933.00,51.138
934.00,51.141
935.00,51.105
936.00,51.090
937.00,51.080
938.00,51.072
939.00,51.071
940.00,51.016
941.00,51.029
942.00,51.008
943.00,51.000
944.00,50.955
945.00,50.962
946.00,50.963
947.00,50.911
948.00,50.893
949.00,50.893
950.00,50.874
951.00,50.850
952.00,50.820
953.00,50.874
954.00,50.797
955.00,50.746
956.00,50.763
957.00,50.715
958.00,50.747
959.00,50.687
960.00,50.685
961.00,50.656
962.00,50.676
963.00,50.626
964.00,50.612
965.00,50.609
966.00,50.599
967.00,50.625
968.00,50.571
969.00,50.621
970.00,50.582
971.00,50.584
972.00,50.565
973.00,50.580
974.00,50.610
975.00,50.551
976.00,50.611
977.00,50.574
978.00,50.632
979.00,50.571
980.00,50.587
981.00,50.599
982.00,50.568
983.00,50.597
984.00,50.569
985.00,50.590
986.00,50.544
987.00,50.563
988.00,50.535
989.00,50.525
990.00,50.535
991.00,50.506
992.00,50.546
993.00,50.500
994.00,50.471
995.00,50.489
996.00,50.455
997.00,50.457
998.00,50.400
999.00,50.445
1000.00,50.399
1001.00,50.397
1002.00,50.405
1003.00,50.392
1004.00,50.386
1005.00,50.354
1006.00,50.376
1007.00,50.331
1008.00,50.327
1009.00,50.326
1010.00,50.302
1011.00,50.312
1012.00,50.262
1013.00,50.286
1014.00,50.265
1015.00,50.261
1016.00,50.209
1017.00,50.203
1018.00,50.200
1019.00,50.158
1020.00,50.165
1021.00,50.146
1022.00,50.156
1023.00,50.105
1024.00,50.104
1025.00,50.099
1026.00,50.081
1027.00,50.042
1028.00,50.046
1029.00,50.041
1030.00,50.005
1031.00,50.017
1032.00,49.982
1033.00,49.997
1034.00,49.951
1035.00,49.916
1036.00,49.915
1037.00,49.880
1038.00,49.865
1039.00,49.841
1040.00,49.844
1041.00,49.801
1042.00,49.802
1043.00,49.786
1044.00,49.804
1045.00,49.780
1046.00,49.785
1047.00,49.798
1048.00,49.796
1049.00,49.816
1050.00,49.814
1051.00,49.852
1052.00,49.848
1053.00,49.872
1054.00,49.866
1055.00,49.886
1056.00,49.899
1057.00,49.894
1058.00,49.880
1059.00,49.863
1060.00,49.897
1061.00,49.911
1062.00,49.836
1063.00,49.860
1064.00,49.838
1065.00,49.799
1066.00,49.814
1067.00,49.794
1068.00,49.825
1069.00,49.784
1070.00,49.778
1071.00,49.754
1072.00,49.777
1073.00,49.753
1074.00,49.744
1075.00,49.743
1076.00,49.747
1077.00,49.727
1078.00,49.712
1079.00,49.700
1080.00,49.703
1081.00,49.688
1082.00,49.674
1083.00,49.672
1084.00,49.666
1085.00,49.660
1086.00,49.676
1087.00,49.664
1088.00,49.677
1089.00,49.670
1090.00,49.629
1091.00,49.639
1092.00,49.625
1093.00,49.610
1094.00,49.592
1095.00,49.585
1096.00,49.576
1097.00,49.557
1098.00,49.553
1099.00,49.537
1100.00,49.531
1101.00,49.551
1102.00,49.515
1103.00,49.504
1104.00,49.485
1105.00,49.478
1106.00,49.464
1107.00,49.454
1108.00,49.455
1109.00,49.439
1110.00,49.443
1111.00,49.433
1112.00,49.421
1113.00,49.404
1114.00,49.406
1115.00,49.408
1116.00,49.397
1117.00,49.377
1118.00,49.385
1119.00,49.386
1120.00,49.378
1121.00,49.382
1122.00,49.399
1123.00,49.341
1124.00,49.338
1125.00,49.334
1126.00,49.335
1127.00,49.320
1128.00,49.302
1129.00,49.304
1130.00,49.301
1131.00,49.293
1132.00,49.288
1133.00,49.277
1134.00,49.269
1135.00,49.264
1136.00,49.269
1137.00,49.282
1138.00,49.257
1139.00,49.256
1140.00,49.240
1141.00,49.229
1142.00,49.228
1143.00,49.261
1144.00,49.215
1145.00,49.223
1146.00,49.220
1147.00,49.210
1148.00,49.201
1149.00,49.209
1150.00,49.212
1151.00,49.205
1152.00,49.188
1153.00,49.180
1154.00,49.169
1155.00,49.172
1156.00,49.154
1157.00,49.172
1158.00,49.169
1159.00,49.157
1160.00,49.153
1161.00,49.160
1162.00,49.156
1163.00,49.157
1164.00,49.146
1165.00,49.134
1166.00,49.139
1167.00,49.130
1168.00,49.144
1169.00,49.126
1170.00,49.127
1171.00,49.117
1172.00,49.118
1173.00,49.116
1174.00,49.118
1175.00,49.108
1176.00,49.110
1177.00,49.087
1178.00,49.094
1179.00,49.108
1180.00,49.104
1181.00,49.117
1182.00,49.108
1183.00,49.117
1184.00,49.088
1185.00,49.112
1186.00,49.096
1187.00,49.095
1188.00,49.089
1189.00,49.081
1190.00,49.090
1191.00,49.087
1192.00,49.101
1193.00,49.091
1194.00,49.095
1195.00,49.076
1196.00,49.099
1197.00,49.096
1198.00,49.070
1199.00,49.073
1200.00,49.077
1201.00,49.093
1202.00,49.071
1203.00,49.080
1204.00,49.067
1205.00,49.074
1206.00,49.073
1207.00,49.067
1208.00,49.057
1209.00,49.057
1210.00,49.058
1211.00,49.049
1212.00,49.066
1213.00,49.028
1214.00,49.055
1215.00,49.053
1216.00,49.046
1217.00,49.060
1218.00,49.050
1219.00,49.065
1220.00,49.043
1221.00,49.056
1222.00,49.029
1223.00,49.042
1224.00,49.041
1225.00,49.019
1226.00,49.028
1227.00,49.006
1228.00,49.044
1229.00,49.053
1230.00,49.087
1231.00,49.071
1232.00,49.093
1233.00,49.085
1234.00,49.103
1235.00,49.094
1236.00,49.081
1237.00,49.092
1238.00,49.073
1239.00,49.097
1240.00,49.082
1241.00,49.086
1242.00,49.104
1243.00,49.121
1244.00,49.111
1245.00,49.122
1246.00,49.122
1247.00,49.119
1248.00,49.113
1249.00,49.115
1250.00,49.127
1251.00,49.125
1252.00,49.132
1253.00,49.120
1254.00,49.133
1255.00,49.127
1256.00,49.109
1257.00,49.088
1258.00,49.148
1259.00,49.148
1260.00,49.156
1261.00,49.150
1262.00,49.150
1263.00,49.148
1264.00,49.154
1265.00,49.164
1266.00,49.154
1267.00,49.173
1268.00,49.175
1269.00,49.172
1270.00,49.188
1271.00,49.184
1272.00,49.192
1273.00,49.207
1274.00,49.208
1275.00,49.210
1276.00,49.201
1277.00,49.198
1278.00,49.218
1279.00,49.222
1280.00,49.229
1281.00,49.247
1282.00,49.252
1283.00,49.225
1284.00,49.242
1285.00,49.217
1286.00,49.240
1287.00,49.223
1288.00,49.248
1289.00,49.247
1290.00,49.255
1291.00,49.258
1292.00,49.260
1293.00,49.260
1294.00,49.277
1295.00,49.282
1296.00,49.286
1297.00,49.291
1298.00,49.309
1299.00,49.290
1300.00,49.295
1301.00,49.294
1302.00,49.303
1303.00,49.322
1304.00,49.303
1305.00,49.332
1306.00,49.340
1307.00,49.342
1308.00,49.345
1309.00,49.344
1310.00,49.335
1311.00,49.343
1312.00,49.346
1313.00,49.335
1314.00,49.367
1315.00,49.369
1316.00,49.372
1317.00,49.389
1318.00,49.377
1319.00,49.403
1320.00,49.407
1321.00,49.568
1322.00,49.587
1323.00,49.563
1324.00,49.565
1325.00,49.545
1326.00,49.582
1327.00,49.559
1328.00,49.562
1329.00,49.568
1330.00,49.569
1331.00,49.577
1332.00,49.597
1333.00,49.528
1334.00,49.605
1335.00,49.609
1336.00,49.649
1337.00,49.673
1338.00,49.742
1339.00,49.766
1340.00,49.836
1341.00,49.894
1342.00,49.966
1343.00,50.018
1344.00,50.051
1345.00,50.117
1346.00,50.143
1347.00,50.154
1348.00,50.194
1349.00,50.220
1350.00,50.238
1351.00,50.247
1352.00,50.263
1353.00,50.289
1354.00,50.273
1355.00,50.213
1356.00,50.283
1357.00,50.282
1358.00,50.266
1359.00,50.305
1360.00,50.350
1361.00,50.332
1362.00,50.306
1363.00,50.534
1364.00,50.404
1365.00,50.301
1366.00,50.400
1367.00,50.319
1368.00,50.246
1369.00,50.316
1370.00,50.265
1371.00,50.358
1372.00,50.337
1373.00,50.268
1374.00,50.306
1375.00,50.263
1376.00,50.293
1377.00,50.276
1378.00,50.332
1379.00,50.263
1380.00,50.281
1381.00,50.244
1382.00,50.181
1383.00,50.268
1384.00,50.211
1385.00,50.236
1386.00,50.282
1387.00,50.236
1388.00,50.214
1389.00,50.267
1390.00,50.299
1391.00,50.266
1392.00,50.294
1393.00,50.365
1394.00,50.396
1395.00,50.227
1396.00,50.204
1397.00,50.234
1398.00,50.301
1399.00,50.237
1400.00,50.223
1401.00,50.248
1402.00,50.283
1403.00,50.263
1404.00,50.274
1405.00,50.306
1406.00,50.319
1407.00,50.339
1408.00,50.324
1409.00,50.401
1410.00,50.351
1411.00,50.346
1412.00,50.397
1413.00,50.347
1414.00,50.369
1415.00,50.388
1416.00,50.395
1417.00,50.409
1418.00,50.389
1419.00,50.386
1420.00,50.437
1421.00,50.457
1422.00,50.453
1423.00,50.470
1424.00,50.503
1425.00,50.499
1426.00,50.499
1427.00,50.524
1428.00,50.534
1429.00,50.560
1430.00,50.557
1431.00,50.576
1432.00,50.592
1433.00,50.608
1434.00,50.593
1435.00,50.655
1436.00,50.650
1437.00,50.641
1438.00,50.651
1439.00,50.708
1440.00,50.714
1441.00,50.710
1442.00,50.742
1443.00,50.764
1444.00,50.795
1445.00,50.776
1446.00,50.788
1447.00,50.810
1448.00,50.831
1449.00,50.855
1450.00,50.826
1451.00,50.851
1452.00,50.879
1453.00,50.903
1454.00,50.916
1455.00,50.954
1456.00,50.959
1457.00,50.931
1458.00,50.958
1459.00,51.000
1460.00,50.996
1461.00,51.004
1462.00,51.034
1463.00,51.053
1464.00,51.056
1465.00,51.066
1466.00,51.065
1467.00,51.104
1468.00,51.133
1469.00,51.138
1470.00,51.151
1471.00,51.154
1472.00,51.166
1473.00,51.175
1474.00,51.213
1475.00,51.214
1476.00,51.233
1477.00,51.223
1478.00,51.231
1479.00,51.241
1480.00,51.250
1481.00,51.269
1482.00,51.287
1483.00,51.287
1484.00,51.314
1485.00,51.327
1486.00,51.338
1487.00,51.361
1488.00,51.376
1489.00,51.367
1490.00,51.383
1491.00,51.391
1492.00,51.409
1493.00,51.406
1494.00,51.436
1495.00,51.451
1496.00,51.455
1497.00,51.460
1498.00,51.470
1499.00,51.487
1500.00,51.502
1501.00, 
1502.00, 
1503.00, 
1504.00, 
1505.00, 
1506.00, 
1507.00, 
1508.00, 
1509.00, 
1510.00, 
1511.00, 
1512.00, 
1513.00, 
1514.00, 
1515.00, 
1516.00, 
1517.00, 
1518.00, 
1519.00, 
1520.00, 
1521.00, 
1522.00, 
1523.00, 
1524.00, 
1525.00, 
1526.00, 
1527.00, 
1528.00, 
1529.00, 
1530.00, 
1531.00, 
1532.00, 
1533.00, 
1534.00, 
1535.00, 
1536.00, 
1537.00, 
1538.00, 
1539.00, 
1540.00, 
1541.00, 
1542.00, 
1543.00, 
1544.00, 
1545.00, 
1546.00, 
1547.00, 
1548.00, 
1549.00, 
1550.00, 
1551.00, 
1552.00, 
1553.00, 
1554.00, 
1555.00, 
1556.00, 
1557.00, 
1558.00, 
1559.00, 
1560.00, 
1561.00, 
1562.00, 
1563.00, 
1564.00, 
1565.00, 
1566.00, 
1567.00, 
1568.00, 
1569.00, 
1570.00, 
1571.00, 
1572.00, 
1573.00, 
1574.00, 
1575.00, 
1576.00, 
1577.00, 
1578.00, 
1579.00, 
1580.00, 
1581.00, 
1582.00, 
1583.00, 
1584.00, 
1585.00, 
1586.00, 
1587.00, 
1588.00, 
1589.00, 
1590.00, 
1591.00, 
1592.00, 
1593.00, 
1594.00, 
1595.00, 
1596.00, 
1597.00, 
1598.00, 
1599.00, 
1600.00, 
1601.00, 
1602.00, 
1603.00, 
1604.00, 
1605.00, 
1606.00, 
1607.00, 
1608.00, 
1609.00, 
1610.00, 
1611.00, 
1612.00, 
1613.00, 
1614.00, 
1615.00, 
1616.00, 
1617.00, 
1618.00, 
1619.00, 
1620.00, 
1621.00, 
1622.00, 
1623.00, 
1624.00, 
1625.00, 
1626.00, 
1627.00, 
1628.00, 
1629.00, 
1630.00, 
1631.00, 
1632.00, 
1633.00, 
1634.00, 
1635.00, 
1636.00, 
1637.00, 
1638.00, 
1639.00, 
1640.00, 
1641.00, 
1642.00, 
1643.00, 
1644.00, 
1645.00, 
1646.00, 
1647.00, 
1648.00, 
1649.00, 
1650.00, 
1651.00, 
1652.00, 
1653.00, 
1654.00, 
1655.00, 
1656.00, 
1657.00, 
1658.00, 
1659.00, 
1660.00, 
1661.00, 
1662.00, 
1663.00, 
1664.00, 
1665.00, 
1666.00, 
1667.00, 
1668.00, 
1669.00, 
1670.00, 
1671.00, 
1672.00, 
1673.00, 
1674.00, 
1675.00, 
1676.00, 
1677.00, 
1678.00, 
1679.00, 
1680.00, 
1681.00, 
1682.00, 
1683.00, 
1684.00, 
1685.00, 
1686.00, 
1687.00, 
1688.00, 
1689.00, 
1690.00, 
1691.00, 
1692.00, 
1693.00, 
1694.00, 
1695.00, 
1696.00, 
1697.00, 
1698.00, 
1699.00, 
1700.00, 
1701.00, 
1702.00, 
1703.00, 
1704.00, 
1705.00, 
1706.00, 
1707.00, 
1708.00, 
1709.00, 
1710.00, 
1711.00, 
1712.00, 
1713.00, 
1714.00, 
1715.00, 
1716.00, 
1717.00, 
1718.00, 
1719.00, 
1720.00, 
1721.00, 
1722.00, 
1723.00, 
1724.00, 
1725.00, 
1726.00, 
1727.00, 
1728.00, 
1729.00, 
1730.00, 
1731.00, 
1732.00, 
1733.00, 
1734.00, 
1735.00, 
1736.00, 
1737.00, 
1738.00, 
1739.00, 
1740.00, 
1741.00, 
1742.00, 
1743.00, 
1744.00, 
1745.00, 
1746.00, 
1747.00, 
1748.00, 
1749.00, 
1750.00, 
1751.00, 
1752.00, 
1753.00, 
1754.00, 
1755.00, 
1756.00, 
1757.00, 
1758.00, 
1759.00, 
1760.00, 
1761.00, 
1762.00, 
1763.00, 
1764.00, 
1765.00, 
1766.00, 
1767.00, 
1768.00, 
1769.00, 
1770.00, 
1771.00, 
1772.00, 
1773.00, 
1774.00, 
1775.00, 
1776.00, 
1777.00, 
1778.00, 
1779.00, 
1780.00, 
1781.00, 
1782.00, 
1783.00, 
1784.00, 
1785.00, 
1786.00, 
1787.00, 
1788.00, 
1789.00, 
1790.00, 
1791.00, 
1792.00, 
1793.00, 
1794.00, 
1795.00, 
1796.00, 
1797.00, 
1798.00, 
1799.00, 
1800.00, 
1801.00, 
1802.00, 
1803.00, 
1804.00, 
1805.00, 
1806.00, 
1807.00, 
1808.00, 
1809.00, 
1810.00, 
1811.00, 
1812.00, 
1813.00, 
1814.00, 
1815.00, 
1816.00, 
1817.00, 
1818.00, 
1819.00, 
1820.00, 
1821.00, 
1822.00, 
1823.00, 
1824.00, 
1825.00, 
1826.00, 
1827.00, 
1828.00, 
1829.00, 
1830.00, 
1831.00, 
1832.00, 
1833.00, 
1834.00, 
1835.00, 
1836.00, 
1837.00, 
1838.00, 
1839.00, 
1840.00, 
1841.00, 
1842.00, 
1843.00, 
1844.00, 
1845.00, 
1846.00, 
1847.00, 
1848.00, 
1849.00, 
1850.00, 
1851.00, 
1852.00, 
1853.00, 
1854.00, 
1855.00, 
1856.00, 
1857.00, 
1858.00, 
1859.00, 
1860.00, 
1861.00, 
1862.00, 
1863.00, 
1864.00, 
1865.00, 
1866.00, 
1867.00, 
1868.00, 
1869.00, 
1870.00, 
1871.00, 
1872.00, 
1873.00, 
1874.00, 
1875.00, 
1876.00, 
1877.00, 
1878.00, 
1879.00, 
1880.00, 
1881.00, 
1882.00, 
1883.00, 
1884.00, 
1885.00, 
1886.00, 
1887.00, 
1888.00, 
1889.00, 
1890.00, 
1891.00, 
1892.00, 
1893.00, 
1894.00, 
1895.00, 
1896.00, 
1897.00, 
1898.00, 
1899.00, 
1900.00, 
1901.00, 
1902.00, 
1903.00, 
1904.00, 
1905.00, 
1906.00, 
1907.00, 
1908.00, 
1909.00, 
1910.00, 
1911.00, 
1912.00, 
1913.00, 
1914.00, 
1915.00, 
1916.00, 
1917.00, 
1918.00, 
1919.00, 
1920.00, 
1921.00, 
1922.00, 
1923.00, 
1924.00, 
1925.00, 
1926.00, 
1927.00, 
1928.00, 
1929.00, 
1930.00, 
1931.00, 
1932.00, 
1933.00, 
1934.00, 
1935.00, 
1936.00, 
1937.00, 
1938.00, 
1939.00, 
1940.00, 
1941.00, 
1942.00, 
1943.00, 
1944.00, 
1945.00, 
1946.00, 
1947.00, 
1948.00, 
1949.00, 
1950.00, 
1951.00, 
1952.00, 
1953.00, 
1954.00, 
1955.00, 
1956.00, 
1957.00, 
1958.00, 
1959.00, 
1960.00, 
1961.00, 
1962.00, 
1963.00, 
1964.00, 
1965.00, 
1966.00, 
1967.00, 
1968.00, 
1969.00, 
1970.00, 
1971.00, 
1972.00, 
1973.00, 
1974.00, 
1975.00, 
1976.00, 
1977.00, 
1978.00, 
1979.00, 
1980.00, 
1981.00, 
1982.00, 
1983.00, 
1984.00, 
1985.00, 
1986.00, 
1987.00, 
1988.00, 
1989.00, 
1990.00, 
1991.00, 
1992.00, 
1993.00, 
1994.00, 
1995.00, 
1996.00, 
1997.00, 
1998.00, 
1999.00, 
2000.00, 
2001.00, 
2002.00, 
2003.00, 
2004.00, 
2005.00, 
2006.00, 
2007.00, 
2008.00, 
2009.00, 
2010.00, 
2011.00, 
2012.00, 
2013.00, 
2014.00, 
2015.00, 
2016.00, 
2017.00, 
2018.00, 
2019.00, 
2020.00, 
2021.00, 
2022.00, 
2023.00, 
2024.00, 
2025.00, 
2026.00, 
2027.00, 
2028.00, 
2029.00, 
2030.00, 
2031.00, 
2032.00, 
2033.00, 
2034.00, 
2035.00, 
2036.00, 
2037.00, 
2038.00, 
2039.00, 
2040.00, 
2041.00, 
2042.00, 
2043.00, 
2044.00, 
2045.00, 
2046.00, 
2047.00, 
2048.00, 
2049.00, 
2050.00, 
2051.00, 
2052.00, 
2053.00, 
2054.00, 
2055.00, 
2056.00, 
2057.00, 
2058.00, 
2059.00, 
2060.00, 
2061.00, 
2062.00, 
2063.00, 
2064.00, 
2065.00, 
2066.00, 
2067.00, 
2068.00, 
2069.00, 
2070.00, 
2071.00, 
2072.00, 
2073.00, 
2074.00, 
2075.00, 
2076.00, 
2077.00, 
2078.00, 
2079.00, 
2080.00, 
2081.00, 
2082.00, 
2083.00, 
2084.00, 
2085.00, 
2086.00, 
2087.00, 
2088.00, 
2089.00, 
2090.00, 
2091.00, 
2092.00, 
2093.00, 
2094.00, 
2095.00, 
2096.00, 
2097.00, 
2098.00, 
2099.00, 
2100.00, 
2101.00, 
2102.00, 
2103.00, 
2104.00, 
2105.00, 
2106.00, 
2107.00, 
2108.00, 
2109.00, 
2110.00, 
2111.00, 
2112.00, 
2113.00, 
2114.00, 
2115.00, 
2116.00, 
2117.00, 
2118.00, 
2119.00, 
2120.00, 
2121.00, 
2122.00, 
2123.00, 
2124.00, 
2125.00, 
2126.00, 
2127.00, 
2128.00, 
2129.00, 
2130.00, 
2131.00, 
2132.00, 
2133.00, 
2134.00, 
2135.00, 
2136.00, 
2137.00, 
2138.00, 
2139.00, 
2140.00, 
2141.00, 
2142.00, 
2143.00, 
2144.00, 
2145.00, 
2146.00, 
2147.00, 
2148.00, 
2149.00, 
2150.00, 
2151.00, 
2152.00, 
2153.00, 
2154.00, 
2155.00, 
2156.00, 
2157.00, 
2158.00, 
2159.00, 
2160.00, 
2161.00, 
2162.00, 
2163.00, 
2164.00, 
2165.00, 
2166.00, 
2167.00, 
2168.00, 
2169.00, 
2170.00, 
2171.00, 
2172.00, 
2173.00, 
2174.00, 
2175.00, 
2176.00, 
2177.00, 
2178.00, 
2179.00, 
2180.00, 
2181.00, 
2182.00, 
2183.00, 
2184.00, 
2185.00, 
2186.00, 
2187.00, 
2188.00, 
2189.00, 
2190.00, 
2191.00, 
2192.00, 
2193.00, 
2194.00, 
2195.00, 
2196.00, 
2197.00, 
2198.00, 
2199.00, 
2200.00, 
2201.00, 
2202.00, 
2203.00, 
2204.00, 
2205.00, 
2206.00, 
2207.00, 
2208.00, 
2209.00, 
2210.00, 
2211.00, 
2212.00, 
2213.00, 
2214.00, 
2215.00, 
2216.00, 
2217.00, 
2218.00, 
2219.00, 
2220.00, 
2221.00, 
2222.00, 
2223.00, 
2224.00, 
2225.00, 
2226.00, 
2227.00, 
2228.00, 
2229.00, 
2230.00, 
2231.00, 
2232.00, 
2233.00, 
2234.00, 
2235.00, 
2236.00, 
2237.00, 
2238.00, 
2239.00, 
2240.00, 
2241.00, 
2242.00, 
2243.00, 
2244.00, 
2245.00, 
2246.00, 
2247.00, 
2248.00, 
2249.00, 
2250.00, 
2251.00, 
2252.00, 
2253.00, 
2254.00, 
2255.00, 
2256.00, 
2257.00, 
2258.00, 
2259.00, 
2260.00, 
2261.00, 
2262.00, 
2263.00, 
2264.00, 
2265.00, 
2266.00, 
2267.00, 
2268.00, 
2269.00, 
2270.00, 
2271.00, 
2272.00, 
2273.00, 
2274.00, 
2275.00, 
2276.00, 
2277.00, 
2278.00, 
2279.00, 
2280.00, 
2281.00, 
2282.00, 
2283.00, 
2284.00, 
2285.00, 
2286.00, 
2287.00, 
2288.00, 
2289.00, 
2290.00, 
2291.00, 
2292.00, 
2293.00, 
2294.00, 
2295.00, 
2296.00, 
2297.00, 
2298.00, 
2299.00, 
2300.00, 
2301.00, 
2302.00, 
2303.00, 
2304.00, 
2305.00, 
2306.00, 
2307.00, 
2308.00, 
2309.00, 
2310.00, 
2311.00, 
2312.00, 
2313.00, 
2314.00, 
2315.00, 
2316.00, 
2317.00, 
2318.00, 
2319.00, 
2320.00, 
2321.00, 
2322.00, 
2323.00, 
2324.00, 
2325.00, 
2326.00, 
2327.00, 
2328.00, 
2329.00, 
2330.00, 
2331.00, 
2332.00, 
2333.00, 
2334.00, 
2335.00, 
2336.00, 
2337.00, 
2338.00, 
2339.00, 
2340.00, 
2341.00, 
2342.00, 
2343.00, 
2344.00, 
2345.00, 
2346.00, 
2347.00, 
2348.00, 
2349.00, 
2350.00, 
2351.00, 
2352.00, 
2353.00, 
2354.00, 
2355.00, 
2356.00, 
2357.00, 
2358.00, 
2359.00, 
2360.00, 
2361.00, 
2362.00, 
2363.00, 
2364.00, 
2365.00, 
2366.00, 
2367.00, 
2368.00, 
2369.00, 
2370.00, 
2371.00, 
2372.00, 
2373.00, 
2374.00, 
2375.00, 
2376.00, 
2377.00, 
2378.00, 
2379.00, 
2380.00, 
2381.00, 
2382.00, 
2383.00, 
2384.00, 
2385.00, 
2386.00, 
2387.00, 
2388.00, 
2389.00, 
2390.00, 
2391.00, 
2392.00, 
2393.00, 
2394.00, 
2395.00, 
2396.00, 
2397.00, 
2398.00, 
2399.00, 
2400.00, 
2401.00, 
2402.00, 
2403.00, 
2404.00, 
2405.00, 
2406.00, 
2407.00, 
2408.00, 
2409.00, 
2410.00, 
2411.00, 
2412.00, 
2413.00, 
2414.00, 
2415.00, 
2416.00, 
2417.00, 
2418.00, 
2419.00, 
2420.00, 
2421.00, 
2422.00, 
2423.00, 
2424.00, 
2425.00, 
2426.00, 
2427.00, 
2428.00, 
2429.00, 
2430.00, 
2431.00, 
2432.00, 
2433.00, 
2434.00, 
2435.00, 
2436.00, 
2437.00, 
2438.00, 
2439.00, 
2440.00, 
2441.00, 
2442.00, 
2443.00, 
2444.00, 
2445.00, 
2446.00, 
2447.00, 
2448.00, 
2449.00, 
2450.00, 
2451.00, 
2452.00, 
2453.00, 
2454.00, 
2455.00, 
2456.00, 
2457.00, 
2458.00, 
2459.00, 
2460.00, 
2461.00, 
2462.00, 
2463.00, 
2464.00, 
2465.00, 
2466.00, 
2467.00, 
2468.00, 
2469.00, 
2470.00, 
2471.00, 
2472.00, 
2473.00, 
2474.00, 
2475.00, 
2476.00, 
2477.00, 
2478.00, 
2479.00, 
2480.00, 
2481.00, 
2482.00, 
2483.00, 
2484.00, 
2485.00, 
2486.00, 
2487.00, 
2488.00, 
2489.00, 
2490.00, 
2491.00, 
2492.00, 
2493.00, 
2494.00, 
2495.00, 
2496.00, 
2497.00, 
2498.00, 
2499.00, 
2500.00, 
2501.00, 
2502.00, 
2503.00, 
2504.00, 
2505.00, 
2506.00, 
2507.00, 
2508.00, 
2509.00, 
2510.00, 
2511.00, 
2512.00, 
2513.00, 
2514.00, 
2515.00, 
2516.00, 
2517.00, 
2518.00, 
2519.00, 
2520.00, 
2521.00, 
2522.00, 
2523.00, 
2524.00, 
2525.00, 
2526.00, 
2527.00, 
2528.00, 
2529.00, 
2530.00, 
2531.00, 
2532.00, 
2533.00, 
2534.00, 
2535.00, 
2536.00, 
2537.00, 
2538.00, 
2539.00, 
2540.00, 
2541.00, 
2542.00, 
2543.00, 
2544.00, 
2545.00, 
2546.00, 
2547.00, 
2548.00, 
2549.00, 
2550.00, 
2551.00, 
2552.00, 
2553.00, 
2554.00, 
2555.00, 
2556.00, 
2557.00, 
2558.00, 
2559.00, 
2560.00, 
2561.00, 
2562.00, 
2563.00, 
2564.00, 
2565.00, 
2566.00, 
2567.00, 
2568.00, 
2569.00, 
2570.00, 
2571.00, 
2572.00, 
2573.00, 
2574.00, 
2575.00, 
2576.00, 
2577.00, 
2578.00, 
2579.00, 
2580.00, 
2581.00, 
2582.00, 
2583.00, 
2584.00, 
2585.00, 
2586.00, 
2587.00, 
2588.00, 
2589.00, 
2590.00, 
2591.00, 
2592.00, 
2593.00, 
2594.00, 
2595.00, 
2596.00, 
2597.00, 
2598.00, 
2599.00, 
2600.00, 
