"2cP4 - RawData"
"Wavelength nm.","T%"
200.00,0.001
201.00,0.002
202.00,-0.000
203.00,0.001
204.00,0.002
205.00,0.000
206.00,0.001
207.00,0.001
208.00,-0.003
209.00,0.005
210.00,0.001
211.00,0.003
212.00,0.003
213.00,-0.000
214.00,-0.001
215.00,0.001
216.00,0.003
217.00,0.001
218.00,0.002
219.00,0.001
220.00,-0.001
221.00,-0.002
222.00,-0.000
223.00,0.001
224.00,-0.002
225.00,0.001
226.00,-0.001
227.00,0.004
228.00,0.001
229.00,0.002
230.00,0.001
231.00,0.002
232.00,0.001
233.00,0.000
234.00,-0.001
235.00,0.000
236.00,0.000
237.00,-0.000
238.00,0.000
239.00,0.001
240.00,-0.000
241.00,0.002
242.00,0.000
243.00,0.000
244.00,0.002
245.00,-0.001
246.00,-0.001
247.00,-0.000
248.00,0.001
249.00,0.001
250.00,0.003
251.00,0.000
252.00,-0.000
253.00,-0.000
254.00,-0.000
255.00,0.000
256.00,0.002
257.00,-0.000
258.00,-0.001
259.00,0.000
260.00,0.001
261.00,-0.000
262.00,-0.001
263.00,0.001
264.00,-0.001
265.00,-0.001
266.00,-0.000
267.00,-0.000
268.00,0.001
269.00,-0.000
270.00,-0.001
271.00,0.001
272.00,0.000
273.00,0.000
274.00,-0.001
275.00,0.001
276.00,-0.000
277.00,0.001
278.00,0.000
279.00,0.001
280.00,-0.000
281.00,0.000
282.00,0.001
283.00,0.002
284.00,0.002
285.00,0.001
286.00,0.001
287.00,-0.003
288.00,0.000
289.00,-0.001
290.00,0.001
291.00,-0.001
292.00,-0.002
293.00,0.000
294.00,-0.000
295.00,-0.000
296.00,-0.000
297.00,-0.001
298.00,0.001
299.00,0.001
300.00,0.001
301.00,0.002
302.00,0.001
303.00,0.005
304.00,0.007
305.00,0.008
306.00,0.015
307.00,0.020
308.00,0.033
309.00,0.050
310.00,0.069
311.00,0.092
312.00,0.127
313.00,0.169
314.00,0.219
315.00,0.288
316.00,0.368
317.00,0.465
318.00,0.567
319.00,0.698
320.00,0.841
321.00,1.007
322.00,1.181
323.00,1.399
324.00,1.612
325.00,1.832
326.00,2.069
327.00,2.320
328.00,2.602
329.00,2.858
330.00,3.145
331.00,3.426
332.00,3.709
333.00,4.009
334.00,4.297
335.00,4.587
336.00,4.893
337.00,5.183
338.00,5.471
339.00,5.726
340.00,5.985
341.00,6.249
342.00,6.485
343.00,6.737
344.00,6.948
345.00,7.132
346.00,7.345
347.00,7.528
348.00,7.675
349.00,7.844
350.00,7.984
351.00,8.121
352.00,8.244
353.00,8.368
354.00,8.473
355.00,8.569
356.00,8.650
357.00,8.756
358.00,8.797
359.00,8.869
360.00,8.944
361.00,8.950
362.00,9.020
363.00,9.035
364.00,9.080
365.00,9.087
366.00,9.091
367.00,9.099
368.00,9.095
369.00,9.100
370.00,9.097
371.00,9.097
372.00,9.050
373.00,9.020
374.00,8.994
375.00,8.965
376.00,8.917
377.00,8.871
378.00,8.809
379.00,8.773
380.00,8.739
381.00,8.710
382.00,8.682
383.00,8.666
384.00,8.646
385.00,8.635
386.00,8.607
387.00,8.588
388.00,8.575
389.00,8.571
390.00,8.561
391.00,8.540
392.00,8.527
393.00,8.498
394.00,8.474
395.00,8.461
396.00,8.462
397.00,8.443
398.00,8.435
399.00,8.431
400.00,8.410
401.00,8.399
402.00,8.395
403.00,8.383
404.00,8.352
405.00,8.344
406.00,8.322
407.00,8.308
408.00,8.303
409.00,8.268
410.00,8.259
411.00,8.249
412.00,8.239
413.00,8.242
414.00,8.244
415.00,8.239
416.00,8.267
417.00,8.252
418.00,8.270
419.00,8.293
420.00,8.308
421.00,8.295
422.00,8.316
423.00,8.327
424.00,8.347
425.00,8.368
426.00,8.393
427.00,8.423
428.00,8.460
429.00,8.481
430.00,8.510
431.00,8.548
432.00,8.583
433.00,8.626
434.00,8.666
435.00,8.706
436.00,8.744
437.00,8.794
438.00,8.856
439.00,8.899
440.00,8.956
441.00,9.039
442.00,9.092
443.00,9.145
444.00,9.197
445.00,9.258
446.00,9.321
447.00,9.402
448.00,9.474
449.00,9.551
450.00,9.643
451.00,9.718
452.00,9.817
453.00,9.874
454.00,9.955
455.00,10.065
456.00,10.157
457.00,10.244
458.00,10.332
459.00,10.434
460.00,10.538
461.00,10.637
462.00,10.747
463.00,10.849
464.00,10.955
465.00,11.077
466.00,11.130
467.00,11.299
468.00,11.383
469.00,11.497
470.00,11.602
471.00,11.702
472.00,11.838
473.00,11.921
474.00,12.030
475.00,12.155
476.00,12.271
477.00,12.392
478.00,12.507
479.00,12.650
480.00,12.764
481.00,12.897
482.00,13.018
483.00,13.157
484.00,13.292
485.00,13.446
486.00,13.571
487.00,13.715
488.00,13.855
489.00,13.997
490.00,14.141
491.00,14.285
492.00,14.445
493.00,14.610
494.00,14.730
495.00,14.800
496.00,14.932
497.00,15.052
498.00,15.190
499.00,15.348
500.00,15.474
501.00,15.588
502.00,15.749
503.00,15.899
504.00,16.022
505.00,16.155
506.00,16.282
507.00,16.394
508.00,16.537
509.00,16.685
510.00,16.805
511.00,16.914
512.00,17.093
513.00,17.224
514.00,17.342
515.00,17.483
516.00,17.595
517.00,17.721
518.00,17.863
519.00,17.958
520.00,18.092
521.00,18.185
522.00,18.304
523.00,18.392
524.00,18.503
525.00,18.631
526.00,18.745
527.00,18.850
528.00,18.966
529.00,19.081
530.00,19.202
531.00,19.324
532.00,19.433
533.00,19.523
534.00,19.639
535.00,19.730
536.00,19.791
537.00,19.907
538.00,20.029
539.00,20.112
540.00,20.194
541.00,20.285
542.00,20.346
543.00,20.448
544.00,20.530
545.00,20.595
546.00,20.691
547.00,20.810
548.00,20.858
549.00,20.968
550.00,21.062
551.00,21.104
552.00,21.227
553.00,21.327
554.00,21.409
555.00,21.484
556.00,21.548
557.00,21.610
558.00,21.687
559.00,21.749
560.00,21.843
561.00,21.922
562.00,21.981
563.00,22.025
564.00,22.096
565.00,22.166
566.00,22.192
567.00,22.273
568.00,22.303
569.00,22.376
570.00,22.423
571.00,22.480
572.00,22.566
573.00,22.595
574.00,22.662
575.00,22.691
576.00,22.710
577.00,22.792
578.00,22.859
579.00,22.922
580.00,23.013
581.00,23.087
582.00,23.163
583.00,23.247
584.00,23.337
585.00,23.394
586.00,23.408
587.00,23.504
588.00,23.543
589.00,23.581
590.00,23.684
591.00,23.710
592.00,23.752
593.00,23.805
594.00,23.867
595.00,23.893
596.00,23.998
597.00,23.967
598.00,24.181
599.00,24.245
600.00,24.282
601.00,24.355
602.00,24.379
603.00,24.462
604.00,24.540
605.00,24.583
606.00,24.715
607.00,24.759
608.00,24.860
609.00,24.900
610.00,24.943
611.00,25.052
612.00,25.027
613.00,25.096
614.00,25.147
615.00,25.265
616.00,25.328
617.00,25.406
618.00,25.503
619.00,25.594
620.00,25.619
621.00,25.665
622.00,25.802
623.00,25.883
624.00,25.955
625.00,26.059
626.00,26.133
627.00,26.255
628.00,26.338
629.00,26.433
630.00,26.522
631.00,26.614
632.00,26.734
633.00,26.814
634.00,26.906
635.00,27.016
636.00,27.142
637.00,27.272
638.00,27.366
639.00,27.492
640.00,27.541
641.00,27.676
642.00,27.781
643.00,27.890
644.00,28.049
645.00,28.116
646.00,28.294
647.00,28.416
648.00,28.511
649.00,28.707
650.00,28.794
651.00,28.948
652.00,29.073
653.00,29.209
654.00,29.334
655.00,29.511
656.00,29.638
657.00,29.762
658.00,29.863
659.00,29.921
660.00,30.165
661.00,30.316
662.00,30.512
663.00,30.638
664.00,30.815
665.00,30.920
666.00,31.082
667.00,31.327
668.00,31.411
669.00,31.576
670.00,31.741
671.00,31.916
672.00,32.019
673.00,32.206
674.00,32.428
675.00,32.515
676.00,32.776
677.00,32.855
678.00,32.936
679.00,33.191
680.00,33.292
681.00,33.459
682.00,33.607
683.00,33.770
684.00,33.993
685.00,34.196
686.00,34.426
687.00,34.577
688.00,34.712
689.00,34.840
690.00,34.893
691.00,35.221
692.00,35.206
693.00,35.261
694.00,35.554
695.00,35.905
696.00,35.991
697.00,36.122
698.00,36.342
699.00,36.563
700.00,36.846
701.00,36.887
702.00,37.106
703.00,37.342
704.00,37.430
705.00,37.548
706.00,37.728
707.00,38.016
708.00,38.022
709.00,38.316
710.00,38.532
711.00,38.576
712.00,38.642
713.00,38.750
714.00,38.965
715.00,39.142
716.00,39.297
717.00,39.335
718.00,39.512
719.00,39.693
720.00,39.768
721.00,43.811
722.00,43.981
723.00,44.060
724.00,44.202
725.00,44.267
726.00,44.399
727.00,44.462
728.00,44.684
729.00,44.742
730.00,44.903
731.00,45.027
732.00,45.116
733.00,45.244
734.00,45.404
735.00,45.451
736.00,45.571
737.00,45.730
738.00,45.832
739.00,45.978
740.00,46.067
741.00,46.237
742.00,46.298
743.00,46.359
744.00,46.465
745.00,46.576
746.00,46.586
747.00,46.746
748.00,46.762
749.00,46.850
750.00,46.987
751.00,47.020
752.00,47.110
753.00,47.161
754.00,47.241
755.00,47.386
756.00,47.458
757.00,47.526
758.00,47.547
759.00,47.691
760.00,47.715
761.00,47.837
762.00,47.866
763.00,48.029
764.00,48.048
765.00,48.139
766.00,48.163
767.00,48.190
768.00,48.362
769.00,48.362
770.00,48.463
771.00,48.546
772.00,48.629
773.00,48.733
774.00,48.710
775.00,48.801
776.00,48.848
777.00,48.907
778.00,48.993
779.00,48.969
780.00,49.052
781.00,49.088
782.00,49.161
783.00,49.183
784.00,49.209
785.00,49.268
786.00,49.335
787.00,49.357
788.00,49.326
789.00,49.496
790.00,49.458
791.00,49.571
792.00,49.496
793.00,49.505
794.00,49.635
795.00,49.635
796.00,49.686
797.00,49.564
798.00,49.694
799.00,49.680
800.00,49.698
801.00,49.780
802.00,49.728
803.00,49.799
804.00,49.829
805.00,49.831
806.00,49.891
807.00,49.913
808.00,49.890
809.00,49.915
810.00,49.920
811.00,49.886
812.00,49.941
813.00,49.932
814.00,50.065
815.00,50.015
816.00,50.014
817.00,50.143
818.00,50.059
819.00,50.071
820.00,50.058
821.00,50.034
822.00,50.031
823.00,50.033
824.00,50.109
825.00,50.050
826.00,50.056
827.00,50.149
828.00,50.186
829.00,50.162
830.00,50.214
831.00,52.297
832.00,52.299
833.00,52.267
834.00,52.305
835.00,52.326
836.00,52.337
837.00,52.334
838.00,52.316
839.00,52.279
840.00,52.290
841.00,52.338
842.00,52.284
843.00,52.329
844.00,52.350
845.00,52.263
846.00,52.357
847.00,52.325
848.00,52.329
849.00,52.255
850.00,52.262
851.00,52.227
852.00,52.268
853.00,52.196
854.00,52.214
855.00,52.157
856.00,52.200
857.00,52.200
858.00,52.184
859.00,52.159
860.00,52.187
861.00,52.192
862.00,52.152
863.00,52.182
864.00,52.164
865.00,52.139
866.00,52.159
867.00,52.155
868.00,52.147
869.00,52.122
870.00,52.188
871.00,52.176
872.00,52.192
873.00,52.136
874.00,52.196
875.00,52.152
876.00,52.192
877.00,52.143
878.00,52.199
879.00,52.143
880.00,52.175
881.00,52.123
882.00,52.181
883.00,52.122
884.00,52.089
885.00,52.093
886.00,52.103
887.00,52.086
888.00,52.064
889.00,52.056
890.00,52.040
891.00,52.037
892.00,52.025
893.00,51.993
894.00,52.017
895.00,51.986
896.00,51.958
897.00,51.949
898.00,51.949
899.00,51.945
900.00,51.929
901.00,51.921
902.00,51.961
903.00,51.930
904.00,51.914
905.00,51.911
906.00,51.893
907.00,51.907
908.00,51.858
909.00,51.856
910.00,51.808
911.00,51.852
912.00,51.832
913.00,51.788
914.00,51.767
915.00,51.770
916.00,51.751
917.00,51.739
918.00,51.713
919.00,51.705
920.00,51.688
921.00,51.662
922.00,51.670
923.00,51.651
924.00,51.632
925.00,51.648
926.00,51.615
927.00,51.590
928.00,51.572
929.00,51.598
930.00,51.542
931.00,51.535
932.00,51.487
933.00,51.519
934.00,51.503
935.00,51.455
936.00,51.448
937.00,51.473
938.00,51.438
939.00,51.407
940.00,51.462
941.00,51.389
942.00,51.385
943.00,51.364
944.00,51.328
945.00,51.331
946.00,51.352
947.00,51.300
948.00,51.297
949.00,51.279
950.00,51.262
951.00,51.242
952.00,51.217
953.00,51.199
954.00,51.161
955.00,51.162
956.00,51.136
957.00,51.079
958.00,51.119
959.00,51.067
960.00,51.052
961.00,51.048
962.00,51.045
963.00,50.997
964.00,50.994
965.00,50.997
966.00,50.979
967.00,50.989
968.00,50.955
969.00,51.037
970.00,51.020
971.00,50.980
972.00,50.953
973.00,50.992
974.00,51.001
975.00,50.962
976.00,51.008
977.00,50.969
978.00,51.035
979.00,50.981
980.00,50.997
981.00,51.001
982.00,50.973
983.00,50.999
984.00,50.971
985.00,50.985
986.00,51.011
987.00,50.982
988.00,50.964
989.00,50.945
990.00,50.951
991.00,50.932
992.00,50.950
993.00,50.908
994.00,50.900
995.00,50.903
996.00,50.864
997.00,50.872
998.00,50.849
999.00,50.854
1000.00,50.804
1001.00,50.792
1002.00,50.825
1003.00,50.801
1004.00,50.793
1005.00,50.769
1006.00,50.806
1007.00,50.758
1008.00,50.751
1009.00,50.741
1010.00,50.722
1011.00,50.720
1012.00,50.681
1013.00,50.689
1014.00,50.661
1015.00,50.656
1016.00,50.643
1017.00,50.626
1018.00,50.615
1019.00,50.585
1020.00,50.585
1021.00,50.564
1022.00,50.577
1023.00,50.516
1024.00,50.528
1025.00,50.516
1026.00,50.492
1027.00,50.484
1028.00,50.468
1029.00,50.462
1030.00,50.429
1031.00,50.439
1032.00,50.390
1033.00,50.409
1034.00,50.357
1035.00,50.336
1036.00,50.328
1037.00,50.298
1038.00,50.290
1039.00,50.257
1040.00,50.262
1041.00,50.227
1042.00,50.223
1043.00,50.202
1044.00,50.234
1045.00,50.202
1046.00,50.204
1047.00,50.218
1048.00,50.209
1049.00,50.237
1050.00,50.229
1051.00,50.263
1052.00,50.277
1053.00,50.270
1054.00,50.260
1055.00,50.298
1056.00,50.298
1057.00,50.295
1058.00,50.279
1059.00,50.272
1060.00,50.284
1061.00,50.266
1062.00,50.248
1063.00,50.271
1064.00,50.254
1065.00,50.218
1066.00,50.248
1067.00,50.214
1068.00,50.238
1069.00,50.205
1070.00,50.188
1071.00,50.182
1072.00,50.200
1073.00,50.164
1074.00,50.167
1075.00,50.151
1076.00,50.148
1077.00,50.143
1078.00,50.105
1079.00,50.116
1080.00,50.119
1081.00,50.093
1082.00,50.103
1083.00,50.093
1084.00,50.079
1085.00,50.092
1086.00,50.086
1087.00,50.073
1088.00,50.054
1089.00,50.047
1090.00,50.042
1091.00,50.041
1092.00,50.007
1093.00,49.991
1094.00,49.975
1095.00,49.971
1096.00,49.974
1097.00,49.960
1098.00,49.952
1099.00,49.945
1100.00,49.922
1101.00,49.929
1102.00,49.921
1103.00,49.916
1104.00,49.911
1105.00,49.889
1106.00,49.873
1107.00,49.888
1108.00,49.880
1109.00,49.855
1110.00,49.862
1111.00,49.844
1112.00,49.826
1113.00,49.825
1114.00,49.817
1115.00,49.829
1116.00,49.815
1117.00,49.785
1118.00,49.789
1119.00,49.788
1120.00,49.777
1121.00,49.778
1122.00,49.745
1123.00,49.753
1124.00,49.751
1125.00,49.729
1126.00,49.722
1127.00,49.738
1128.00,49.713
1129.00,49.713
1130.00,49.703
1131.00,49.705
1132.00,49.695
1133.00,49.682
1134.00,49.681
1135.00,49.677
1136.00,49.650
1137.00,49.651
1138.00,49.665
1139.00,49.668
1140.00,49.644
1141.00,49.644
1142.00,49.632
1143.00,49.666
1144.00,49.621
1145.00,49.621
1146.00,49.616
1147.00,49.587
1148.00,49.597
1149.00,49.617
1150.00,49.593
1151.00,49.604
1152.00,49.586
1153.00,49.588
1154.00,49.570
1155.00,49.572
1156.00,49.556
1157.00,49.575
1158.00,49.556
1159.00,49.563
1160.00,49.548
1161.00,49.552
1162.00,49.564
1163.00,49.540
1164.00,49.536
1165.00,49.536
1166.00,49.534
1167.00,49.532
1168.00,49.562
1169.00,49.538
1170.00,49.529
1171.00,49.511
1172.00,49.511
1173.00,49.515
1174.00,49.509
1175.00,49.503
1176.00,49.518
1177.00,49.507
1178.00,49.506
1179.00,49.524
1180.00,49.491
1181.00,49.514
1182.00,49.497
1183.00,49.498
1184.00,49.493
1185.00,49.503
1186.00,49.486
1187.00,49.493
1188.00,49.476
1189.00,49.468
1190.00,49.484
1191.00,49.469
1192.00,49.504
1193.00,49.481
1194.00,49.481
1195.00,49.470
1196.00,49.488
1197.00,49.486
1198.00,49.474
1199.00,49.472
1200.00,49.481
1201.00,49.494
1202.00,49.457
1203.00,49.473
1204.00,49.448
1205.00,49.458
1206.00,49.454
1207.00,49.447
1208.00,49.436
1209.00,49.441
1210.00,49.444
1211.00,49.435
1212.00,49.461
1213.00,49.402
1214.00,49.449
1215.00,49.436
1216.00,49.426
1217.00,49.443
1218.00,49.425
1219.00,49.445
1220.00,49.427
1221.00,49.439
1222.00,49.430
1223.00,49.454
1224.00,49.442
1225.00,49.442
1226.00,49.445
1227.00,49.431
1228.00,49.464
1229.00,49.435
1230.00,49.468
1231.00,49.461
1232.00,49.475
1233.00,49.479
1234.00,49.479
1235.00,49.474
1236.00,49.476
1237.00,49.476
1238.00,49.470
1239.00,49.497
1240.00,49.482
1241.00,49.498
1242.00,49.513
1243.00,49.502
1244.00,49.486
1245.00,49.520
1246.00,49.507
1247.00,49.510
1248.00,49.503
1249.00,49.506
1250.00,49.518
1251.00,49.490
1252.00,49.508
1253.00,49.513
1254.00,49.539
1255.00,49.524
1256.00,49.510
1257.00,49.485
1258.00,49.543
1259.00,49.521
1260.00,49.530
1261.00,49.539
1262.00,49.529
1263.00,49.529
1264.00,49.545
1265.00,49.539
1266.00,49.544
1267.00,49.564
1268.00,49.549
1269.00,49.553
1270.00,49.566
1271.00,49.560
1272.00,49.576
1273.00,49.580
1274.00,49.567
1275.00,49.598
1276.00,49.571
1277.00,49.578
1278.00,49.595
1279.00,49.589
1280.00,49.602
1281.00,49.611
1282.00,49.611
1283.00,49.604
1284.00,49.603
1285.00,49.593
1286.00,49.615
1287.00,49.592
1288.00,49.602
1289.00,49.608
1290.00,49.616
1291.00,49.624
1292.00,49.623
1293.00,49.624
1294.00,49.647
1295.00,49.639
1296.00,49.644
1297.00,49.647
1298.00,49.662
1299.00,49.649
1300.00,49.668
1301.00,49.656
1302.00,49.681
1303.00,49.683
1304.00,49.667
1305.00,49.715
1306.00,49.701
1307.00,49.711
1308.00,49.730
1309.00,49.719
1310.00,49.732
1311.00,49.721
1312.00,49.705
1313.00,49.721
1314.00,49.728
1315.00,49.726
1316.00,49.730
1317.00,49.746
1318.00,49.750
1319.00,49.780
1320.00,49.771
1321.00,49.919
1322.00,49.938
1323.00,49.907
1324.00,49.912
1325.00,49.896
1326.00,49.913
1327.00,49.914
1328.00,49.910
1329.00,49.913
1330.00,49.941
1331.00,49.909
1332.00,49.914
1333.00,49.925
1334.00,49.952
1335.00,49.955
1336.00,49.989
1337.00,49.997
1338.00,50.069
1339.00,50.095
1340.00,50.148
1341.00,50.222
1342.00,50.291
1343.00,50.344
1344.00,50.403
1345.00,50.461
1346.00,50.505
1347.00,50.525
1348.00,50.538
1349.00,50.560
1350.00,50.572
1351.00,50.583
1352.00,50.606
1353.00,50.599
1354.00,50.589
1355.00,50.556
1356.00,50.597
1357.00,50.615
1358.00,50.633
1359.00,50.633
1360.00,50.730
1361.00,50.691
1362.00,50.637
1363.00,50.836
1364.00,50.713
1365.00,50.741
1366.00,50.721
1367.00,50.646
1368.00,50.573
1369.00,50.644
1370.00,50.565
1371.00,50.653
1372.00,50.658
1373.00,50.602
1374.00,50.637
1375.00,50.589
1376.00,50.604
1377.00,50.571
1378.00,50.675
1379.00,50.612
1380.00,50.628
1381.00,50.621
1382.00,50.547
1383.00,50.597
1384.00,50.553
1385.00,50.551
1386.00,50.593
1387.00,50.566
1388.00,50.477
1389.00,50.543
1390.00,50.626
1391.00,50.544
1392.00,50.567
1393.00,50.604
1394.00,50.557
1395.00,50.589
1396.00,50.522
1397.00,50.550
1398.00,50.536
1399.00,50.541
1400.00,50.547
1401.00,50.574
1402.00,50.595
1403.00,50.558
1404.00,50.595
1405.00,50.616
1406.00,50.609
1407.00,50.627
1408.00,50.593
1409.00,50.601
1410.00,50.629
1411.00,50.597
1412.00,50.706
1413.00,50.644
1414.00,50.624
1415.00,50.680
1416.00,50.693
1417.00,50.715
1418.00,50.701
1419.00,50.679
1420.00,50.720
1421.00,50.773
1422.00,50.749
1423.00,50.768
1424.00,50.773
1425.00,50.779
1426.00,50.799
1427.00,50.807
1428.00,50.814
1429.00,50.842
1430.00,50.840
1431.00,50.859
1432.00,50.880
1433.00,50.901
1434.00,50.885
1435.00,50.954
1436.00,50.943
1437.00,50.942
1438.00,50.944
1439.00,50.982
1440.00,51.016
1441.00,50.987
1442.00,51.002
1443.00,51.057
1444.00,51.081
1445.00,51.051
1446.00,51.057
1447.00,51.088
1448.00,51.118
1449.00,51.117
1450.00,51.104
1451.00,51.136
1452.00,51.141
1453.00,51.169
1454.00,51.185
1455.00,51.202
1456.00,51.232
1457.00,51.222
1458.00,51.248
1459.00,51.276
1460.00,51.273
1461.00,51.272
1462.00,51.315
1463.00,51.310
1464.00,51.326
1465.00,51.352
1466.00,51.337
1467.00,51.374
1468.00,51.411
1469.00,51.395
1470.00,51.405
1471.00,51.404
1472.00,51.418
1473.00,51.460
1474.00,51.474
1475.00,51.491
1476.00,51.505
1477.00,51.485
1478.00,51.513
1479.00,51.531
1480.00,51.527
1481.00,51.554
1482.00,51.576
1483.00,51.565
1484.00,51.590
1485.00,51.592
1486.00,51.610
1487.00,51.645
1488.00,51.647
1489.00,51.656
1490.00,51.669
1491.00,51.678
1492.00,51.693
1493.00,51.676
1494.00,51.707
1495.00,51.714
1496.00,51.717
1497.00,51.718
1498.00,51.734
1499.00,51.741
1500.00,51.764
1501.00, 
1502.00, 
1503.00, 
1504.00, 
1505.00, 
1506.00, 
1507.00, 
1508.00, 
1509.00, 
1510.00, 
1511.00, 
1512.00, 
1513.00, 
1514.00, 
1515.00, 
1516.00, 
1517.00, 
1518.00, 
1519.00, 
1520.00, 
1521.00, 
1522.00, 
1523.00, 
1524.00, 
1525.00, 
1526.00, 
1527.00, 
1528.00, 
1529.00, 
1530.00, 
1531.00, 
1532.00, 
1533.00, 
1534.00, 
1535.00, 
1536.00, 
1537.00, 
1538.00, 
1539.00, 
1540.00, 
1541.00, 
1542.00, 
1543.00, 
1544.00, 
1545.00, 
1546.00, 
1547.00, 
1548.00, 
1549.00, 
1550.00, 
1551.00, 
1552.00, 
1553.00, 
1554.00, 
1555.00, 
1556.00, 
1557.00, 
1558.00, 
1559.00, 
1560.00, 
1561.00, 
1562.00, 
1563.00, 
1564.00, 
1565.00, 
1566.00, 
1567.00, 
1568.00, 
1569.00, 
1570.00, 
1571.00, 
1572.00, 
1573.00, 
1574.00, 
1575.00, 
1576.00, 
1577.00, 
1578.00, 
1579.00, 
1580.00, 
1581.00, 
1582.00, 
1583.00, 
1584.00, 
1585.00, 
1586.00, 
1587.00, 
1588.00, 
1589.00, 
1590.00, 
1591.00, 
1592.00, 
1593.00, 
1594.00, 
1595.00, 
1596.00, 
1597.00, 
1598.00, 
1599.00, 
1600.00, 
1601.00, 
1602.00, 
1603.00, 
1604.00, 
1605.00, 
1606.00, 
1607.00, 
1608.00, 
1609.00, 
1610.00, 
1611.00, 
1612.00, 
1613.00, 
1614.00, 
1615.00, 
1616.00, 
1617.00, 
1618.00, 
1619.00, 
1620.00, 
1621.00, 
1622.00, 
1623.00, 
1624.00, 
1625.00, 
1626.00, 
1627.00, 
1628.00, 
1629.00, 
1630.00, 
1631.00, 
1632.00, 
1633.00, 
1634.00, 
1635.00, 
1636.00, 
1637.00, 
1638.00, 
1639.00, 
1640.00, 
1641.00, 
1642.00, 
1643.00, 
1644.00, 
1645.00, 
1646.00, 
1647.00, 
1648.00, 
1649.00, 
1650.00, 
1651.00, 
1652.00, 
1653.00, 
1654.00, 
1655.00, 
1656.00, 
1657.00, 
1658.00, 
1659.00, 
1660.00, 
1661.00, 
1662.00, 
1663.00, 
1664.00, 
1665.00, 
1666.00, 
1667.00, 
1668.00, 
1669.00, 
1670.00, 
1671.00, 
1672.00, 
1673.00, 
1674.00, 
1675.00, 
1676.00, 
1677.00, 
1678.00, 
1679.00, 
1680.00, 
1681.00, 
1682.00, 
1683.00, 
1684.00, 
1685.00, 
1686.00, 
1687.00, 
1688.00, 
1689.00, 
1690.00, 
1691.00, 
1692.00, 
1693.00, 
1694.00, 
1695.00, 
1696.00, 
1697.00, 
1698.00, 
1699.00, 
1700.00, 
1701.00, 
1702.00, 
1703.00, 
1704.00, 
1705.00, 
1706.00, 
1707.00, 
1708.00, 
1709.00, 
1710.00, 
1711.00, 
1712.00, 
1713.00, 
1714.00, 
1715.00, 
1716.00, 
1717.00, 
1718.00, 
1719.00, 
1720.00, 
1721.00, 
1722.00, 
1723.00, 
1724.00, 
1725.00, 
1726.00, 
1727.00, 
1728.00, 
1729.00, 
1730.00, 
1731.00, 
1732.00, 
1733.00, 
1734.00, 
1735.00, 
1736.00, 
1737.00, 
1738.00, 
1739.00, 
1740.00, 
1741.00, 
1742.00, 
1743.00, 
1744.00, 
1745.00, 
1746.00, 
1747.00, 
1748.00, 
1749.00, 
1750.00, 
1751.00, 
1752.00, 
1753.00, 
1754.00, 
1755.00, 
1756.00, 
1757.00, 
1758.00, 
1759.00, 
1760.00, 
1761.00, 
1762.00, 
1763.00, 
1764.00, 
1765.00, 
1766.00, 
1767.00, 
1768.00, 
1769.00, 
1770.00, 
1771.00, 
1772.00, 
1773.00, 
1774.00, 
1775.00, 
1776.00, 
1777.00, 
1778.00, 
1779.00, 
1780.00, 
1781.00, 
1782.00, 
1783.00, 
1784.00, 
1785.00, 
1786.00, 
1787.00, 
1788.00, 
1789.00, 
1790.00, 
1791.00, 
1792.00, 
1793.00, 
1794.00, 
1795.00, 
1796.00, 
1797.00, 
1798.00, 
1799.00, 
1800.00, 
1801.00, 
1802.00, 
1803.00, 
1804.00, 
1805.00, 
1806.00, 
1807.00, 
1808.00, 
1809.00, 
1810.00, 
1811.00, 
1812.00, 
1813.00, 
1814.00, 
1815.00, 
1816.00, 
1817.00, 
1818.00, 
1819.00, 
1820.00, 
1821.00, 
1822.00, 
1823.00, 
1824.00, 
1825.00, 
1826.00, 
1827.00, 
1828.00, 
1829.00, 
1830.00, 
1831.00, 
1832.00, 
1833.00, 
1834.00, 
1835.00, 
1836.00, 
1837.00, 
1838.00, 
1839.00, 
1840.00, 
1841.00, 
1842.00, 
1843.00, 
1844.00, 
1845.00, 
1846.00, 
1847.00, 
1848.00, 
1849.00, 
1850.00, 
1851.00, 
1852.00, 
1853.00, 
1854.00, 
1855.00, 
1856.00, 
1857.00, 
1858.00, 
1859.00, 
1860.00, 
1861.00, 
1862.00, 
1863.00, 
1864.00, 
1865.00, 
1866.00, 
1867.00, 
1868.00, 
1869.00, 
1870.00, 
1871.00, 
1872.00, 
1873.00, 
1874.00, 
1875.00, 
1876.00, 
1877.00, 
1878.00, 
1879.00, 
1880.00, 
1881.00, 
1882.00, 
1883.00, 
1884.00, 
1885.00, 
1886.00, 
1887.00, 
1888.00, 
1889.00, 
1890.00, 
1891.00, 
1892.00, 
1893.00, 
1894.00, 
1895.00, 
1896.00, 
1897.00, 
1898.00, 
1899.00, 
1900.00, 
1901.00, 
1902.00, 
1903.00, 
1904.00, 
1905.00, 
1906.00, 
1907.00, 
1908.00, 
1909.00, 
1910.00, 
1911.00, 
1912.00, 
1913.00, 
1914.00, 
1915.00, 
1916.00, 
1917.00, 
1918.00, 
1919.00, 
1920.00, 
1921.00, 
1922.00, 
1923.00, 
1924.00, 
1925.00, 
1926.00, 
1927.00, 
1928.00, 
1929.00, 
1930.00, 
1931.00, 
1932.00, 
1933.00, 
1934.00, 
1935.00, 
1936.00, 
1937.00, 
1938.00, 
1939.00, 
1940.00, 
1941.00, 
1942.00, 
1943.00, 
1944.00, 
1945.00, 
1946.00, 
1947.00, 
1948.00, 
1949.00, 
1950.00, 
1951.00, 
1952.00, 
1953.00, 
1954.00, 
1955.00, 
1956.00, 
1957.00, 
1958.00, 
1959.00, 
1960.00, 
1961.00, 
1962.00, 
1963.00, 
1964.00, 
1965.00, 
1966.00, 
1967.00, 
1968.00, 
1969.00, 
1970.00, 
1971.00, 
1972.00, 
1973.00, 
1974.00, 
1975.00, 
1976.00, 
1977.00, 
1978.00, 
1979.00, 
1980.00, 
1981.00, 
1982.00, 
1983.00, 
1984.00, 
1985.00, 
1986.00, 
1987.00, 
1988.00, 
1989.00, 
1990.00, 
1991.00, 
1992.00, 
1993.00, 
1994.00, 
1995.00, 
1996.00, 
1997.00, 
1998.00, 
1999.00, 
2000.00, 
2001.00, 
2002.00, 
2003.00, 
2004.00, 
2005.00, 
2006.00, 
2007.00, 
2008.00, 
2009.00, 
2010.00, 
2011.00, 
2012.00, 
2013.00, 
2014.00, 
2015.00, 
2016.00, 
2017.00, 
2018.00, 
2019.00, 
2020.00, 
2021.00, 
2022.00, 
2023.00, 
2024.00, 
2025.00, 
2026.00, 
2027.00, 
2028.00, 
2029.00, 
2030.00, 
2031.00, 
2032.00, 
2033.00, 
2034.00, 
2035.00, 
2036.00, 
2037.00, 
2038.00, 
2039.00, 
2040.00, 
2041.00, 
2042.00, 
2043.00, 
2044.00, 
2045.00, 
2046.00, 
2047.00, 
2048.00, 
2049.00, 
2050.00, 
2051.00, 
2052.00, 
2053.00, 
2054.00, 
2055.00, 
2056.00, 
2057.00, 
2058.00, 
2059.00, 
2060.00, 
2061.00, 
2062.00, 
2063.00, 
2064.00, 
2065.00, 
2066.00, 
2067.00, 
2068.00, 
2069.00, 
2070.00, 
2071.00, 
2072.00, 
2073.00, 
2074.00, 
2075.00, 
2076.00, 
2077.00, 
2078.00, 
2079.00, 
2080.00, 
2081.00, 
2082.00, 
2083.00, 
2084.00, 
2085.00, 
2086.00, 
2087.00, 
2088.00, 
2089.00, 
2090.00, 
2091.00, 
2092.00, 
2093.00, 
2094.00, 
2095.00, 
2096.00, 
2097.00, 
2098.00, 
2099.00, 
2100.00, 
2101.00, 
2102.00, 
2103.00, 
2104.00, 
2105.00, 
2106.00, 
2107.00, 
2108.00, 
2109.00, 
2110.00, 
2111.00, 
2112.00, 
2113.00, 
2114.00, 
2115.00, 
2116.00, 
2117.00, 
2118.00, 
2119.00, 
2120.00, 
2121.00, 
2122.00, 
2123.00, 
2124.00, 
2125.00, 
2126.00, 
2127.00, 
2128.00, 
2129.00, 
2130.00, 
2131.00, 
2132.00, 
2133.00, 
2134.00, 
2135.00, 
2136.00, 
2137.00, 
2138.00, 
2139.00, 
2140.00, 
2141.00, 
2142.00, 
2143.00, 
2144.00, 
2145.00, 
2146.00, 
2147.00, 
2148.00, 
2149.00, 
2150.00, 
2151.00, 
2152.00, 
2153.00, 
2154.00, 
2155.00, 
2156.00, 
2157.00, 
2158.00, 
2159.00, 
2160.00, 
2161.00, 
2162.00, 
2163.00, 
2164.00, 
2165.00, 
2166.00, 
2167.00, 
2168.00, 
2169.00, 
2170.00, 
2171.00, 
2172.00, 
2173.00, 
2174.00, 
2175.00, 
2176.00, 
2177.00, 
2178.00, 
2179.00, 
2180.00, 
2181.00, 
2182.00, 
2183.00, 
2184.00, 
2185.00, 
2186.00, 
2187.00, 
2188.00, 
2189.00, 
2190.00, 
2191.00, 
2192.00, 
2193.00, 
2194.00, 
2195.00, 
2196.00, 
2197.00, 
2198.00, 
2199.00, 
2200.00, 
2201.00, 
2202.00, 
2203.00, 
2204.00, 
2205.00, 
2206.00, 
2207.00, 
2208.00, 
2209.00, 
2210.00, 
2211.00, 
2212.00, 
2213.00, 
2214.00, 
2215.00, 
2216.00, 
2217.00, 
2218.00, 
2219.00, 
2220.00, 
2221.00, 
2222.00, 
2223.00, 
2224.00, 
2225.00, 
2226.00, 
2227.00, 
2228.00, 
2229.00, 
2230.00, 
2231.00, 
2232.00, 
2233.00, 
2234.00, 
2235.00, 
2236.00, 
2237.00, 
2238.00, 
2239.00, 
2240.00, 
2241.00, 
2242.00, 
2243.00, 
2244.00, 
2245.00, 
2246.00, 
2247.00, 
2248.00, 
2249.00, 
2250.00, 
2251.00, 
2252.00, 
2253.00, 
2254.00, 
2255.00, 
2256.00, 
2257.00, 
2258.00, 
2259.00, 
2260.00, 
2261.00, 
2262.00, 
2263.00, 
2264.00, 
2265.00, 
2266.00, 
2267.00, 
2268.00, 
2269.00, 
2270.00, 
2271.00, 
2272.00, 
2273.00, 
2274.00, 
2275.00, 
2276.00, 
2277.00, 
2278.00, 
2279.00, 
2280.00, 
2281.00, 
2282.00, 
2283.00, 
2284.00, 
2285.00, 
2286.00, 
2287.00, 
2288.00, 
2289.00, 
2290.00, 
2291.00, 
2292.00, 
2293.00, 
2294.00, 
2295.00, 
2296.00, 
2297.00, 
2298.00, 
2299.00, 
2300.00, 
2301.00, 
2302.00, 
2303.00, 
2304.00, 
2305.00, 
2306.00, 
2307.00, 
2308.00, 
2309.00, 
2310.00, 
2311.00, 
2312.00, 
2313.00, 
2314.00, 
2315.00, 
2316.00, 
2317.00, 
2318.00, 
2319.00, 
2320.00, 
2321.00, 
2322.00, 
2323.00, 
2324.00, 
2325.00, 
2326.00, 
2327.00, 
2328.00, 
2329.00, 
2330.00, 
2331.00, 
2332.00, 
2333.00, 
2334.00, 
2335.00, 
2336.00, 
2337.00, 
2338.00, 
2339.00, 
2340.00, 
2341.00, 
2342.00, 
2343.00, 
2344.00, 
2345.00, 
2346.00, 
2347.00, 
2348.00, 
2349.00, 
2350.00, 
2351.00, 
2352.00, 
2353.00, 
2354.00, 
2355.00, 
2356.00, 
2357.00, 
2358.00, 
2359.00, 
2360.00, 
2361.00, 
2362.00, 
2363.00, 
2364.00, 
2365.00, 
2366.00, 
2367.00, 
2368.00, 
2369.00, 
2370.00, 
2371.00, 
2372.00, 
2373.00, 
2374.00, 
2375.00, 
2376.00, 
2377.00, 
2378.00, 
2379.00, 
2380.00, 
2381.00, 
2382.00, 
2383.00, 
2384.00, 
2385.00, 
2386.00, 
2387.00, 
2388.00, 
2389.00, 
2390.00, 
2391.00, 
2392.00, 
2393.00, 
2394.00, 
2395.00, 
2396.00, 
2397.00, 
2398.00, 
2399.00, 
2400.00, 
2401.00, 
2402.00, 
2403.00, 
2404.00, 
2405.00, 
2406.00, 
2407.00, 
2408.00, 
2409.00, 
2410.00, 
2411.00, 
2412.00, 
2413.00, 
2414.00, 
2415.00, 
2416.00, 
2417.00, 
2418.00, 
2419.00, 
2420.00, 
2421.00, 
2422.00, 
2423.00, 
2424.00, 
2425.00, 
2426.00, 
2427.00, 
2428.00, 
2429.00, 
2430.00, 
2431.00, 
2432.00, 
2433.00, 
2434.00, 
2435.00, 
2436.00, 
2437.00, 
2438.00, 
2439.00, 
2440.00, 
2441.00, 
2442.00, 
2443.00, 
2444.00, 
2445.00, 
2446.00, 
2447.00, 
2448.00, 
2449.00, 
2450.00, 
2451.00, 
2452.00, 
2453.00, 
2454.00, 
2455.00, 
2456.00, 
2457.00, 
2458.00, 
2459.00, 
2460.00, 
2461.00, 
2462.00, 
2463.00, 
2464.00, 
2465.00, 
2466.00, 
2467.00, 
2468.00, 
2469.00, 
2470.00, 
2471.00, 
2472.00, 
2473.00, 
2474.00, 
2475.00, 
2476.00, 
2477.00, 
2478.00, 
2479.00, 
2480.00, 
2481.00, 
2482.00, 
2483.00, 
2484.00, 
2485.00, 
2486.00, 
2487.00, 
2488.00, 
2489.00, 
2490.00, 
2491.00, 
2492.00, 
2493.00, 
2494.00, 
2495.00, 
2496.00, 
2497.00, 
2498.00, 
2499.00, 
2500.00, 
2501.00, 
2502.00, 
2503.00, 
2504.00, 
2505.00, 
2506.00, 
2507.00, 
2508.00, 
2509.00, 
2510.00, 
2511.00, 
2512.00, 
2513.00, 
2514.00, 
2515.00, 
2516.00, 
2517.00, 
2518.00, 
2519.00, 
2520.00, 
2521.00, 
2522.00, 
2523.00, 
2524.00, 
2525.00, 
2526.00, 
2527.00, 
2528.00, 
2529.00, 
2530.00, 
2531.00, 
2532.00, 
2533.00, 
2534.00, 
2535.00, 
2536.00, 
2537.00, 
2538.00, 
2539.00, 
2540.00, 
2541.00, 
2542.00, 
2543.00, 
2544.00, 
2545.00, 
2546.00, 
2547.00, 
2548.00, 
2549.00, 
2550.00, 
2551.00, 
2552.00, 
2553.00, 
2554.00, 
2555.00, 
2556.00, 
2557.00, 
2558.00, 
2559.00, 
2560.00, 
2561.00, 
2562.00, 
2563.00, 
2564.00, 
2565.00, 
2566.00, 
2567.00, 
2568.00, 
2569.00, 
2570.00, 
2571.00, 
2572.00, 
2573.00, 
2574.00, 
2575.00, 
2576.00, 
2577.00, 
2578.00, 
2579.00, 
2580.00, 
2581.00, 
2582.00, 
2583.00, 
2584.00, 
2585.00, 
2586.00, 
2587.00, 
2588.00, 
2589.00, 
2590.00, 
2591.00, 
2592.00, 
2593.00, 
2594.00, 
2595.00, 
2596.00, 
2597.00, 
2598.00, 
2599.00, 
2600.00, 
