"1aP2 - RawData"
"Wavelength nm.","T%"
200.00,0.002
201.00,0.004
202.00,0.002
203.00,-0.000
204.00,0.002
205.00,-0.000
206.00,-0.000
207.00,0.002
208.00,0.003
209.00,0.004
210.00,0.002
211.00,0.003
212.00,0.001
213.00,0.003
214.00,-0.002
215.00,-0.001
216.00,0.004
217.00,-0.000
218.00,0.001
219.00,0.003
220.00,0.003
221.00,0.003
222.00,0.001
223.00,-0.001
224.00,0.002
225.00,0.002
226.00,-0.001
227.00,-0.001
228.00,0.004
229.00,-0.000
230.00,-0.001
231.00,0.001
232.00,-0.001
233.00,0.000
234.00,-0.000
235.00,-0.001
236.00,0.000
237.00,-0.000
238.00,0.001
239.00,-0.001
240.00,-0.001
241.00,-0.000
242.00,0.001
243.00,0.001
244.00,-0.000
245.00,-0.002
246.00,0.000
247.00,0.000
248.00,-0.000
249.00,0.003
250.00,0.000
251.00,-0.000
252.00,-0.001
253.00,0.000
254.00,0.001
255.00,0.000
256.00,0.001
257.00,0.000
258.00,-0.001
259.00,-0.000
260.00,0.002
261.00,0.002
262.00,0.001
263.00,0.002
264.00,0.001
265.00,0.001
266.00,-0.000
267.00,-0.000
268.00,0.001
269.00,0.001
270.00,-0.001
271.00,0.002
272.00,0.000
273.00,0.001
274.00,0.001
275.00,-0.001
276.00,0.000
277.00,0.000
278.00,0.001
279.00,0.001
280.00,-0.001
281.00,0.001
282.00,0.000
283.00,0.001
284.00,-0.002
285.00,-0.001
286.00,-0.001
287.00,-0.000
288.00,-0.000
289.00,0.000
290.00,0.001
291.00,0.000
292.00,-0.001
293.00,-0.001
294.00,-0.001
295.00,-0.000
296.00,0.001
297.00,0.002
298.00,0.001
299.00,0.002
300.00,0.003
301.00,0.004
302.00,0.007
303.00,0.011
304.00,0.018
305.00,0.024
306.00,0.039
307.00,0.060
308.00,0.089
309.00,0.138
310.00,0.189
311.00,0.256
312.00,0.347
313.00,0.463
314.00,0.603
315.00,0.779
316.00,0.981
317.00,1.219
318.00,1.497
319.00,1.836
320.00,2.208
321.00,2.637
322.00,3.018
323.00,3.581
324.00,4.096
325.00,4.646
326.00,5.196
327.00,5.799
328.00,6.455
329.00,7.066
330.00,7.713
331.00,8.364
332.00,9.027
333.00,9.690
334.00,10.333
335.00,11.009
336.00,11.672
337.00,12.330
338.00,12.975
339.00,13.529
340.00,14.138
341.00,14.689
342.00,15.185
343.00,15.720
344.00,16.239
345.00,16.712
346.00,17.111
347.00,17.504
348.00,17.873
349.00,18.245
350.00,18.563
351.00,18.792
352.00,19.099
353.00,19.398
354.00,19.651
355.00,19.875
356.00,20.053
357.00,20.277
358.00,20.432
359.00,20.672
360.00,20.760
361.00,20.815
362.00,20.951
363.00,21.088
364.00,21.119
365.00,21.218
366.00,21.299
367.00,21.315
368.00,21.385
369.00,21.386
370.00,21.387
371.00,21.419
372.00,21.328
373.00,21.377
374.00,21.352
375.00,21.276
376.00,21.225
377.00,21.106
378.00,21.076
379.00,20.958
380.00,20.933
381.00,20.905
382.00,20.895
383.00,20.890
384.00,20.878
385.00,20.894
386.00,20.858
387.00,20.928
388.00,20.915
389.00,20.902
390.00,20.941
391.00,20.917
392.00,20.945
393.00,20.911
394.00,20.916
395.00,20.960
396.00,20.911
397.00,20.957
398.00,20.882
399.00,20.900
400.00,20.907
401.00,20.893
402.00,20.924
403.00,20.920
404.00,20.900
405.00,20.841
406.00,20.853
407.00,20.789
408.00,20.767
409.00,20.767
410.00,20.677
411.00,20.683
412.00,20.615
413.00,20.673
414.00,20.657
415.00,20.642
416.00,20.685
417.00,20.672
418.00,20.736
419.00,20.788
420.00,20.824
421.00,20.804
422.00,20.781
423.00,20.847
424.00,20.876
425.00,20.911
426.00,20.934
427.00,20.964
428.00,21.018
429.00,21.064
430.00,21.123
431.00,21.149
432.00,21.204
433.00,21.264
434.00,21.313
435.00,21.418
436.00,21.444
437.00,21.487
438.00,21.595
439.00,21.648
440.00,21.704
441.00,21.809
442.00,21.900
443.00,21.945
444.00,22.023
445.00,22.099
446.00,22.212
447.00,22.290
448.00,22.420
449.00,22.497
450.00,22.597
451.00,22.746
452.00,22.828
453.00,22.930
454.00,23.061
455.00,23.145
456.00,23.285
457.00,23.416
458.00,23.491
459.00,23.658
460.00,23.752
461.00,23.896
462.00,24.032
463.00,24.125
464.00,24.305
465.00,24.423
466.00,24.536
467.00,24.665
468.00,24.803
469.00,24.976
470.00,25.048
471.00,25.133
472.00,25.307
473.00,25.359
474.00,25.450
475.00,25.627
476.00,25.689
477.00,25.866
478.00,26.015
479.00,26.165
480.00,26.323
481.00,26.410
482.00,26.587
483.00,26.734
484.00,26.846
485.00,27.076
486.00,27.224
487.00,27.395
488.00,27.531
489.00,27.681
490.00,27.843
491.00,28.008
492.00,28.149
493.00,28.386
494.00,28.500
495.00,28.517
496.00,28.711
497.00,28.779
498.00,28.957
499.00,29.112
500.00,29.216
501.00,29.361
502.00,29.437
503.00,29.528
504.00,29.727
505.00,29.855
506.00,30.001
507.00,30.135
508.00,30.255
509.00,30.383
510.00,30.474
511.00,30.614
512.00,30.800
513.00,30.936
514.00,31.086
515.00,31.192
516.00,31.271
517.00,31.429
518.00,31.560
519.00,31.618
520.00,31.752
521.00,31.819
522.00,31.932
523.00,32.036
524.00,32.069
525.00,32.202
526.00,32.307
527.00,32.407
528.00,32.491
529.00,32.678
530.00,32.775
531.00,32.890
532.00,33.002
533.00,32.967
534.00,33.198
535.00,33.247
536.00,33.357
537.00,33.393
538.00,33.524
539.00,33.550
540.00,33.641
541.00,33.711
542.00,33.701
543.00,33.816
544.00,33.922
545.00,33.972
546.00,33.999
547.00,34.138
548.00,34.192
549.00,34.283
550.00,34.370
551.00,34.463
552.00,34.493
553.00,34.570
554.00,34.673
555.00,34.698
556.00,34.778
557.00,34.835
558.00,34.884
559.00,35.016
560.00,35.037
561.00,35.101
562.00,35.175
563.00,35.163
564.00,35.252
565.00,35.296
566.00,35.352
567.00,35.390
568.00,35.431
569.00,35.464
570.00,35.456
571.00,35.585
572.00,35.630
573.00,35.617
574.00,35.680
575.00,35.654
576.00,35.678
577.00,35.777
578.00,35.819
579.00,35.829
580.00,35.903
581.00,36.037
582.00,36.110
583.00,36.123
584.00,36.245
585.00,36.269
586.00,36.316
587.00,36.398
588.00,36.431
589.00,36.392
590.00,36.478
591.00,36.486
592.00,36.532
593.00,36.590
594.00,36.649
595.00,36.672
596.00,36.769
597.00,36.783
598.00,36.933
599.00,36.939
600.00,37.048
601.00,37.093
602.00,37.076
603.00,37.121
604.00,37.143
605.00,37.199
606.00,37.325
607.00,37.359
608.00,37.378
609.00,37.393
610.00,37.505
611.00,37.470
612.00,37.491
613.00,37.541
614.00,37.646
615.00,37.684
616.00,37.793
617.00,37.840
618.00,37.865
619.00,37.908
620.00,37.937
621.00,37.979
622.00,38.095
623.00,38.136
624.00,38.276
625.00,38.340
626.00,38.315
627.00,38.403
628.00,38.452
629.00,38.544
630.00,38.587
631.00,38.583
632.00,38.707
633.00,38.820
634.00,38.934
635.00,39.012
636.00,39.104
637.00,39.143
638.00,39.262
639.00,39.246
640.00,39.367
641.00,39.422
642.00,39.485
643.00,39.612
644.00,39.700
645.00,39.760
646.00,39.885
647.00,39.964
648.00,40.010
649.00,40.120
650.00,40.189
651.00,40.271
652.00,40.357
653.00,40.462
654.00,40.642
655.00,40.655
656.00,40.817
657.00,41.050
658.00,41.134
659.00,41.131
660.00,41.277
661.00,41.194
662.00,41.358
663.00,41.416
664.00,41.630
665.00,41.749
666.00,41.672
667.00,41.979
668.00,41.841
669.00,42.056
670.00,42.341
671.00,42.282
672.00,42.426
673.00,42.554
674.00,42.736
675.00,42.700
676.00,42.827
677.00,42.957
678.00,42.924
679.00,43.095
680.00,43.203
681.00,43.345
682.00,43.511
683.00,43.503
684.00,43.675
685.00,43.869
686.00,43.773
687.00,43.900
688.00,44.072
689.00,44.071
690.00,44.271
691.00,44.442
692.00,44.374
693.00,44.451
694.00,44.565
695.00,44.745
696.00,44.809
697.00,44.927
698.00,45.015
699.00,45.190
700.00,45.343
701.00,45.317
702.00,45.464
703.00,45.648
704.00,45.714
705.00,45.540
706.00,45.623
707.00,46.038
708.00,45.853
709.00,46.159
710.00,46.452
711.00,46.294
712.00,46.254
713.00,46.430
714.00,46.458
715.00,46.597
716.00,46.606
717.00,46.598
718.00,46.938
719.00,46.900
720.00,47.066
721.00,51.250
722.00,51.271
723.00,51.237
724.00,51.300
725.00,51.254
726.00,51.341
727.00,51.335
728.00,51.493
729.00,51.491
730.00,51.551
731.00,51.555
732.00,51.642
733.00,51.672
734.00,51.672
735.00,51.852
736.00,51.829
737.00,51.899
738.00,51.904
739.00,52.021
740.00,51.991
741.00,52.166
742.00,52.147
743.00,52.084
744.00,52.119
745.00,52.119
746.00,52.181
747.00,52.196
748.00,52.294
749.00,52.303
750.00,52.263
751.00,52.299
752.00,52.337
753.00,52.267
754.00,52.340
755.00,52.279
756.00,52.332
757.00,52.379
758.00,52.438
759.00,52.435
760.00,52.414
761.00,52.507
762.00,52.524
763.00,52.559
764.00,52.551
765.00,52.619
766.00,52.586
767.00,52.634
768.00,52.661
769.00,52.685
770.00,52.723
771.00,52.580
772.00,52.753
773.00,52.762
774.00,52.806
775.00,52.914
776.00,52.789
777.00,52.863
778.00,52.771
779.00,52.896
780.00,52.859
781.00,52.921
782.00,52.949
783.00,52.899
784.00,52.921
785.00,52.884
786.00,52.942
787.00,52.930
788.00,52.912
789.00,52.963
790.00,52.844
791.00,52.974
792.00,52.859
793.00,52.927
794.00,53.047
795.00,52.916
796.00,52.918
797.00,52.828
798.00,52.898
799.00,52.839
800.00,52.876
801.00,52.857
802.00,52.946
803.00,52.890
804.00,52.787
805.00,52.943
806.00,52.871
807.00,52.828
808.00,52.887
809.00,52.826
810.00,52.825
811.00,52.804
812.00,52.842
813.00,52.740
814.00,52.908
815.00,52.826
816.00,52.790
817.00,52.805
818.00,52.707
819.00,52.885
820.00,52.629
821.00,52.778
822.00,52.737
823.00,52.673
824.00,52.804
825.00,52.598
826.00,52.674
827.00,52.813
828.00,52.696
829.00,52.664
830.00,52.668
831.00,55.411
832.00,55.396
833.00,55.306
834.00,55.365
835.00,55.354
836.00,55.372
837.00,55.335
838.00,55.300
839.00,55.345
840.00,55.276
841.00,55.321
842.00,55.258
843.00,55.287
844.00,55.254
845.00,55.242
846.00,55.248
847.00,55.194
848.00,55.211
849.00,55.149
850.00,55.166
851.00,55.094
852.00,55.127
853.00,55.077
854.00,55.052
855.00,54.990
856.00,54.991
857.00,55.006
858.00,54.943
859.00,54.953
860.00,54.991
861.00,54.968
862.00,54.923
863.00,54.940
864.00,54.931
865.00,54.961
866.00,54.935
867.00,54.901
868.00,54.887
869.00,54.869
870.00,54.909
871.00,54.853
872.00,54.870
873.00,54.831
874.00,54.879
875.00,54.835
876.00,54.842
877.00,54.851
878.00,54.883
879.00,54.832
880.00,54.799
881.00,54.760
882.00,54.826
883.00,54.798
884.00,54.694
885.00,54.813
886.00,54.763
887.00,54.705
888.00,54.697
889.00,54.679
890.00,54.691
891.00,54.643
892.00,54.652
893.00,54.621
894.00,54.621
895.00,54.574
896.00,54.576
897.00,54.572
898.00,54.536
899.00,54.579
900.00,54.547
901.00,54.494
902.00,54.564
903.00,54.530
904.00,54.490
905.00,54.512
906.00,54.496
907.00,54.411
908.00,54.414
909.00,54.384
910.00,54.413
911.00,54.369
912.00,54.349
913.00,54.382
914.00,54.247
915.00,54.306
916.00,54.298
917.00,54.294
918.00,54.292
919.00,54.257
920.00,54.200
921.00,54.257
922.00,54.225
923.00,54.192
924.00,54.026
925.00,54.259
926.00,54.142
927.00,54.128
928.00,54.110
929.00,54.128
930.00,54.083
931.00,54.060
932.00,54.022
933.00,54.036
934.00,54.022
935.00,54.005
936.00,53.957
937.00,53.960
938.00,53.951
939.00,53.953
940.00,53.909
941.00,53.924
942.00,53.879
943.00,53.875
944.00,53.833
945.00,53.857
946.00,53.790
947.00,53.807
948.00,53.793
949.00,53.778
950.00,53.774
951.00,53.757
952.00,53.753
953.00,53.693
954.00,53.673
955.00,53.646
956.00,53.633
957.00,53.599
958.00,53.618
959.00,53.555
960.00,53.552
961.00,53.551
962.00,53.562
963.00,53.515
964.00,53.497
965.00,53.519
966.00,53.498
967.00,53.483
968.00,53.458
969.00,53.505
970.00,53.474
971.00,53.490
972.00,53.433
973.00,53.493
974.00,53.522
975.00,53.467
976.00,53.489
977.00,53.488
978.00,53.526
979.00,53.491
980.00,53.486
981.00,53.511
982.00,53.465
983.00,53.485
984.00,53.466
985.00,53.489
986.00,53.446
987.00,53.485
988.00,53.450
989.00,53.414
990.00,53.436
991.00,53.408
992.00,53.434
993.00,53.396
994.00,53.389
995.00,53.365
996.00,53.367
997.00,53.342
998.00,53.328
999.00,53.350
1000.00,53.302
1001.00,53.310
1002.00,53.279
1003.00,53.279
1004.00,53.266
1005.00,53.229
1006.00,53.279
1007.00,53.246
1008.00,53.228
1009.00,53.222
1010.00,53.204
1011.00,53.188
1012.00,53.179
1013.00,53.178
1014.00,53.144
1015.00,53.170
1016.00,53.151
1017.00,53.112
1018.00,53.117
1019.00,53.091
1020.00,53.082
1021.00,53.070
1022.00,53.052
1023.00,53.011
1024.00,53.023
1025.00,52.998
1026.00,52.997
1027.00,52.962
1028.00,52.963
1029.00,52.975
1030.00,52.926
1031.00,52.954
1032.00,52.908
1033.00,52.904
1034.00,52.875
1035.00,52.836
1036.00,52.822
1037.00,52.808
1038.00,52.796
1039.00,52.771
1040.00,52.778
1041.00,52.732
1042.00,52.748
1043.00,52.713
1044.00,52.745
1045.00,52.723
1046.00,52.700
1047.00,52.703
1048.00,52.725
1049.00,52.734
1050.00,52.739
1051.00,52.784
1052.00,52.758
1053.00,52.772
1054.00,52.783
1055.00,52.804
1056.00,52.828
1057.00,52.820
1058.00,52.815
1059.00,52.821
1060.00,52.819
1061.00,52.799
1062.00,52.789
1063.00,52.775
1064.00,52.790
1065.00,52.790
1066.00,52.771
1067.00,52.778
1068.00,52.785
1069.00,52.748
1070.00,52.739
1071.00,52.728
1072.00,52.752
1073.00,52.738
1074.00,52.715
1075.00,52.701
1076.00,52.717
1077.00,52.709
1078.00,52.696
1079.00,52.679
1080.00,52.677
1081.00,52.671
1082.00,52.660
1083.00,52.664
1084.00,52.666
1085.00,52.665
1086.00,52.657
1087.00,52.659
1088.00,52.637
1089.00,52.633
1090.00,52.624
1091.00,52.640
1092.00,52.642
1093.00,52.600
1094.00,52.577
1095.00,52.586
1096.00,52.553
1097.00,52.592
1098.00,52.587
1099.00,52.551
1100.00,52.544
1101.00,52.528
1102.00,52.516
1103.00,52.529
1104.00,52.512
1105.00,52.517
1106.00,52.492
1107.00,52.471
1108.00,52.482
1109.00,52.480
1110.00,52.472
1111.00,52.453
1112.00,52.433
1113.00,52.441
1114.00,52.438
1115.00,52.434
1116.00,52.431
1117.00,52.430
1118.00,52.402
1119.00,52.407
1120.00,52.406
1121.00,52.394
1122.00,52.396
1123.00,52.389
1124.00,52.371
1125.00,52.392
1126.00,52.361
1127.00,52.374
1128.00,52.372
1129.00,52.339
1130.00,52.325
1131.00,52.343
1132.00,52.321
1133.00,52.317
1134.00,52.315
1135.00,52.315
1136.00,52.308
1137.00,52.312
1138.00,52.321
1139.00,52.315
1140.00,52.281
1141.00,52.288
1142.00,52.268
1143.00,52.281
1144.00,52.256
1145.00,52.279
1146.00,52.291
1147.00,52.294
1148.00,52.276
1149.00,52.294
1150.00,52.305
1151.00,52.275
1152.00,52.270
1153.00,52.276
1154.00,52.245
1155.00,52.270
1156.00,52.245
1157.00,52.257
1158.00,52.249
1159.00,52.256
1160.00,52.259
1161.00,52.289
1162.00,52.257
1163.00,52.258
1164.00,52.268
1165.00,52.251
1166.00,52.257
1167.00,52.233
1168.00,52.246
1169.00,52.236
1170.00,52.241
1171.00,52.232
1172.00,52.239
1173.00,52.221
1174.00,52.250
1175.00,52.240
1176.00,52.230
1177.00,52.225
1178.00,52.221
1179.00,52.231
1180.00,52.229
1181.00,52.239
1182.00,52.222
1183.00,52.238
1184.00,52.210
1185.00,52.252
1186.00,52.232
1187.00,52.231
1188.00,52.235
1189.00,52.218
1190.00,52.204
1191.00,52.212
1192.00,52.243
1193.00,52.224
1194.00,52.248
1195.00,52.201
1196.00,52.240
1197.00,52.248
1198.00,52.226
1199.00,52.258
1200.00,52.265
1201.00,52.252
1202.00,52.239
1203.00,52.236
1204.00,52.223
1205.00,52.255
1206.00,52.218
1207.00,52.232
1208.00,52.208
1209.00,52.215
1210.00,52.221
1211.00,52.206
1212.00,52.240
1213.00,52.206
1214.00,52.226
1215.00,52.213
1216.00,52.230
1217.00,52.228
1218.00,52.230
1219.00,52.246
1220.00,52.216
1221.00,52.250
1222.00,52.218
1223.00,52.255
1224.00,52.260
1225.00,52.236
1226.00,52.239
1227.00,52.247
1228.00,52.251
1229.00,52.247
1230.00,52.284
1231.00,52.255
1232.00,52.287
1233.00,52.272
1234.00,52.281
1235.00,52.301
1236.00,52.266
1237.00,52.260
1238.00,52.271
1239.00,52.269
1240.00,52.283
1241.00,52.301
1242.00,52.296
1243.00,52.290
1244.00,52.275
1245.00,52.310
1246.00,52.301
1247.00,52.289
1248.00,52.296
1249.00,52.311
1250.00,52.311
1251.00,52.313
1252.00,52.335
1253.00,52.324
1254.00,52.366
1255.00,52.331
1256.00,52.317
1257.00,52.312
1258.00,52.353
1259.00,52.363
1260.00,52.376
1261.00,52.356
1262.00,52.357
1263.00,52.356
1264.00,52.372
1265.00,52.381
1266.00,52.362
1267.00,52.386
1268.00,52.395
1269.00,52.381
1270.00,52.404
1271.00,52.407
1272.00,52.401
1273.00,52.445
1274.00,52.434
1275.00,52.419
1276.00,52.427
1277.00,52.431
1278.00,52.452
1279.00,52.456
1280.00,52.438
1281.00,52.476
1282.00,52.480
1283.00,52.462
1284.00,52.482
1285.00,52.463
1286.00,52.456
1287.00,52.461
1288.00,52.447
1289.00,52.446
1290.00,52.503
1291.00,52.485
1292.00,52.484
1293.00,52.518
1294.00,52.519
1295.00,52.531
1296.00,52.530
1297.00,52.532
1298.00,52.561
1299.00,52.516
1300.00,52.545
1301.00,52.540
1302.00,52.558
1303.00,52.572
1304.00,52.586
1305.00,52.586
1306.00,52.595
1307.00,52.615
1308.00,52.610
1309.00,52.624
1310.00,52.608
1311.00,52.610
1312.00,52.615
1313.00,52.594
1314.00,52.630
1315.00,52.669
1316.00,52.661
1317.00,52.699
1318.00,52.688
1319.00,52.690
1320.00,52.698
1321.00,52.847
1322.00,52.853
1323.00,52.842
1324.00,52.831
1325.00,52.817
1326.00,52.845
1327.00,52.824
1328.00,52.793
1329.00,52.855
1330.00,52.832
1331.00,52.819
1332.00,52.860
1333.00,52.825
1334.00,52.861
1335.00,52.868
1336.00,52.901
1337.00,52.926
1338.00,52.993
1339.00,53.032
1340.00,53.097
1341.00,53.134
1342.00,53.212
1343.00,53.236
1344.00,53.313
1345.00,53.376
1346.00,53.400
1347.00,53.416
1348.00,53.438
1349.00,53.450
1350.00,53.478
1351.00,53.487
1352.00,53.496
1353.00,53.474
1354.00,53.504
1355.00,53.435
1356.00,53.468
1357.00,53.468
1358.00,53.531
1359.00,53.529
1360.00,53.502
1361.00,53.497
1362.00,53.502
1363.00,53.480
1364.00,53.607
1365.00,53.547
1366.00,53.618
1367.00,53.530
1368.00,53.529
1369.00,53.546
1370.00,53.527
1371.00,53.497
1372.00,53.506
1373.00,53.535
1374.00,53.559
1375.00,53.529
1376.00,53.544
1377.00,53.492
1378.00,53.726
1379.00,53.502
1380.00,53.526
1381.00,53.592
1382.00,53.544
1383.00,53.559
1384.00,53.483
1385.00,53.461
1386.00,53.541
1387.00,53.517
1388.00,53.471
1389.00,53.501
1390.00,53.472
1391.00,53.498
1392.00,53.523
1393.00,53.564
1394.00,53.583
1395.00,53.518
1396.00,53.456
1397.00,53.516
1398.00,53.557
1399.00,53.511
1400.00,53.469
1401.00,53.510
1402.00,53.591
1403.00,53.521
1404.00,53.500
1405.00,53.567
1406.00,53.568
1407.00,53.530
1408.00,53.556
1409.00,53.554
1410.00,53.594
1411.00,53.592
1412.00,53.668
1413.00,53.544
1414.00,53.564
1415.00,53.627
1416.00,53.657
1417.00,53.692
1418.00,53.622
1419.00,53.627
1420.00,53.675
1421.00,53.702
1422.00,53.700
1423.00,53.716
1424.00,53.729
1425.00,53.755
1426.00,53.760
1427.00,53.786
1428.00,53.774
1429.00,53.784
1430.00,53.807
1431.00,53.824
1432.00,53.820
1433.00,53.861
1434.00,53.822
1435.00,53.885
1436.00,53.888
1437.00,53.874
1438.00,53.878
1439.00,53.939
1440.00,53.951
1441.00,53.956
1442.00,53.948
1443.00,53.970
1444.00,54.043
1445.00,53.970
1446.00,54.009
1447.00,54.043
1448.00,54.072
1449.00,54.069
1450.00,54.090
1451.00,54.085
1452.00,54.097
1453.00,54.113
1454.00,54.124
1455.00,54.152
1456.00,54.152
1457.00,54.167
1458.00,54.195
1459.00,54.189
1460.00,54.238
1461.00,54.226
1462.00,54.271
1463.00,54.273
1464.00,54.297
1465.00,54.287
1466.00,54.281
1467.00,54.311
1468.00,54.370
1469.00,54.347
1470.00,54.370
1471.00,54.390
1472.00,54.385
1473.00,54.385
1474.00,54.433
1475.00,54.438
1476.00,54.444
1477.00,54.430
1478.00,54.458
1479.00,54.466
1480.00,54.470
1481.00,54.485
1482.00,54.508
1483.00,54.523
1484.00,54.529
1485.00,54.532
1486.00,54.559
1487.00,54.570
1488.00,54.594
1489.00,54.569
1490.00,54.590
1491.00,54.593
1492.00,54.600
1493.00,54.581
1494.00,54.641
1495.00,54.617
1496.00,54.647
1497.00,54.660
1498.00,54.668
1499.00,54.682
1500.00,54.677
1501.00, 
1502.00, 
1503.00, 
1504.00, 
1505.00, 
1506.00, 
1507.00, 
1508.00, 
1509.00, 
1510.00, 
1511.00, 
1512.00, 
1513.00, 
1514.00, 
1515.00, 
1516.00, 
1517.00, 
1518.00, 
1519.00, 
1520.00, 
1521.00, 
1522.00, 
1523.00, 
1524.00, 
1525.00, 
1526.00, 
1527.00, 
1528.00, 
1529.00, 
1530.00, 
1531.00, 
1532.00, 
1533.00, 
1534.00, 
1535.00, 
1536.00, 
1537.00, 
1538.00, 
1539.00, 
1540.00, 
1541.00, 
1542.00, 
1543.00, 
1544.00, 
1545.00, 
1546.00, 
1547.00, 
1548.00, 
1549.00, 
1550.00, 
1551.00, 
1552.00, 
1553.00, 
1554.00, 
1555.00, 
1556.00, 
1557.00, 
1558.00, 
1559.00, 
1560.00, 
1561.00, 
1562.00, 
1563.00, 
1564.00, 
1565.00, 
1566.00, 
1567.00, 
1568.00, 
1569.00, 
1570.00, 
1571.00, 
1572.00, 
1573.00, 
1574.00, 
1575.00, 
1576.00, 
1577.00, 
1578.00, 
1579.00, 
1580.00, 
1581.00, 
1582.00, 
1583.00, 
1584.00, 
1585.00, 
1586.00, 
1587.00, 
1588.00, 
1589.00, 
1590.00, 
1591.00, 
1592.00, 
1593.00, 
1594.00, 
1595.00, 
1596.00, 
1597.00, 
1598.00, 
1599.00, 
1600.00, 
1601.00, 
1602.00, 
1603.00, 
1604.00, 
1605.00, 
1606.00, 
1607.00, 
1608.00, 
1609.00, 
1610.00, 
1611.00, 
1612.00, 
1613.00, 
1614.00, 
1615.00, 
1616.00, 
1617.00, 
1618.00, 
1619.00, 
1620.00, 
1621.00, 
1622.00, 
1623.00, 
1624.00, 
1625.00, 
1626.00, 
1627.00, 
1628.00, 
1629.00, 
1630.00, 
1631.00, 
1632.00, 
1633.00, 
1634.00, 
1635.00, 
1636.00, 
1637.00, 
1638.00, 
1639.00, 
1640.00, 
1641.00, 
1642.00, 
1643.00, 
1644.00, 
1645.00, 
1646.00, 
1647.00, 
1648.00, 
1649.00, 
1650.00, 
1651.00, 
1652.00, 
1653.00, 
1654.00, 
1655.00, 
1656.00, 
1657.00, 
1658.00, 
1659.00, 
1660.00, 
1661.00, 
1662.00, 
1663.00, 
1664.00, 
1665.00, 
1666.00, 
1667.00, 
1668.00, 
1669.00, 
1670.00, 
1671.00, 
1672.00, 
1673.00, 
1674.00, 
1675.00, 
1676.00, 
1677.00, 
1678.00, 
1679.00, 
1680.00, 
1681.00, 
1682.00, 
1683.00, 
1684.00, 
1685.00, 
1686.00, 
1687.00, 
1688.00, 
1689.00, 
1690.00, 
1691.00, 
1692.00, 
1693.00, 
1694.00, 
1695.00, 
1696.00, 
1697.00, 
1698.00, 
1699.00, 
1700.00, 
1701.00, 
1702.00, 
1703.00, 
1704.00, 
1705.00, 
1706.00, 
1707.00, 
1708.00, 
1709.00, 
1710.00, 
1711.00, 
1712.00, 
1713.00, 
1714.00, 
1715.00, 
1716.00, 
1717.00, 
1718.00, 
1719.00, 
1720.00, 
1721.00, 
1722.00, 
1723.00, 
1724.00, 
1725.00, 
1726.00, 
1727.00, 
1728.00, 
1729.00, 
1730.00, 
1731.00, 
1732.00, 
1733.00, 
1734.00, 
1735.00, 
1736.00, 
1737.00, 
1738.00, 
1739.00, 
1740.00, 
1741.00, 
1742.00, 
1743.00, 
1744.00, 
1745.00, 
1746.00, 
1747.00, 
1748.00, 
1749.00, 
1750.00, 
1751.00, 
1752.00, 
1753.00, 
1754.00, 
1755.00, 
1756.00, 
1757.00, 
1758.00, 
1759.00, 
1760.00, 
1761.00, 
1762.00, 
1763.00, 
1764.00, 
1765.00, 
1766.00, 
1767.00, 
1768.00, 
1769.00, 
1770.00, 
1771.00, 
1772.00, 
1773.00, 
1774.00, 
1775.00, 
1776.00, 
1777.00, 
1778.00, 
1779.00, 
1780.00, 
1781.00, 
1782.00, 
1783.00, 
1784.00, 
1785.00, 
1786.00, 
1787.00, 
1788.00, 
1789.00, 
1790.00, 
1791.00, 
1792.00, 
1793.00, 
1794.00, 
1795.00, 
1796.00, 
1797.00, 
1798.00, 
1799.00, 
1800.00, 
1801.00, 
1802.00, 
1803.00, 
1804.00, 
1805.00, 
1806.00, 
1807.00, 
1808.00, 
1809.00, 
1810.00, 
1811.00, 
1812.00, 
1813.00, 
1814.00, 
1815.00, 
1816.00, 
1817.00, 
1818.00, 
1819.00, 
1820.00, 
1821.00, 
1822.00, 
1823.00, 
1824.00, 
1825.00, 
1826.00, 
1827.00, 
1828.00, 
1829.00, 
1830.00, 
1831.00, 
1832.00, 
1833.00, 
1834.00, 
1835.00, 
1836.00, 
1837.00, 
1838.00, 
1839.00, 
1840.00, 
1841.00, 
1842.00, 
1843.00, 
1844.00, 
1845.00, 
1846.00, 
1847.00, 
1848.00, 
1849.00, 
1850.00, 
1851.00, 
1852.00, 
1853.00, 
1854.00, 
1855.00, 
1856.00, 
1857.00, 
1858.00, 
1859.00, 
1860.00, 
1861.00, 
1862.00, 
1863.00, 
1864.00, 
1865.00, 
1866.00, 
1867.00, 
1868.00, 
1869.00, 
1870.00, 
1871.00, 
1872.00, 
1873.00, 
1874.00, 
1875.00, 
1876.00, 
1877.00, 
1878.00, 
1879.00, 
1880.00, 
1881.00, 
1882.00, 
1883.00, 
1884.00, 
1885.00, 
1886.00, 
1887.00, 
1888.00, 
1889.00, 
1890.00, 
1891.00, 
1892.00, 
1893.00, 
1894.00, 
1895.00, 
1896.00, 
1897.00, 
1898.00, 
1899.00, 
1900.00, 
1901.00, 
1902.00, 
1903.00, 
1904.00, 
1905.00, 
1906.00, 
1907.00, 
1908.00, 
1909.00, 
1910.00, 
1911.00, 
1912.00, 
1913.00, 
1914.00, 
1915.00, 
1916.00, 
1917.00, 
1918.00, 
1919.00, 
1920.00, 
1921.00, 
1922.00, 
1923.00, 
1924.00, 
1925.00, 
1926.00, 
1927.00, 
1928.00, 
1929.00, 
1930.00, 
1931.00, 
1932.00, 
1933.00, 
1934.00, 
1935.00, 
1936.00, 
1937.00, 
1938.00, 
1939.00, 
1940.00, 
1941.00, 
1942.00, 
1943.00, 
1944.00, 
1945.00, 
1946.00, 
1947.00, 
1948.00, 
1949.00, 
1950.00, 
1951.00, 
1952.00, 
1953.00, 
1954.00, 
1955.00, 
1956.00, 
1957.00, 
1958.00, 
1959.00, 
1960.00, 
1961.00, 
1962.00, 
1963.00, 
1964.00, 
1965.00, 
1966.00, 
1967.00, 
1968.00, 
1969.00, 
1970.00, 
1971.00, 
1972.00, 
1973.00, 
1974.00, 
1975.00, 
1976.00, 
1977.00, 
1978.00, 
1979.00, 
1980.00, 
1981.00, 
1982.00, 
1983.00, 
1984.00, 
1985.00, 
1986.00, 
1987.00, 
1988.00, 
1989.00, 
1990.00, 
1991.00, 
1992.00, 
1993.00, 
1994.00, 
1995.00, 
1996.00, 
1997.00, 
1998.00, 
1999.00, 
2000.00, 
2001.00, 
2002.00, 
2003.00, 
2004.00, 
2005.00, 
2006.00, 
2007.00, 
2008.00, 
2009.00, 
2010.00, 
2011.00, 
2012.00, 
2013.00, 
2014.00, 
2015.00, 
2016.00, 
2017.00, 
2018.00, 
2019.00, 
2020.00, 
2021.00, 
2022.00, 
2023.00, 
2024.00, 
2025.00, 
2026.00, 
2027.00, 
2028.00, 
2029.00, 
2030.00, 
2031.00, 
2032.00, 
2033.00, 
2034.00, 
2035.00, 
2036.00, 
2037.00, 
2038.00, 
2039.00, 
2040.00, 
2041.00, 
2042.00, 
2043.00, 
2044.00, 
2045.00, 
2046.00, 
2047.00, 
2048.00, 
2049.00, 
2050.00, 
2051.00, 
2052.00, 
2053.00, 
2054.00, 
2055.00, 
2056.00, 
2057.00, 
2058.00, 
2059.00, 
2060.00, 
2061.00, 
2062.00, 
2063.00, 
2064.00, 
2065.00, 
2066.00, 
2067.00, 
2068.00, 
2069.00, 
2070.00, 
2071.00, 
2072.00, 
2073.00, 
2074.00, 
2075.00, 
2076.00, 
2077.00, 
2078.00, 
2079.00, 
2080.00, 
2081.00, 
2082.00, 
2083.00, 
2084.00, 
2085.00, 
2086.00, 
2087.00, 
2088.00, 
2089.00, 
2090.00, 
2091.00, 
2092.00, 
2093.00, 
2094.00, 
2095.00, 
2096.00, 
2097.00, 
2098.00, 
2099.00, 
2100.00, 
2101.00, 
2102.00, 
2103.00, 
2104.00, 
2105.00, 
2106.00, 
2107.00, 
2108.00, 
2109.00, 
2110.00, 
2111.00, 
2112.00, 
2113.00, 
2114.00, 
2115.00, 
2116.00, 
2117.00, 
2118.00, 
2119.00, 
2120.00, 
2121.00, 
2122.00, 
2123.00, 
2124.00, 
2125.00, 
2126.00, 
2127.00, 
2128.00, 
2129.00, 
2130.00, 
2131.00, 
2132.00, 
2133.00, 
2134.00, 
2135.00, 
2136.00, 
2137.00, 
2138.00, 
2139.00, 
2140.00, 
2141.00, 
2142.00, 
2143.00, 
2144.00, 
2145.00, 
2146.00, 
2147.00, 
2148.00, 
2149.00, 
2150.00, 
2151.00, 
2152.00, 
2153.00, 
2154.00, 
2155.00, 
2156.00, 
2157.00, 
2158.00, 
2159.00, 
2160.00, 
2161.00, 
2162.00, 
2163.00, 
2164.00, 
2165.00, 
2166.00, 
2167.00, 
2168.00, 
2169.00, 
2170.00, 
2171.00, 
2172.00, 
2173.00, 
2174.00, 
2175.00, 
2176.00, 
2177.00, 
2178.00, 
2179.00, 
2180.00, 
2181.00, 
2182.00, 
2183.00, 
2184.00, 
2185.00, 
2186.00, 
2187.00, 
2188.00, 
2189.00, 
2190.00, 
2191.00, 
2192.00, 
2193.00, 
2194.00, 
2195.00, 
2196.00, 
2197.00, 
2198.00, 
2199.00, 
2200.00, 
2201.00, 
2202.00, 
2203.00, 
2204.00, 
2205.00, 
2206.00, 
2207.00, 
2208.00, 
2209.00, 
2210.00, 
2211.00, 
2212.00, 
2213.00, 
2214.00, 
2215.00, 
2216.00, 
2217.00, 
2218.00, 
2219.00, 
2220.00, 
2221.00, 
2222.00, 
2223.00, 
2224.00, 
2225.00, 
2226.00, 
2227.00, 
2228.00, 
2229.00, 
2230.00, 
2231.00, 
2232.00, 
2233.00, 
2234.00, 
2235.00, 
2236.00, 
2237.00, 
2238.00, 
2239.00, 
2240.00, 
2241.00, 
2242.00, 
2243.00, 
2244.00, 
2245.00, 
2246.00, 
2247.00, 
2248.00, 
2249.00, 
2250.00, 
2251.00, 
2252.00, 
2253.00, 
2254.00, 
2255.00, 
2256.00, 
2257.00, 
2258.00, 
2259.00, 
2260.00, 
2261.00, 
2262.00, 
2263.00, 
2264.00, 
2265.00, 
2266.00, 
2267.00, 
2268.00, 
2269.00, 
2270.00, 
2271.00, 
2272.00, 
2273.00, 
2274.00, 
2275.00, 
2276.00, 
2277.00, 
2278.00, 
2279.00, 
2280.00, 
2281.00, 
2282.00, 
2283.00, 
2284.00, 
2285.00, 
2286.00, 
2287.00, 
2288.00, 
2289.00, 
2290.00, 
2291.00, 
2292.00, 
2293.00, 
2294.00, 
2295.00, 
2296.00, 
2297.00, 
2298.00, 
2299.00, 
2300.00, 
2301.00, 
2302.00, 
2303.00, 
2304.00, 
2305.00, 
2306.00, 
2307.00, 
2308.00, 
2309.00, 
2310.00, 
2311.00, 
2312.00, 
2313.00, 
2314.00, 
2315.00, 
2316.00, 
2317.00, 
2318.00, 
2319.00, 
2320.00, 
2321.00, 
2322.00, 
2323.00, 
2324.00, 
2325.00, 
2326.00, 
2327.00, 
2328.00, 
2329.00, 
2330.00, 
2331.00, 
2332.00, 
2333.00, 
2334.00, 
2335.00, 
2336.00, 
2337.00, 
2338.00, 
2339.00, 
2340.00, 
2341.00, 
2342.00, 
2343.00, 
2344.00, 
2345.00, 
2346.00, 
2347.00, 
2348.00, 
2349.00, 
2350.00, 
2351.00, 
2352.00, 
2353.00, 
2354.00, 
2355.00, 
2356.00, 
2357.00, 
2358.00, 
2359.00, 
2360.00, 
2361.00, 
2362.00, 
2363.00, 
2364.00, 
2365.00, 
2366.00, 
2367.00, 
2368.00, 
2369.00, 
2370.00, 
2371.00, 
2372.00, 
2373.00, 
2374.00, 
2375.00, 
2376.00, 
2377.00, 
2378.00, 
2379.00, 
2380.00, 
2381.00, 
2382.00, 
2383.00, 
2384.00, 
2385.00, 
2386.00, 
2387.00, 
2388.00, 
2389.00, 
2390.00, 
2391.00, 
2392.00, 
2393.00, 
2394.00, 
2395.00, 
2396.00, 
2397.00, 
2398.00, 
2399.00, 
2400.00, 
2401.00, 
2402.00, 
2403.00, 
2404.00, 
2405.00, 
2406.00, 
2407.00, 
2408.00, 
2409.00, 
2410.00, 
2411.00, 
2412.00, 
2413.00, 
2414.00, 
2415.00, 
2416.00, 
2417.00, 
2418.00, 
2419.00, 
2420.00, 
2421.00, 
2422.00, 
2423.00, 
2424.00, 
2425.00, 
2426.00, 
2427.00, 
2428.00, 
2429.00, 
2430.00, 
2431.00, 
2432.00, 
2433.00, 
2434.00, 
2435.00, 
2436.00, 
2437.00, 
2438.00, 
2439.00, 
2440.00, 
2441.00, 
2442.00, 
2443.00, 
2444.00, 
2445.00, 
2446.00, 
2447.00, 
2448.00, 
2449.00, 
2450.00, 
2451.00, 
2452.00, 
2453.00, 
2454.00, 
2455.00, 
2456.00, 
2457.00, 
2458.00, 
2459.00, 
2460.00, 
2461.00, 
2462.00, 
2463.00, 
2464.00, 
2465.00, 
2466.00, 
2467.00, 
2468.00, 
2469.00, 
2470.00, 
2471.00, 
2472.00, 
2473.00, 
2474.00, 
2475.00, 
2476.00, 
2477.00, 
2478.00, 
2479.00, 
2480.00, 
2481.00, 
2482.00, 
2483.00, 
2484.00, 
2485.00, 
2486.00, 
2487.00, 
2488.00, 
2489.00, 
2490.00, 
2491.00, 
2492.00, 
2493.00, 
2494.00, 
2495.00, 
2496.00, 
2497.00, 
2498.00, 
2499.00, 
2500.00, 
2501.00, 
2502.00, 
2503.00, 
2504.00, 
2505.00, 
2506.00, 
2507.00, 
2508.00, 
2509.00, 
2510.00, 
2511.00, 
2512.00, 
2513.00, 
2514.00, 
2515.00, 
2516.00, 
2517.00, 
2518.00, 
2519.00, 
2520.00, 
2521.00, 
2522.00, 
2523.00, 
2524.00, 
2525.00, 
2526.00, 
2527.00, 
2528.00, 
2529.00, 
2530.00, 
2531.00, 
2532.00, 
2533.00, 
2534.00, 
2535.00, 
2536.00, 
2537.00, 
2538.00, 
2539.00, 
2540.00, 
2541.00, 
2542.00, 
2543.00, 
2544.00, 
2545.00, 
2546.00, 
2547.00, 
2548.00, 
2549.00, 
2550.00, 
2551.00, 
2552.00, 
2553.00, 
2554.00, 
2555.00, 
2556.00, 
2557.00, 
2558.00, 
2559.00, 
2560.00, 
2561.00, 
2562.00, 
2563.00, 
2564.00, 
2565.00, 
2566.00, 
2567.00, 
2568.00, 
2569.00, 
2570.00, 
2571.00, 
2572.00, 
2573.00, 
2574.00, 
2575.00, 
2576.00, 
2577.00, 
2578.00, 
2579.00, 
2580.00, 
2581.00, 
2582.00, 
2583.00, 
2584.00, 
2585.00, 
2586.00, 
2587.00, 
2588.00, 
2589.00, 
2590.00, 
2591.00, 
2592.00, 
2593.00, 
2594.00, 
2595.00, 
2596.00, 
2597.00, 
2598.00, 
2599.00, 
2600.00, 
