"1bP2 - RawData"
"Wavelength nm.","T%"
200.00,0.004
201.00,0.001
202.00,0.004
203.00,0.003
204.00,0.002
205.00,-0.002
206.00,0.001
207.00,0.002
208.00,0.003
209.00,0.001
210.00,0.002
211.00,0.000
212.00,0.002
213.00,0.002
214.00,-0.001
215.00,-0.000
216.00,0.002
217.00,0.000
218.00,-0.001
219.00,0.001
220.00,0.004
221.00,0.002
222.00,0.003
223.00,0.002
224.00,0.001
225.00,0.000
226.00,0.002
227.00,0.002
228.00,0.001
229.00,0.002
230.00,-0.000
231.00,0.001
232.00,-0.001
233.00,-0.001
234.00,0.002
235.00,-0.000
236.00,-0.001
237.00,0.002
238.00,0.000
239.00,0.001
240.00,0.001
241.00,0.001
242.00,0.001
243.00,0.001
244.00,0.002
245.00,0.000
246.00,-0.000
247.00,0.000
248.00,-0.001
249.00,-0.000
250.00,0.000
251.00,0.002
252.00,0.001
253.00,0.001
254.00,0.000
255.00,0.001
256.00,0.001
257.00,0.001
258.00,0.002
259.00,-0.001
260.00,0.000
261.00,-0.001
262.00,-0.003
263.00,0.001
264.00,0.000
265.00,-0.001
266.00,0.000
267.00,-0.001
268.00,0.001
269.00,0.000
270.00,-0.001
271.00,0.001
272.00,0.000
273.00,0.001
274.00,0.001
275.00,-0.000
276.00,-0.000
277.00,0.001
278.00,0.000
279.00,0.001
280.00,0.000
281.00,0.000
282.00,0.001
283.00,0.001
284.00,-0.001
285.00,0.000
286.00,0.001
287.00,0.002
288.00,0.000
289.00,-0.001
290.00,0.001
291.00,-0.000
292.00,0.000
293.00,0.001
294.00,0.001
295.00,0.001
296.00,0.001
297.00,0.002
298.00,0.001
299.00,0.002
300.00,0.004
301.00,0.004
302.00,0.007
303.00,0.013
304.00,0.017
305.00,0.029
306.00,0.042
307.00,0.061
308.00,0.098
309.00,0.148
310.00,0.204
311.00,0.274
312.00,0.376
313.00,0.502
314.00,0.651
315.00,0.829
316.00,1.063
317.00,1.313
318.00,1.603
319.00,1.963
320.00,2.356
321.00,2.810
322.00,3.268
323.00,3.794
324.00,4.379
325.00,4.941
326.00,5.512
327.00,6.188
328.00,6.754
329.00,7.497
330.00,8.189
331.00,8.861
332.00,9.569
333.00,10.294
334.00,10.975
335.00,11.661
336.00,12.344
337.00,13.047
338.00,13.734
339.00,14.321
340.00,14.947
341.00,15.519
342.00,16.061
343.00,16.596
344.00,17.167
345.00,17.663
346.00,18.054
347.00,18.449
348.00,18.796
349.00,19.196
350.00,19.538
351.00,19.856
352.00,20.107
353.00,20.393
354.00,20.704
355.00,20.863
356.00,21.055
357.00,21.269
358.00,21.516
359.00,21.783
360.00,21.873
361.00,21.949
362.00,22.072
363.00,22.191
364.00,22.238
365.00,22.288
366.00,22.350
367.00,22.434
368.00,22.473
369.00,22.496
370.00,22.533
371.00,22.541
372.00,22.459
373.00,22.550
374.00,22.488
375.00,22.411
376.00,22.392
377.00,22.284
378.00,22.183
379.00,22.108
380.00,22.095
381.00,22.033
382.00,22.033
383.00,22.012
384.00,22.033
385.00,22.029
386.00,21.985
387.00,22.060
388.00,22.118
389.00,22.079
390.00,22.091
391.00,22.071
392.00,22.098
393.00,22.074
394.00,22.096
395.00,22.127
396.00,22.064
397.00,22.121
398.00,22.060
399.00,22.096
400.00,22.064
401.00,22.046
402.00,22.122
403.00,22.112
404.00,22.061
405.00,22.003
406.00,22.009
407.00,21.948
408.00,21.927
409.00,21.896
410.00,21.815
411.00,21.815
412.00,21.780
413.00,21.792
414.00,21.750
415.00,21.789
416.00,21.822
417.00,21.763
418.00,21.826
419.00,21.896
420.00,21.954
421.00,21.878
422.00,21.866
423.00,21.939
424.00,21.962
425.00,21.990
426.00,22.040
427.00,22.065
428.00,22.074
429.00,22.138
430.00,22.175
431.00,22.236
432.00,22.261
433.00,22.310
434.00,22.372
435.00,22.461
436.00,22.488
437.00,22.542
438.00,22.627
439.00,22.669
440.00,22.754
441.00,22.831
442.00,22.920
443.00,22.954
444.00,23.060
445.00,23.144
446.00,23.251
447.00,23.280
448.00,23.391
449.00,23.514
450.00,23.543
451.00,23.719
452.00,23.825
453.00,23.935
454.00,24.024
455.00,24.118
456.00,24.251
457.00,24.348
458.00,24.455
459.00,24.580
460.00,24.710
461.00,24.857
462.00,24.932
463.00,25.064
464.00,25.190
465.00,25.322
466.00,25.456
467.00,25.589
468.00,25.699
469.00,25.783
470.00,25.904
471.00,25.973
472.00,26.101
473.00,26.183
474.00,26.308
475.00,26.440
476.00,26.535
477.00,26.662
478.00,26.785
479.00,27.000
480.00,27.090
481.00,27.215
482.00,27.370
483.00,27.510
484.00,27.692
485.00,27.852
486.00,28.011
487.00,28.160
488.00,28.261
489.00,28.434
490.00,28.581
491.00,28.768
492.00,28.875
493.00,29.105
494.00,29.263
495.00,29.260
496.00,29.388
497.00,29.495
498.00,29.622
499.00,29.772
500.00,29.937
501.00,30.021
502.00,30.155
503.00,30.312
504.00,30.326
505.00,30.497
506.00,30.629
507.00,30.728
508.00,30.856
509.00,31.011
510.00,31.124
511.00,31.170
512.00,31.398
513.00,31.530
514.00,31.646
515.00,31.745
516.00,31.837
517.00,31.911
518.00,32.115
519.00,32.150
520.00,32.222
521.00,32.315
522.00,32.450
523.00,32.457
524.00,32.553
525.00,32.707
526.00,32.782
527.00,32.815
528.00,32.911
529.00,33.145
530.00,33.294
531.00,33.345
532.00,33.430
533.00,33.520
534.00,33.626
535.00,33.721
536.00,33.776
537.00,33.847
538.00,33.935
539.00,33.977
540.00,34.064
541.00,34.124
542.00,34.134
543.00,34.197
544.00,34.309
545.00,34.376
546.00,34.364
547.00,34.523
548.00,34.587
549.00,34.623
550.00,34.691
551.00,34.848
552.00,34.871
553.00,34.884
554.00,34.979
555.00,35.014
556.00,35.062
557.00,35.183
558.00,35.191
559.00,35.310
560.00,35.370
561.00,35.399
562.00,35.516
563.00,35.530
564.00,35.584
565.00,35.625
566.00,35.623
567.00,35.666
568.00,35.684
569.00,35.724
570.00,35.745
571.00,35.778
572.00,35.844
573.00,35.804
574.00,35.844
575.00,35.867
576.00,35.876
577.00,35.866
578.00,35.970
579.00,36.002
580.00,36.097
581.00,36.245
582.00,36.412
583.00,36.391
584.00,36.478
585.00,36.566
586.00,36.600
587.00,36.636
588.00,36.660
589.00,36.616
590.00,36.718
591.00,36.783
592.00,36.718
593.00,36.793
594.00,36.874
595.00,36.948
596.00,37.043
597.00,37.026
598.00,37.143
599.00,37.115
600.00,37.181
601.00,37.210
602.00,37.244
603.00,37.252
604.00,37.297
605.00,37.377
606.00,37.468
607.00,37.509
608.00,37.515
609.00,37.597
610.00,37.767
611.00,37.563
612.00,37.608
613.00,37.700
614.00,37.739
615.00,37.828
616.00,37.879
617.00,37.898
618.00,37.938
619.00,37.975
620.00,37.974
621.00,37.974
622.00,38.181
623.00,38.275
624.00,38.357
625.00,38.394
626.00,38.386
627.00,38.492
628.00,38.506
629.00,38.559
630.00,38.610
631.00,38.660
632.00,38.741
633.00,38.892
634.00,38.967
635.00,39.044
636.00,39.092
637.00,39.097
638.00,39.245
639.00,39.266
640.00,39.357
641.00,39.346
642.00,39.471
643.00,39.524
644.00,39.577
645.00,39.601
646.00,39.844
647.00,39.881
648.00,39.886
649.00,39.984
650.00,40.015
651.00,40.151
652.00,40.124
653.00,40.234
654.00,40.347
655.00,40.581
656.00,40.855
657.00,40.770
658.00,40.875
659.00,40.894
660.00,41.019
661.00,40.950
662.00,41.026
663.00,41.170
664.00,41.432
665.00,41.585
666.00,41.511
667.00,41.645
668.00,41.569
669.00,41.860
670.00,42.200
671.00,42.001
672.00,42.141
673.00,42.228
674.00,42.278
675.00,42.293
676.00,42.614
677.00,42.720
678.00,42.474
679.00,42.772
680.00,42.895
681.00,42.986
682.00,43.025
683.00,43.016
684.00,43.254
685.00,43.319
686.00,43.220
687.00,43.373
688.00,43.515
689.00,43.503
690.00,43.783
691.00,44.087
692.00,43.867
693.00,43.868
694.00,44.031
695.00,44.262
696.00,44.245
697.00,44.186
698.00,44.442
699.00,44.571
700.00,44.661
701.00,44.666
702.00,44.835
703.00,45.027
704.00,44.958
705.00,44.903
706.00,45.025
707.00,45.096
708.00,45.036
709.00,45.506
710.00,45.897
711.00,45.451
712.00,45.401
713.00,45.677
714.00,45.708
715.00,45.823
716.00,45.698
717.00,45.938
718.00,46.186
719.00,46.065
720.00,46.160
721.00,50.641
722.00,50.653
723.00,50.610
724.00,50.735
725.00,50.696
726.00,50.684
727.00,50.765
728.00,50.857
729.00,50.835
730.00,50.944
731.00,50.940
732.00,50.976
733.00,50.971
734.00,51.015
735.00,51.136
736.00,51.129
737.00,51.184
738.00,51.190
739.00,51.265
740.00,51.236
741.00,51.390
742.00,51.375
743.00,51.323
744.00,51.356
745.00,51.322
746.00,51.425
747.00,51.424
748.00,51.399
749.00,51.452
750.00,51.392
751.00,51.491
752.00,51.480
753.00,51.434
754.00,51.512
755.00,51.467
756.00,51.490
757.00,51.552
758.00,51.530
759.00,51.521
760.00,51.544
761.00,51.582
762.00,51.579
763.00,51.685
764.00,51.668
765.00,51.661
766.00,51.640
767.00,51.713
768.00,51.711
769.00,51.754
770.00,51.847
771.00,51.720
772.00,51.803
773.00,51.861
774.00,51.836
775.00,51.874
776.00,51.797
777.00,51.923
778.00,51.828
779.00,51.917
780.00,51.815
781.00,51.957
782.00,51.916
783.00,51.838
784.00,51.880
785.00,51.845
786.00,51.928
787.00,51.865
788.00,51.908
789.00,51.889
790.00,51.819
791.00,51.905
792.00,51.849
793.00,51.863
794.00,51.877
795.00,51.848
796.00,51.863
797.00,51.759
798.00,51.841
799.00,51.759
800.00,51.823
801.00,51.774
802.00,51.834
803.00,51.838
804.00,51.720
805.00,51.823
806.00,51.717
807.00,51.732
808.00,51.733
809.00,51.741
810.00,51.732
811.00,51.681
812.00,51.727
813.00,51.662
814.00,51.664
815.00,51.709
816.00,51.664
817.00,51.586
818.00,51.552
819.00,51.686
820.00,51.528
821.00,51.611
822.00,51.582
823.00,51.538
824.00,51.612
825.00,51.589
826.00,51.462
827.00,51.608
828.00,51.553
829.00,51.439
830.00,51.465
831.00,54.284
832.00,54.261
833.00,54.197
834.00,54.228
835.00,54.171
836.00,54.201
837.00,54.159
838.00,54.146
839.00,54.180
840.00,54.078
841.00,54.142
842.00,54.101
843.00,54.135
844.00,54.124
845.00,54.065
846.00,54.112
847.00,54.013
848.00,54.049
849.00,53.990
850.00,53.999
851.00,53.917
852.00,53.954
853.00,53.884
854.00,53.866
855.00,53.787
856.00,53.801
857.00,53.821
858.00,53.743
859.00,53.748
860.00,53.792
861.00,53.747
862.00,53.707
863.00,53.755
864.00,53.709
865.00,53.732
866.00,53.728
867.00,53.678
868.00,53.693
869.00,53.674
870.00,53.705
871.00,53.612
872.00,53.723
873.00,53.634
874.00,53.697
875.00,53.638
876.00,53.646
877.00,53.617
878.00,53.687
879.00,53.614
880.00,53.603
881.00,53.565
882.00,53.635
883.00,53.559
884.00,53.523
885.00,53.520
886.00,53.532
887.00,53.480
888.00,53.472
889.00,53.475
890.00,53.460
891.00,53.420
892.00,53.413
893.00,53.393
894.00,53.390
895.00,53.340
896.00,53.338
897.00,53.341
898.00,53.301
899.00,53.322
900.00,53.300
901.00,53.264
902.00,53.314
903.00,53.288
904.00,53.259
905.00,53.245
906.00,53.242
907.00,53.219
908.00,53.184
909.00,53.174
910.00,53.196
911.00,53.148
912.00,53.199
913.00,53.151
914.00,53.013
915.00,53.066
916.00,53.051
917.00,53.041
918.00,53.044
919.00,53.005
920.00,52.966
921.00,53.012
922.00,52.966
923.00,52.953
924.00,52.916
925.00,52.950
926.00,52.866
927.00,52.923
928.00,52.862
929.00,52.887
930.00,52.862
931.00,52.840
932.00,52.801
933.00,52.830
934.00,52.807
935.00,52.791
936.00,52.741
937.00,52.750
938.00,52.749
939.00,52.706
940.00,52.715
941.00,52.740
942.00,52.658
943.00,52.649
944.00,52.608
945.00,52.617
946.00,52.531
947.00,52.554
948.00,52.549
949.00,52.553
950.00,52.526
951.00,52.498
952.00,52.525
953.00,52.459
954.00,52.442
955.00,52.396
956.00,52.382
957.00,52.356
958.00,52.381
959.00,52.308
960.00,52.321
961.00,52.303
962.00,52.301
963.00,52.275
964.00,52.257
965.00,52.283
966.00,52.238
967.00,52.253
968.00,52.217
969.00,52.250
970.00,52.229
971.00,52.235
972.00,52.173
973.00,52.257
974.00,52.267
975.00,52.214
976.00,52.239
977.00,52.228
978.00,52.263
979.00,52.237
980.00,52.246
981.00,52.269
982.00,52.251
983.00,52.270
984.00,52.246
985.00,52.269
986.00,52.217
987.00,52.245
988.00,52.240
989.00,52.170
990.00,52.183
991.00,52.171
992.00,52.170
993.00,52.125
994.00,52.110
995.00,52.094
996.00,52.114
997.00,52.098
998.00,52.092
999.00,52.104
1000.00,52.046
1001.00,52.049
1002.00,52.044
1003.00,52.031
1004.00,52.022
1005.00,51.984
1006.00,52.032
1007.00,51.999
1008.00,51.973
1009.00,51.963
1010.00,51.961
1011.00,51.935
1012.00,51.925
1013.00,51.927
1014.00,51.880
1015.00,51.915
1016.00,51.867
1017.00,51.853
1018.00,51.864
1019.00,51.825
1020.00,51.818
1021.00,51.799
1022.00,51.784
1023.00,51.762
1024.00,51.787
1025.00,51.749
1026.00,51.753
1027.00,51.717
1028.00,51.716
1029.00,51.721
1030.00,51.656
1031.00,51.690
1032.00,51.643
1033.00,51.638
1034.00,51.618
1035.00,51.571
1036.00,51.549
1037.00,51.546
1038.00,51.535
1039.00,51.496
1040.00,51.504
1041.00,51.458
1042.00,51.473
1043.00,51.449
1044.00,51.469
1045.00,51.463
1046.00,51.452
1047.00,51.464
1048.00,51.494
1049.00,51.493
1050.00,51.480
1051.00,51.546
1052.00,51.530
1053.00,51.530
1054.00,51.529
1055.00,51.546
1056.00,51.566
1057.00,51.564
1058.00,51.548
1059.00,51.576
1060.00,51.570
1061.00,51.556
1062.00,51.566
1063.00,51.550
1064.00,51.566
1065.00,51.548
1066.00,51.537
1067.00,51.542
1068.00,51.568
1069.00,51.526
1070.00,51.504
1071.00,51.494
1072.00,51.508
1073.00,51.498
1074.00,51.470
1075.00,51.467
1076.00,51.471
1077.00,51.448
1078.00,51.446
1079.00,51.431
1080.00,51.417
1081.00,51.439
1082.00,51.427
1083.00,51.421
1084.00,51.415
1085.00,51.412
1086.00,51.397
1087.00,51.410
1088.00,51.388
1089.00,51.396
1090.00,51.375
1091.00,51.392
1092.00,51.386
1093.00,51.348
1094.00,51.330
1095.00,51.340
1096.00,51.300
1097.00,51.320
1098.00,51.322
1099.00,51.298
1100.00,51.298
1101.00,51.300
1102.00,51.261
1103.00,51.279
1104.00,51.250
1105.00,51.250
1106.00,51.246
1107.00,51.222
1108.00,51.245
1109.00,51.237
1110.00,51.223
1111.00,51.240
1112.00,51.198
1113.00,51.195
1114.00,51.180
1115.00,51.183
1116.00,51.169
1117.00,51.178
1118.00,51.154
1119.00,51.160
1120.00,51.157
1121.00,51.142
1122.00,51.136
1123.00,51.136
1124.00,51.121
1125.00,51.149
1126.00,51.111
1127.00,51.106
1128.00,51.102
1129.00,51.084
1130.00,51.072
1131.00,51.081
1132.00,51.051
1133.00,51.067
1134.00,51.059
1135.00,51.048
1136.00,51.046
1137.00,51.043
1138.00,51.051
1139.00,51.065
1140.00,51.047
1141.00,51.085
1142.00,51.027
1143.00,51.046
1144.00,51.027
1145.00,51.029
1146.00,51.029
1147.00,51.027
1148.00,51.013
1149.00,51.036
1150.00,51.031
1151.00,51.006
1152.00,51.018
1153.00,51.030
1154.00,51.000
1155.00,51.017
1156.00,51.004
1157.00,51.019
1158.00,51.007
1159.00,51.003
1160.00,51.006
1161.00,51.040
1162.00,51.007
1163.00,51.003
1164.00,51.019
1165.00,50.998
1166.00,51.004
1167.00,50.986
1168.00,50.999
1169.00,50.990
1170.00,50.973
1171.00,50.960
1172.00,50.985
1173.00,50.966
1174.00,50.989
1175.00,50.982
1176.00,50.972
1177.00,50.964
1178.00,50.977
1179.00,50.973
1180.00,50.972
1181.00,51.006
1182.00,50.965
1183.00,50.971
1184.00,50.971
1185.00,50.967
1186.00,50.967
1187.00,50.991
1188.00,50.982
1189.00,50.960
1190.00,50.958
1191.00,50.959
1192.00,50.978
1193.00,50.963
1194.00,50.987
1195.00,50.946
1196.00,50.978
1197.00,50.995
1198.00,50.949
1199.00,50.951
1200.00,50.973
1201.00,51.001
1202.00,50.990
1203.00,50.967
1204.00,50.955
1205.00,50.992
1206.00,50.963
1207.00,50.975
1208.00,50.966
1209.00,50.974
1210.00,50.979
1211.00,50.986
1212.00,50.996
1213.00,50.955
1214.00,50.985
1215.00,50.959
1216.00,50.987
1217.00,50.967
1218.00,50.949
1219.00,50.979
1220.00,50.945
1221.00,50.984
1222.00,50.964
1223.00,50.983
1224.00,50.988
1225.00,50.960
1226.00,50.958
1227.00,50.970
1228.00,50.972
1229.00,50.977
1230.00,51.014
1231.00,50.996
1232.00,51.039
1233.00,51.022
1234.00,51.009
1235.00,51.016
1236.00,51.009
1237.00,51.016
1238.00,51.019
1239.00,51.018
1240.00,51.010
1241.00,51.023
1242.00,51.017
1243.00,51.038
1244.00,51.009
1245.00,51.029
1246.00,51.034
1247.00,51.013
1248.00,51.016
1249.00,51.043
1250.00,51.041
1251.00,51.043
1252.00,51.061
1253.00,51.039
1254.00,51.087
1255.00,51.048
1256.00,51.036
1257.00,51.021
1258.00,51.058
1259.00,51.055
1260.00,51.090
1261.00,51.074
1262.00,51.088
1263.00,51.095
1264.00,51.069
1265.00,51.094
1266.00,51.096
1267.00,51.103
1268.00,51.129
1269.00,51.111
1270.00,51.133
1271.00,51.147
1272.00,51.124
1273.00,51.161
1274.00,51.149
1275.00,51.144
1276.00,51.162
1277.00,51.171
1278.00,51.169
1279.00,51.169
1280.00,51.149
1281.00,51.170
1282.00,51.192
1283.00,51.170
1284.00,51.183
1285.00,51.172
1286.00,51.193
1287.00,51.203
1288.00,51.190
1289.00,51.185
1290.00,51.223
1291.00,51.205
1292.00,51.200
1293.00,51.238
1294.00,51.243
1295.00,51.260
1296.00,51.271
1297.00,51.251
1298.00,51.301
1299.00,51.258
1300.00,51.267
1301.00,51.261
1302.00,51.270
1303.00,51.286
1304.00,51.289
1305.00,51.298
1306.00,51.332
1307.00,51.322
1308.00,51.336
1309.00,51.353
1310.00,51.309
1311.00,51.286
1312.00,51.312
1313.00,51.304
1314.00,51.320
1315.00,51.340
1316.00,51.325
1317.00,51.386
1318.00,51.384
1319.00,51.372
1320.00,51.391
1321.00,51.567
1322.00,51.538
1323.00,51.543
1324.00,51.537
1325.00,51.507
1326.00,51.546
1327.00,51.510
1328.00,51.506
1329.00,51.520
1330.00,51.481
1331.00,51.503
1332.00,51.501
1333.00,51.536
1334.00,51.567
1335.00,51.572
1336.00,51.631
1337.00,51.622
1338.00,51.683
1339.00,51.718
1340.00,51.794
1341.00,51.836
1342.00,51.914
1343.00,51.963
1344.00,52.005
1345.00,52.071
1346.00,52.104
1347.00,52.119
1348.00,52.174
1349.00,52.164
1350.00,52.199
1351.00,52.193
1352.00,52.205
1353.00,52.202
1354.00,52.231
1355.00,52.160
1356.00,52.201
1357.00,52.206
1358.00,52.243
1359.00,52.257
1360.00,52.247
1361.00,52.227
1362.00,52.211
1363.00,52.265
1364.00,52.280
1365.00,52.239
1366.00,52.312
1367.00,52.242
1368.00,52.223
1369.00,52.228
1370.00,52.226
1371.00,52.184
1372.00,52.187
1373.00,52.217
1374.00,52.215
1375.00,52.184
1376.00,52.216
1377.00,52.162
1378.00,52.286
1379.00,52.179
1380.00,52.186
1381.00,52.238
1382.00,52.073
1383.00,52.239
1384.00,52.158
1385.00,52.150
1386.00,52.188
1387.00,52.170
1388.00,52.110
1389.00,52.151
1390.00,52.155
1391.00,52.149
1392.00,52.184
1393.00,52.206
1394.00,52.237
1395.00,52.171
1396.00,52.108
1397.00,52.160
1398.00,52.207
1399.00,52.132
1400.00,52.122
1401.00,52.167
1402.00,52.266
1403.00,52.172
1404.00,52.174
1405.00,52.212
1406.00,52.243
1407.00,52.211
1408.00,52.216
1409.00,52.210
1410.00,52.254
1411.00,52.283
1412.00,52.324
1413.00,52.196
1414.00,52.220
1415.00,52.266
1416.00,52.278
1417.00,52.305
1418.00,52.251
1419.00,52.274
1420.00,52.315
1421.00,52.355
1422.00,52.347
1423.00,52.356
1424.00,52.337
1425.00,52.370
1426.00,52.366
1427.00,52.381
1428.00,52.391
1429.00,52.418
1430.00,52.439
1431.00,52.470
1432.00,52.451
1433.00,52.471
1434.00,52.459
1435.00,52.497
1436.00,52.520
1437.00,52.503
1438.00,52.522
1439.00,52.563
1440.00,52.553
1441.00,52.597
1442.00,52.587
1443.00,52.629
1444.00,52.710
1445.00,52.613
1446.00,52.644
1447.00,52.672
1448.00,52.693
1449.00,52.683
1450.00,52.703
1451.00,52.700
1452.00,52.733
1453.00,52.731
1454.00,52.731
1455.00,52.765
1456.00,52.775
1457.00,52.764
1458.00,52.802
1459.00,52.805
1460.00,52.853
1461.00,52.839
1462.00,52.866
1463.00,52.854
1464.00,52.886
1465.00,52.890
1466.00,52.912
1467.00,52.927
1468.00,52.980
1469.00,52.947
1470.00,52.962
1471.00,52.966
1472.00,52.975
1473.00,52.969
1474.00,53.017
1475.00,53.032
1476.00,53.025
1477.00,53.016
1478.00,53.062
1479.00,53.067
1480.00,53.080
1481.00,53.084
1482.00,53.113
1483.00,53.132
1484.00,53.137
1485.00,53.137
1486.00,53.155
1487.00,53.167
1488.00,53.201
1489.00,53.205
1490.00,53.219
1491.00,53.215
1492.00,53.224
1493.00,53.200
1494.00,53.262
1495.00,53.229
1496.00,53.262
1497.00,53.243
1498.00,53.263
1499.00,53.296
1500.00,53.290
1501.00, 
1502.00, 
1503.00, 
1504.00, 
1505.00, 
1506.00, 
1507.00, 
1508.00, 
1509.00, 
1510.00, 
1511.00, 
1512.00, 
1513.00, 
1514.00, 
1515.00, 
1516.00, 
1517.00, 
1518.00, 
1519.00, 
1520.00, 
1521.00, 
1522.00, 
1523.00, 
1524.00, 
1525.00, 
1526.00, 
1527.00, 
1528.00, 
1529.00, 
1530.00, 
1531.00, 
1532.00, 
1533.00, 
1534.00, 
1535.00, 
1536.00, 
1537.00, 
1538.00, 
1539.00, 
1540.00, 
1541.00, 
1542.00, 
1543.00, 
1544.00, 
1545.00, 
1546.00, 
1547.00, 
1548.00, 
1549.00, 
1550.00, 
1551.00, 
1552.00, 
1553.00, 
1554.00, 
1555.00, 
1556.00, 
1557.00, 
1558.00, 
1559.00, 
1560.00, 
1561.00, 
1562.00, 
1563.00, 
1564.00, 
1565.00, 
1566.00, 
1567.00, 
1568.00, 
1569.00, 
1570.00, 
1571.00, 
1572.00, 
1573.00, 
1574.00, 
1575.00, 
1576.00, 
1577.00, 
1578.00, 
1579.00, 
1580.00, 
1581.00, 
1582.00, 
1583.00, 
1584.00, 
1585.00, 
1586.00, 
1587.00, 
1588.00, 
1589.00, 
1590.00, 
1591.00, 
1592.00, 
1593.00, 
1594.00, 
1595.00, 
1596.00, 
1597.00, 
1598.00, 
1599.00, 
1600.00, 
1601.00, 
1602.00, 
1603.00, 
1604.00, 
1605.00, 
1606.00, 
1607.00, 
1608.00, 
1609.00, 
1610.00, 
1611.00, 
1612.00, 
1613.00, 
1614.00, 
1615.00, 
1616.00, 
1617.00, 
1618.00, 
1619.00, 
1620.00, 
1621.00, 
1622.00, 
1623.00, 
1624.00, 
1625.00, 
1626.00, 
1627.00, 
1628.00, 
1629.00, 
1630.00, 
1631.00, 
1632.00, 
1633.00, 
1634.00, 
1635.00, 
1636.00, 
1637.00, 
1638.00, 
1639.00, 
1640.00, 
1641.00, 
1642.00, 
1643.00, 
1644.00, 
1645.00, 
1646.00, 
1647.00, 
1648.00, 
1649.00, 
1650.00, 
1651.00, 
1652.00, 
1653.00, 
1654.00, 
1655.00, 
1656.00, 
1657.00, 
1658.00, 
1659.00, 
1660.00, 
1661.00, 
1662.00, 
1663.00, 
1664.00, 
1665.00, 
1666.00, 
1667.00, 
1668.00, 
1669.00, 
1670.00, 
1671.00, 
1672.00, 
1673.00, 
1674.00, 
1675.00, 
1676.00, 
1677.00, 
1678.00, 
1679.00, 
1680.00, 
1681.00, 
1682.00, 
1683.00, 
1684.00, 
1685.00, 
1686.00, 
1687.00, 
1688.00, 
1689.00, 
1690.00, 
1691.00, 
1692.00, 
1693.00, 
1694.00, 
1695.00, 
1696.00, 
1697.00, 
1698.00, 
1699.00, 
1700.00, 
1701.00, 
1702.00, 
1703.00, 
1704.00, 
1705.00, 
1706.00, 
1707.00, 
1708.00, 
1709.00, 
1710.00, 
1711.00, 
1712.00, 
1713.00, 
1714.00, 
1715.00, 
1716.00, 
1717.00, 
1718.00, 
1719.00, 
1720.00, 
1721.00, 
1722.00, 
1723.00, 
1724.00, 
1725.00, 
1726.00, 
1727.00, 
1728.00, 
1729.00, 
1730.00, 
1731.00, 
1732.00, 
1733.00, 
1734.00, 
1735.00, 
1736.00, 
1737.00, 
1738.00, 
1739.00, 
1740.00, 
1741.00, 
1742.00, 
1743.00, 
1744.00, 
1745.00, 
1746.00, 
1747.00, 
1748.00, 
1749.00, 
1750.00, 
1751.00, 
1752.00, 
1753.00, 
1754.00, 
1755.00, 
1756.00, 
1757.00, 
1758.00, 
1759.00, 
1760.00, 
1761.00, 
1762.00, 
1763.00, 
1764.00, 
1765.00, 
1766.00, 
1767.00, 
1768.00, 
1769.00, 
1770.00, 
1771.00, 
1772.00, 
1773.00, 
1774.00, 
1775.00, 
1776.00, 
1777.00, 
1778.00, 
1779.00, 
1780.00, 
1781.00, 
1782.00, 
1783.00, 
1784.00, 
1785.00, 
1786.00, 
1787.00, 
1788.00, 
1789.00, 
1790.00, 
1791.00, 
1792.00, 
1793.00, 
1794.00, 
1795.00, 
1796.00, 
1797.00, 
1798.00, 
1799.00, 
1800.00, 
1801.00, 
1802.00, 
1803.00, 
1804.00, 
1805.00, 
1806.00, 
1807.00, 
1808.00, 
1809.00, 
1810.00, 
1811.00, 
1812.00, 
1813.00, 
1814.00, 
1815.00, 
1816.00, 
1817.00, 
1818.00, 
1819.00, 
1820.00, 
1821.00, 
1822.00, 
1823.00, 
1824.00, 
1825.00, 
1826.00, 
1827.00, 
1828.00, 
1829.00, 
1830.00, 
1831.00, 
1832.00, 
1833.00, 
1834.00, 
1835.00, 
1836.00, 
1837.00, 
1838.00, 
1839.00, 
1840.00, 
1841.00, 
1842.00, 
1843.00, 
1844.00, 
1845.00, 
1846.00, 
1847.00, 
1848.00, 
1849.00, 
1850.00, 
1851.00, 
1852.00, 
1853.00, 
1854.00, 
1855.00, 
1856.00, 
1857.00, 
1858.00, 
1859.00, 
1860.00, 
1861.00, 
1862.00, 
1863.00, 
1864.00, 
1865.00, 
1866.00, 
1867.00, 
1868.00, 
1869.00, 
1870.00, 
1871.00, 
1872.00, 
1873.00, 
1874.00, 
1875.00, 
1876.00, 
1877.00, 
1878.00, 
1879.00, 
1880.00, 
1881.00, 
1882.00, 
1883.00, 
1884.00, 
1885.00, 
1886.00, 
1887.00, 
1888.00, 
1889.00, 
1890.00, 
1891.00, 
1892.00, 
1893.00, 
1894.00, 
1895.00, 
1896.00, 
1897.00, 
1898.00, 
1899.00, 
1900.00, 
1901.00, 
1902.00, 
1903.00, 
1904.00, 
1905.00, 
1906.00, 
1907.00, 
1908.00, 
1909.00, 
1910.00, 
1911.00, 
1912.00, 
1913.00, 
1914.00, 
1915.00, 
1916.00, 
1917.00, 
1918.00, 
1919.00, 
1920.00, 
1921.00, 
1922.00, 
1923.00, 
1924.00, 
1925.00, 
1926.00, 
1927.00, 
1928.00, 
1929.00, 
1930.00, 
1931.00, 
1932.00, 
1933.00, 
1934.00, 
1935.00, 
1936.00, 
1937.00, 
1938.00, 
1939.00, 
1940.00, 
1941.00, 
1942.00, 
1943.00, 
1944.00, 
1945.00, 
1946.00, 
1947.00, 
1948.00, 
1949.00, 
1950.00, 
1951.00, 
1952.00, 
1953.00, 
1954.00, 
1955.00, 
1956.00, 
1957.00, 
1958.00, 
1959.00, 
1960.00, 
1961.00, 
1962.00, 
1963.00, 
1964.00, 
1965.00, 
1966.00, 
1967.00, 
1968.00, 
1969.00, 
1970.00, 
1971.00, 
1972.00, 
1973.00, 
1974.00, 
1975.00, 
1976.00, 
1977.00, 
1978.00, 
1979.00, 
1980.00, 
1981.00, 
1982.00, 
1983.00, 
1984.00, 
1985.00, 
1986.00, 
1987.00, 
1988.00, 
1989.00, 
1990.00, 
1991.00, 
1992.00, 
1993.00, 
1994.00, 
1995.00, 
1996.00, 
1997.00, 
1998.00, 
1999.00, 
2000.00, 
2001.00, 
2002.00, 
2003.00, 
2004.00, 
2005.00, 
2006.00, 
2007.00, 
2008.00, 
2009.00, 
2010.00, 
2011.00, 
2012.00, 
2013.00, 
2014.00, 
2015.00, 
2016.00, 
2017.00, 
2018.00, 
2019.00, 
2020.00, 
2021.00, 
2022.00, 
2023.00, 
2024.00, 
2025.00, 
2026.00, 
2027.00, 
2028.00, 
2029.00, 
2030.00, 
2031.00, 
2032.00, 
2033.00, 
2034.00, 
2035.00, 
2036.00, 
2037.00, 
2038.00, 
2039.00, 
2040.00, 
2041.00, 
2042.00, 
2043.00, 
2044.00, 
2045.00, 
2046.00, 
2047.00, 
2048.00, 
2049.00, 
2050.00, 
2051.00, 
2052.00, 
2053.00, 
2054.00, 
2055.00, 
2056.00, 
2057.00, 
2058.00, 
2059.00, 
2060.00, 
2061.00, 
2062.00, 
2063.00, 
2064.00, 
2065.00, 
2066.00, 
2067.00, 
2068.00, 
2069.00, 
2070.00, 
2071.00, 
2072.00, 
2073.00, 
2074.00, 
2075.00, 
2076.00, 
2077.00, 
2078.00, 
2079.00, 
2080.00, 
2081.00, 
2082.00, 
2083.00, 
2084.00, 
2085.00, 
2086.00, 
2087.00, 
2088.00, 
2089.00, 
2090.00, 
2091.00, 
2092.00, 
2093.00, 
2094.00, 
2095.00, 
2096.00, 
2097.00, 
2098.00, 
2099.00, 
2100.00, 
2101.00, 
2102.00, 
2103.00, 
2104.00, 
2105.00, 
2106.00, 
2107.00, 
2108.00, 
2109.00, 
2110.00, 
2111.00, 
2112.00, 
2113.00, 
2114.00, 
2115.00, 
2116.00, 
2117.00, 
2118.00, 
2119.00, 
2120.00, 
2121.00, 
2122.00, 
2123.00, 
2124.00, 
2125.00, 
2126.00, 
2127.00, 
2128.00, 
2129.00, 
2130.00, 
2131.00, 
2132.00, 
2133.00, 
2134.00, 
2135.00, 
2136.00, 
2137.00, 
2138.00, 
2139.00, 
2140.00, 
2141.00, 
2142.00, 
2143.00, 
2144.00, 
2145.00, 
2146.00, 
2147.00, 
2148.00, 
2149.00, 
2150.00, 
2151.00, 
2152.00, 
2153.00, 
2154.00, 
2155.00, 
2156.00, 
2157.00, 
2158.00, 
2159.00, 
2160.00, 
2161.00, 
2162.00, 
2163.00, 
2164.00, 
2165.00, 
2166.00, 
2167.00, 
2168.00, 
2169.00, 
2170.00, 
2171.00, 
2172.00, 
2173.00, 
2174.00, 
2175.00, 
2176.00, 
2177.00, 
2178.00, 
2179.00, 
2180.00, 
2181.00, 
2182.00, 
2183.00, 
2184.00, 
2185.00, 
2186.00, 
2187.00, 
2188.00, 
2189.00, 
2190.00, 
2191.00, 
2192.00, 
2193.00, 
2194.00, 
2195.00, 
2196.00, 
2197.00, 
2198.00, 
2199.00, 
2200.00, 
2201.00, 
2202.00, 
2203.00, 
2204.00, 
2205.00, 
2206.00, 
2207.00, 
2208.00, 
2209.00, 
2210.00, 
2211.00, 
2212.00, 
2213.00, 
2214.00, 
2215.00, 
2216.00, 
2217.00, 
2218.00, 
2219.00, 
2220.00, 
2221.00, 
2222.00, 
2223.00, 
2224.00, 
2225.00, 
2226.00, 
2227.00, 
2228.00, 
2229.00, 
2230.00, 
2231.00, 
2232.00, 
2233.00, 
2234.00, 
2235.00, 
2236.00, 
2237.00, 
2238.00, 
2239.00, 
2240.00, 
2241.00, 
2242.00, 
2243.00, 
2244.00, 
2245.00, 
2246.00, 
2247.00, 
2248.00, 
2249.00, 
2250.00, 
2251.00, 
2252.00, 
2253.00, 
2254.00, 
2255.00, 
2256.00, 
2257.00, 
2258.00, 
2259.00, 
2260.00, 
2261.00, 
2262.00, 
2263.00, 
2264.00, 
2265.00, 
2266.00, 
2267.00, 
2268.00, 
2269.00, 
2270.00, 
2271.00, 
2272.00, 
2273.00, 
2274.00, 
2275.00, 
2276.00, 
2277.00, 
2278.00, 
2279.00, 
2280.00, 
2281.00, 
2282.00, 
2283.00, 
2284.00, 
2285.00, 
2286.00, 
2287.00, 
2288.00, 
2289.00, 
2290.00, 
2291.00, 
2292.00, 
2293.00, 
2294.00, 
2295.00, 
2296.00, 
2297.00, 
2298.00, 
2299.00, 
2300.00, 
2301.00, 
2302.00, 
2303.00, 
2304.00, 
2305.00, 
2306.00, 
2307.00, 
2308.00, 
2309.00, 
2310.00, 
2311.00, 
2312.00, 
2313.00, 
2314.00, 
2315.00, 
2316.00, 
2317.00, 
2318.00, 
2319.00, 
2320.00, 
2321.00, 
2322.00, 
2323.00, 
2324.00, 
2325.00, 
2326.00, 
2327.00, 
2328.00, 
2329.00, 
2330.00, 
2331.00, 
2332.00, 
2333.00, 
2334.00, 
2335.00, 
2336.00, 
2337.00, 
2338.00, 
2339.00, 
2340.00, 
2341.00, 
2342.00, 
2343.00, 
2344.00, 
2345.00, 
2346.00, 
2347.00, 
2348.00, 
2349.00, 
2350.00, 
2351.00, 
2352.00, 
2353.00, 
2354.00, 
2355.00, 
2356.00, 
2357.00, 
2358.00, 
2359.00, 
2360.00, 
2361.00, 
2362.00, 
2363.00, 
2364.00, 
2365.00, 
2366.00, 
2367.00, 
2368.00, 
2369.00, 
2370.00, 
2371.00, 
2372.00, 
2373.00, 
2374.00, 
2375.00, 
2376.00, 
2377.00, 
2378.00, 
2379.00, 
2380.00, 
2381.00, 
2382.00, 
2383.00, 
2384.00, 
2385.00, 
2386.00, 
2387.00, 
2388.00, 
2389.00, 
2390.00, 
2391.00, 
2392.00, 
2393.00, 
2394.00, 
2395.00, 
2396.00, 
2397.00, 
2398.00, 
2399.00, 
2400.00, 
2401.00, 
2402.00, 
2403.00, 
2404.00, 
2405.00, 
2406.00, 
2407.00, 
2408.00, 
2409.00, 
2410.00, 
2411.00, 
2412.00, 
2413.00, 
2414.00, 
2415.00, 
2416.00, 
2417.00, 
2418.00, 
2419.00, 
2420.00, 
2421.00, 
2422.00, 
2423.00, 
2424.00, 
2425.00, 
2426.00, 
2427.00, 
2428.00, 
2429.00, 
2430.00, 
2431.00, 
2432.00, 
2433.00, 
2434.00, 
2435.00, 
2436.00, 
2437.00, 
2438.00, 
2439.00, 
2440.00, 
2441.00, 
2442.00, 
2443.00, 
2444.00, 
2445.00, 
2446.00, 
2447.00, 
2448.00, 
2449.00, 
2450.00, 
2451.00, 
2452.00, 
2453.00, 
2454.00, 
2455.00, 
2456.00, 
2457.00, 
2458.00, 
2459.00, 
2460.00, 
2461.00, 
2462.00, 
2463.00, 
2464.00, 
2465.00, 
2466.00, 
2467.00, 
2468.00, 
2469.00, 
2470.00, 
2471.00, 
2472.00, 
2473.00, 
2474.00, 
2475.00, 
2476.00, 
2477.00, 
2478.00, 
2479.00, 
2480.00, 
2481.00, 
2482.00, 
2483.00, 
2484.00, 
2485.00, 
2486.00, 
2487.00, 
2488.00, 
2489.00, 
2490.00, 
2491.00, 
2492.00, 
2493.00, 
2494.00, 
2495.00, 
2496.00, 
2497.00, 
2498.00, 
2499.00, 
2500.00, 
2501.00, 
2502.00, 
2503.00, 
2504.00, 
2505.00, 
2506.00, 
2507.00, 
2508.00, 
2509.00, 
2510.00, 
2511.00, 
2512.00, 
2513.00, 
2514.00, 
2515.00, 
2516.00, 
2517.00, 
2518.00, 
2519.00, 
2520.00, 
2521.00, 
2522.00, 
2523.00, 
2524.00, 
2525.00, 
2526.00, 
2527.00, 
2528.00, 
2529.00, 
2530.00, 
2531.00, 
2532.00, 
2533.00, 
2534.00, 
2535.00, 
2536.00, 
2537.00, 
2538.00, 
2539.00, 
2540.00, 
2541.00, 
2542.00, 
2543.00, 
2544.00, 
2545.00, 
2546.00, 
2547.00, 
2548.00, 
2549.00, 
2550.00, 
2551.00, 
2552.00, 
2553.00, 
2554.00, 
2555.00, 
2556.00, 
2557.00, 
2558.00, 
2559.00, 
2560.00, 
2561.00, 
2562.00, 
2563.00, 
2564.00, 
2565.00, 
2566.00, 
2567.00, 
2568.00, 
2569.00, 
2570.00, 
2571.00, 
2572.00, 
2573.00, 
2574.00, 
2575.00, 
2576.00, 
2577.00, 
2578.00, 
2579.00, 
2580.00, 
2581.00, 
2582.00, 
2583.00, 
2584.00, 
2585.00, 
2586.00, 
2587.00, 
2588.00, 
2589.00, 
2590.00, 
2591.00, 
2592.00, 
2593.00, 
2594.00, 
2595.00, 
2596.00, 
2597.00, 
2598.00, 
2599.00, 
2600.00, 
