"1cP1 - RawData"
"Wavelength nm.","T%"
200.00,0.002
201.00,0.001
202.00,0.002
203.00,0.002
204.00,0.000
205.00,0.002
206.00,0.002
207.00,-0.000
208.00,0.002
209.00,0.002
210.00,0.002
211.00,-0.000
212.00,0.000
213.00,0.001
214.00,-0.000
215.00,0.000
216.00,-0.003
217.00,0.003
218.00,0.001
219.00,0.001
220.00,0.000
221.00,0.001
222.00,0.002
223.00,0.003
224.00,0.003
225.00,0.003
226.00,-0.000
227.00,-0.001
228.00,0.001
229.00,0.002
230.00,0.001
231.00,-0.000
232.00,-0.000
233.00,-0.000
234.00,0.000
235.00,0.002
236.00,0.002
237.00,-0.000
238.00,0.002
239.00,0.001
240.00,0.002
241.00,-0.001
242.00,0.001
243.00,0.001
244.00,0.001
245.00,-0.001
246.00,0.001
247.00,0.001
248.00,0.002
249.00,0.001
250.00,0.001
251.00,0.001
252.00,0.001
253.00,0.001
254.00,0.001
255.00,-0.001
256.00,0.002
257.00,0.001
258.00,-0.001
259.00,0.000
260.00,-0.000
261.00,0.003
262.00,0.000
263.00,0.001
264.00,-0.001
265.00,-0.001
266.00,0.001
267.00,0.001
268.00,0.001
269.00,0.002
270.00,0.001
271.00,-0.001
272.00,-0.000
273.00,0.000
274.00,0.001
275.00,-0.000
276.00,0.001
277.00,0.001
278.00,-0.001
279.00,0.001
280.00,-0.001
281.00,0.001
282.00,0.002
283.00,0.000
284.00,-0.001
285.00,0.000
286.00,-0.001
287.00,-0.001
288.00,-0.001
289.00,0.000
290.00,-0.000
291.00,-0.001
292.00,-0.000
293.00,-0.002
294.00,0.001
295.00,0.000
296.00,-0.000
297.00,-0.001
298.00,0.000
299.00,-0.000
300.00,-0.000
301.00,0.000
302.00,0.000
303.00,0.001
304.00,-0.001
305.00,0.001
306.00,0.002
307.00,0.002
308.00,0.005
309.00,0.010
310.00,0.013
311.00,0.019
312.00,0.030
313.00,0.047
314.00,0.072
315.00,0.109
316.00,0.153
317.00,0.215
318.00,0.298
319.00,0.403
320.00,0.525
321.00,0.681
322.00,0.866
323.00,1.097
324.00,1.348
325.00,1.623
326.00,1.926
327.00,2.301
328.00,2.637
329.00,3.057
330.00,3.514
331.00,3.961
332.00,4.442
333.00,4.967
334.00,5.436
335.00,6.018
336.00,6.558
337.00,7.104
338.00,7.644
339.00,8.128
340.00,8.674
341.00,9.196
342.00,9.676
343.00,10.161
344.00,10.664
345.00,11.090
346.00,11.488
347.00,11.867
348.00,12.269
349.00,12.641
350.00,12.930
351.00,13.225
352.00,13.511
353.00,13.797
354.00,14.071
355.00,14.283
356.00,14.521
357.00,14.683
358.00,14.921
359.00,15.180
360.00,15.240
361.00,15.396
362.00,15.511
363.00,15.616
364.00,15.668
365.00,15.733
366.00,15.793
367.00,15.867
368.00,15.907
369.00,15.937
370.00,15.962
371.00,15.944
372.00,15.875
373.00,15.941
374.00,15.892
375.00,15.796
376.00,15.761
377.00,15.651
378.00,15.565
379.00,15.480
380.00,15.463
381.00,15.387
382.00,15.385
383.00,15.409
384.00,15.428
385.00,15.438
386.00,15.431
387.00,15.479
388.00,15.572
389.00,15.508
390.00,15.570
391.00,15.571
392.00,15.527
393.00,15.543
394.00,15.520
395.00,15.616
396.00,15.559
397.00,15.593
398.00,15.544
399.00,15.561
400.00,15.560
401.00,15.516
402.00,15.569
403.00,15.567
404.00,15.531
405.00,15.504
406.00,15.489
407.00,15.439
408.00,15.425
409.00,15.370
410.00,15.322
411.00,15.327
412.00,15.267
413.00,15.280
414.00,15.261
415.00,15.252
416.00,15.274
417.00,15.279
418.00,15.287
419.00,15.349
420.00,15.364
421.00,15.322
422.00,15.317
423.00,15.384
424.00,15.408
425.00,15.427
426.00,15.431
427.00,15.474
428.00,15.501
429.00,15.545
430.00,15.584
431.00,15.647
432.00,15.675
433.00,15.703
434.00,15.761
435.00,15.830
436.00,15.879
437.00,15.916
438.00,15.980
439.00,16.040
440.00,16.104
441.00,16.172
442.00,16.274
443.00,16.303
444.00,16.389
445.00,16.474
446.00,16.563
447.00,16.615
448.00,16.715
449.00,16.824
450.00,16.905
451.00,17.001
452.00,17.115
453.00,17.220
454.00,17.296
455.00,17.405
456.00,17.518
457.00,17.617
458.00,17.713
459.00,17.876
460.00,17.975
461.00,18.112
462.00,18.197
463.00,18.333
464.00,18.459
465.00,18.566
466.00,18.701
467.00,18.813
468.00,18.913
469.00,19.046
470.00,19.158
471.00,19.247
472.00,19.379
473.00,19.471
474.00,19.586
475.00,19.707
476.00,19.829
477.00,19.950
478.00,20.058
479.00,20.255
480.00,20.346
481.00,20.512
482.00,20.671
483.00,20.818
484.00,20.979
485.00,21.127
486.00,21.269
487.00,21.415
488.00,21.574
489.00,21.728
490.00,21.891
491.00,22.014
492.00,22.171
493.00,22.363
494.00,22.534
495.00,22.564
496.00,22.713
497.00,22.811
498.00,22.978
499.00,23.130
500.00,23.235
501.00,23.356
502.00,23.541
503.00,23.649
504.00,23.698
505.00,23.921
506.00,24.024
507.00,24.174
508.00,24.284
509.00,24.462
510.00,24.574
511.00,24.658
512.00,24.906
513.00,25.001
514.00,25.118
515.00,25.275
516.00,25.351
517.00,25.473
518.00,25.648
519.00,25.690
520.00,25.777
521.00,25.911
522.00,26.032
523.00,26.111
524.00,26.213
525.00,26.322
526.00,26.446
527.00,26.520
528.00,26.607
529.00,26.797
530.00,26.949
531.00,27.081
532.00,27.107
533.00,27.269
534.00,27.364
535.00,27.435
536.00,27.544
537.00,27.614
538.00,27.726
539.00,27.778
540.00,27.884
541.00,27.973
542.00,28.009
543.00,28.100
544.00,28.204
545.00,28.269
546.00,28.308
547.00,28.478
548.00,28.529
549.00,28.596
550.00,28.685
551.00,28.820
552.00,28.867
553.00,28.900
554.00,29.039
555.00,29.067
556.00,29.137
557.00,29.221
558.00,29.259
559.00,29.375
560.00,29.457
561.00,29.491
562.00,29.610
563.00,29.637
564.00,29.676
565.00,29.723
566.00,29.796
567.00,29.827
568.00,29.851
569.00,29.908
570.00,29.964
571.00,30.035
572.00,30.080
573.00,30.096
574.00,30.127
575.00,30.171
576.00,30.190
577.00,30.263
578.00,30.336
579.00,30.363
580.00,30.403
581.00,30.579
582.00,30.690
583.00,30.660
584.00,30.761
585.00,30.850
586.00,30.906
587.00,30.956
588.00,30.968
589.00,30.955
590.00,31.079
591.00,31.090
592.00,31.082
593.00,31.179
594.00,31.280
595.00,31.367
596.00,31.421
597.00,31.450
598.00,31.552
599.00,31.552
600.00,31.606
601.00,31.673
602.00,31.726
603.00,31.760
604.00,31.816
605.00,31.860
606.00,31.978
607.00,31.984
608.00,32.057
609.00,32.160
610.00,32.288
611.00,32.162
612.00,32.204
613.00,32.227
614.00,32.300
615.00,32.441
616.00,32.515
617.00,32.510
618.00,32.581
619.00,32.623
620.00,32.569
621.00,32.743
622.00,32.863
623.00,32.928
624.00,33.022
625.00,33.095
626.00,33.157
627.00,33.213
628.00,33.254
629.00,33.330
630.00,33.401
631.00,33.417
632.00,33.565
633.00,33.649
634.00,33.779
635.00,33.885
636.00,33.912
637.00,34.010
638.00,34.087
639.00,34.153
640.00,34.250
641.00,34.257
642.00,34.413
643.00,34.503
644.00,34.559
645.00,34.617
646.00,34.806
647.00,34.906
648.00,34.997
649.00,35.020
650.00,35.111
651.00,35.261
652.00,35.368
653.00,35.339
654.00,35.535
655.00,35.647
656.00,35.998
657.00,35.839
658.00,36.069
659.00,36.146
660.00,36.216
661.00,36.240
662.00,36.357
663.00,36.501
664.00,36.800
665.00,36.933
666.00,36.877
667.00,37.025
668.00,37.075
669.00,37.359
670.00,37.587
671.00,37.479
672.00,37.598
673.00,37.705
674.00,37.866
675.00,37.990
676.00,38.215
677.00,38.393
678.00,38.208
679.00,38.363
680.00,38.567
681.00,38.732
682.00,38.851
683.00,38.908
684.00,39.076
685.00,39.217
686.00,39.081
687.00,39.275
688.00,39.486
689.00,39.559
690.00,39.857
691.00,40.076
692.00,39.867
693.00,39.904
694.00,40.143
695.00,40.346
696.00,40.471
697.00,40.393
698.00,40.625
699.00,40.903
700.00,40.885
701.00,40.828
702.00,41.109
703.00,41.313
704.00,41.382
705.00,41.360
706.00,41.415
707.00,41.394
708.00,41.630
709.00,42.263
710.00,42.348
711.00,42.079
712.00,42.121
713.00,42.311
714.00,42.473
715.00,42.439
716.00,42.510
717.00,42.712
718.00,42.875
719.00,42.841
720.00,42.977
721.00,47.296
722.00,47.329
723.00,47.400
724.00,47.430
725.00,47.412
726.00,47.502
727.00,47.585
728.00,47.671
729.00,47.726
730.00,47.792
731.00,47.832
732.00,47.933
733.00,48.033
734.00,47.927
735.00,48.198
736.00,48.118
737.00,48.277
738.00,48.239
739.00,48.317
740.00,48.395
741.00,48.515
742.00,48.504
743.00,48.592
744.00,48.550
745.00,48.628
746.00,48.717
747.00,48.705
748.00,48.718
749.00,48.777
750.00,48.817
751.00,48.817
752.00,48.881
753.00,48.918
754.00,48.909
755.00,48.860
756.00,48.938
757.00,49.017
758.00,49.067
759.00,49.028
760.00,49.068
761.00,49.165
762.00,49.127
763.00,49.240
764.00,49.245
765.00,49.304
766.00,49.302
767.00,49.382
768.00,49.363
769.00,49.389
770.00,49.488
771.00,49.418
772.00,49.508
773.00,49.571
774.00,49.624
775.00,49.605
776.00,49.567
777.00,49.649
778.00,49.596
779.00,49.742
780.00,49.651
781.00,49.675
782.00,49.730
783.00,49.680
784.00,49.802
785.00,49.702
786.00,49.771
787.00,49.789
788.00,49.807
789.00,49.763
790.00,49.738
791.00,49.777
792.00,49.732
793.00,49.752
794.00,49.849
795.00,49.714
796.00,49.777
797.00,49.734
798.00,49.810
799.00,49.790
800.00,49.784
801.00,49.744
802.00,49.786
803.00,49.781
804.00,49.705
805.00,49.876
806.00,49.805
807.00,49.771
808.00,49.790
809.00,49.822
810.00,49.755
811.00,49.767
812.00,49.805
813.00,49.669
814.00,49.784
815.00,49.740
816.00,49.745
817.00,49.713
818.00,49.650
819.00,49.796
820.00,49.576
821.00,49.748
822.00,49.681
823.00,49.658
824.00,49.661
825.00,49.642
826.00,49.564
827.00,49.771
828.00,49.654
829.00,49.676
830.00,49.675
831.00,52.062
832.00,52.031
833.00,51.975
834.00,52.023
835.00,51.958
836.00,51.994
837.00,51.948
838.00,51.928
839.00,51.981
840.00,51.882
841.00,51.918
842.00,51.865
843.00,51.905
844.00,51.873
845.00,51.834
846.00,51.869
847.00,51.801
848.00,51.826
849.00,51.770
850.00,51.777
851.00,51.697
852.00,51.717
853.00,51.802
854.00,51.686
855.00,51.618
856.00,51.659
857.00,51.643
858.00,51.599
859.00,51.563
860.00,51.608
861.00,51.575
862.00,51.515
863.00,51.558
864.00,51.534
865.00,51.558
866.00,51.529
867.00,51.523
868.00,51.500
869.00,51.484
870.00,51.526
871.00,51.493
872.00,51.487
873.00,51.441
874.00,51.501
875.00,51.442
876.00,51.431
877.00,51.420
878.00,51.459
879.00,51.401
880.00,51.420
881.00,51.367
882.00,51.414
883.00,51.479
884.00,51.325
885.00,51.335
886.00,51.322
887.00,51.302
888.00,51.271
889.00,51.277
890.00,51.261
891.00,51.233
892.00,51.208
893.00,51.193
894.00,51.181
895.00,51.154
896.00,51.147
897.00,51.141
898.00,51.124
899.00,51.116
900.00,51.101
901.00,51.085
902.00,51.093
903.00,51.081
904.00,51.065
905.00,51.062
906.00,51.058
907.00,51.022
908.00,51.000
909.00,50.970
910.00,50.976
911.00,50.959
912.00,50.920
913.00,50.950
914.00,50.819
915.00,50.873
916.00,50.864
917.00,50.841
918.00,50.840
919.00,50.807
920.00,50.767
921.00,50.783
922.00,50.752
923.00,50.732
924.00,50.691
925.00,50.703
926.00,50.694
927.00,50.668
928.00,50.637
929.00,50.647
930.00,50.610
931.00,50.580
932.00,50.548
933.00,50.565
934.00,50.562
935.00,50.558
936.00,50.512
937.00,50.484
938.00,50.553
939.00,50.496
940.00,50.441
941.00,50.451
942.00,50.411
943.00,50.419
944.00,50.383
945.00,50.383
946.00,50.296
947.00,50.322
948.00,50.300
949.00,50.292
950.00,50.269
951.00,50.246
952.00,50.251
953.00,50.247
954.00,50.186
955.00,50.147
956.00,50.131
957.00,50.102
958.00,50.129
959.00,50.068
960.00,50.072
961.00,50.059
962.00,50.050
963.00,50.024
964.00,50.007
965.00,50.030
966.00,49.996
967.00,49.990
968.00,49.962
969.00,50.000
970.00,49.956
971.00,49.970
972.00,49.934
973.00,49.972
974.00,50.004
975.00,49.962
976.00,49.986
977.00,49.958
978.00,50.028
979.00,49.974
980.00,49.976
981.00,49.989
982.00,49.960
983.00,49.959
984.00,49.988
985.00,49.976
986.00,49.931
987.00,49.960
988.00,49.923
989.00,49.900
990.00,49.902
991.00,49.884
992.00,49.902
993.00,49.876
994.00,49.860
995.00,49.847
996.00,49.864
997.00,49.821
998.00,49.798
999.00,49.838
1000.00,49.774
1001.00,49.777
1002.00,49.772
1003.00,49.751
1004.00,49.755
1005.00,49.719
1006.00,49.752
1007.00,49.713
1008.00,49.688
1009.00,49.680
1010.00,49.676
1011.00,49.658
1012.00,49.637
1013.00,49.628
1014.00,49.608
1015.00,49.620
1016.00,49.578
1017.00,49.566
1018.00,49.571
1019.00,49.532
1020.00,49.530
1021.00,49.503
1022.00,49.488
1023.00,49.453
1024.00,49.464
1025.00,49.436
1026.00,49.435
1027.00,49.416
1028.00,49.410
1029.00,49.409
1030.00,49.360
1031.00,49.389
1032.00,49.348
1033.00,49.342
1034.00,49.319
1035.00,49.281
1036.00,49.258
1037.00,49.251
1038.00,49.246
1039.00,49.198
1040.00,49.220
1041.00,49.169
1042.00,49.190
1043.00,49.163
1044.00,49.195
1045.00,49.190
1046.00,49.155
1047.00,49.178
1048.00,49.201
1049.00,49.198
1050.00,49.179
1051.00,49.236
1052.00,49.215
1053.00,49.214
1054.00,49.218
1055.00,49.242
1056.00,49.273
1057.00,49.268
1058.00,49.239
1059.00,49.244
1060.00,49.262
1061.00,49.228
1062.00,49.233
1063.00,49.220
1064.00,49.230
1065.00,49.212
1066.00,49.209
1067.00,49.202
1068.00,49.231
1069.00,49.185
1070.00,49.165
1071.00,49.172
1072.00,49.179
1073.00,49.165
1074.00,49.149
1075.00,49.132
1076.00,49.136
1077.00,49.119
1078.00,49.117
1079.00,49.110
1080.00,49.098
1081.00,49.092
1082.00,49.084
1083.00,49.076
1084.00,49.069
1085.00,49.071
1086.00,49.054
1087.00,49.065
1088.00,49.035
1089.00,49.050
1090.00,49.027
1091.00,49.042
1092.00,49.042
1093.00,49.009
1094.00,48.994
1095.00,48.997
1096.00,48.966
1097.00,48.971
1098.00,48.954
1099.00,48.931
1100.00,48.937
1101.00,48.938
1102.00,48.919
1103.00,48.931
1104.00,48.907
1105.00,48.912
1106.00,48.927
1107.00,48.890
1108.00,48.887
1109.00,48.883
1110.00,48.871
1111.00,48.866
1112.00,48.845
1113.00,48.840
1114.00,48.831
1115.00,48.832
1116.00,48.811
1117.00,48.817
1118.00,48.804
1119.00,48.808
1120.00,48.812
1121.00,48.800
1122.00,48.792
1123.00,48.782
1124.00,48.759
1125.00,48.780
1126.00,48.747
1127.00,48.754
1128.00,48.750
1129.00,48.738
1130.00,48.720
1131.00,48.732
1132.00,48.714
1133.00,48.719
1134.00,48.709
1135.00,48.697
1136.00,48.706
1137.00,48.708
1138.00,48.702
1139.00,48.726
1140.00,48.691
1141.00,48.707
1142.00,48.681
1143.00,48.696
1144.00,48.667
1145.00,48.672
1146.00,48.666
1147.00,48.672
1148.00,48.667
1149.00,48.676
1150.00,48.678
1151.00,48.667
1152.00,48.658
1153.00,48.661
1154.00,48.632
1155.00,48.654
1156.00,48.635
1157.00,48.641
1158.00,48.630
1159.00,48.635
1160.00,48.632
1161.00,48.653
1162.00,48.630
1163.00,48.623
1164.00,48.641
1165.00,48.616
1166.00,48.645
1167.00,48.630
1168.00,48.627
1169.00,48.623
1170.00,48.606
1171.00,48.582
1172.00,48.625
1173.00,48.611
1174.00,48.628
1175.00,48.626
1176.00,48.606
1177.00,48.599
1178.00,48.591
1179.00,48.589
1180.00,48.576
1181.00,48.605
1182.00,48.596
1183.00,48.609
1184.00,48.597
1185.00,48.618
1186.00,48.582
1187.00,48.572
1188.00,48.593
1189.00,48.582
1190.00,48.581
1191.00,48.594
1192.00,48.616
1193.00,48.599
1194.00,48.610
1195.00,48.573
1196.00,48.590
1197.00,48.608
1198.00,48.582
1199.00,48.591
1200.00,48.614
1201.00,48.635
1202.00,48.616
1203.00,48.601
1204.00,48.591
1205.00,48.631
1206.00,48.607
1207.00,48.616
1208.00,48.603
1209.00,48.606
1210.00,48.618
1211.00,48.607
1212.00,48.620
1213.00,48.583
1214.00,48.614
1215.00,48.594
1216.00,48.621
1217.00,48.611
1218.00,48.601
1219.00,48.610
1220.00,48.572
1221.00,48.610
1222.00,48.589
1223.00,48.623
1224.00,48.622
1225.00,48.622
1226.00,48.615
1227.00,48.630
1228.00,48.664
1229.00,48.645
1230.00,48.686
1231.00,48.664
1232.00,48.692
1233.00,48.683
1234.00,48.664
1235.00,48.677
1236.00,48.660
1237.00,48.666
1238.00,48.672
1239.00,48.671
1240.00,48.666
1241.00,48.670
1242.00,48.650
1243.00,48.670
1244.00,48.652
1245.00,48.682
1246.00,48.707
1247.00,48.681
1248.00,48.691
1249.00,48.701
1250.00,48.707
1251.00,48.705
1252.00,48.729
1253.00,48.709
1254.00,48.757
1255.00,48.731
1256.00,48.720
1257.00,48.708
1258.00,48.753
1259.00,48.745
1260.00,48.785
1261.00,48.766
1262.00,48.758
1263.00,48.763
1264.00,48.758
1265.00,48.779
1266.00,48.771
1267.00,48.786
1268.00,48.796
1269.00,48.775
1270.00,48.801
1271.00,48.820
1272.00,48.805
1273.00,48.838
1274.00,48.834
1275.00,48.843
1276.00,48.843
1277.00,48.848
1278.00,48.848
1279.00,48.854
1280.00,48.840
1281.00,48.857
1282.00,48.887
1283.00,48.825
1284.00,48.884
1285.00,48.861
1286.00,48.878
1287.00,48.882
1288.00,48.894
1289.00,48.889
1290.00,48.924
1291.00,48.909
1292.00,48.912
1293.00,48.934
1294.00,48.941
1295.00,48.949
1296.00,48.967
1297.00,48.953
1298.00,48.988
1299.00,48.952
1300.00,48.962
1301.00,48.986
1302.00,49.010
1303.00,48.985
1304.00,48.988
1305.00,49.013
1306.00,49.030
1307.00,49.044
1308.00,49.023
1309.00,49.049
1310.00,49.044
1311.00,49.021
1312.00,49.042
1313.00,49.046
1314.00,49.066
1315.00,49.092
1316.00,49.069
1317.00,49.122
1318.00,49.112
1319.00,49.103
1320.00,49.137
1321.00,49.294
1322.00,49.278
1323.00,49.275
1324.00,49.264
1325.00,49.233
1326.00,49.278
1327.00,49.257
1328.00,49.241
1329.00,49.269
1330.00,49.257
1331.00,49.267
1332.00,49.281
1333.00,49.278
1334.00,49.339
1335.00,49.340
1336.00,49.371
1337.00,49.403
1338.00,49.471
1339.00,49.507
1340.00,49.584
1341.00,49.634
1342.00,49.691
1343.00,49.740
1344.00,49.782
1345.00,49.853
1346.00,49.878
1347.00,49.906
1348.00,49.940
1349.00,49.937
1350.00,49.972
1351.00,49.981
1352.00,49.995
1353.00,50.003
1354.00,50.017
1355.00,49.960
1356.00,50.007
1357.00,50.016
1358.00,50.060
1359.00,50.054
1360.00,50.060
1361.00,50.030
1362.00,50.052
1363.00,50.077
1364.00,50.049
1365.00,50.081
1366.00,50.120
1367.00,50.048
1368.00,50.082
1369.00,50.063
1370.00,50.074
1371.00,50.037
1372.00,50.029
1373.00,50.046
1374.00,50.053
1375.00,50.034
1376.00,50.048
1377.00,50.025
1378.00,50.147
1379.00,50.037
1380.00,50.028
1381.00,50.054
1382.00,49.999
1383.00,50.035
1384.00,50.003
1385.00,50.041
1386.00,50.050
1387.00,50.023
1388.00,49.993
1389.00,50.074
1390.00,50.043
1391.00,49.991
1392.00,50.034
1393.00,50.048
1394.00,50.042
1395.00,50.013
1396.00,49.996
1397.00,50.087
1398.00,50.087
1399.00,49.990
1400.00,49.992
1401.00,50.044
1402.00,50.123
1403.00,50.024
1404.00,50.050
1405.00,50.070
1406.00,50.113
1407.00,50.077
1408.00,50.058
1409.00,50.082
1410.00,50.119
1411.00,50.158
1412.00,50.182
1413.00,50.068
1414.00,50.122
1415.00,50.167
1416.00,50.165
1417.00,50.199
1418.00,50.165
1419.00,50.180
1420.00,50.219
1421.00,50.251
1422.00,50.245
1423.00,50.270
1424.00,50.273
1425.00,50.312
1426.00,50.311
1427.00,50.330
1428.00,50.329
1429.00,50.349
1430.00,50.369
1431.00,50.393
1432.00,50.405
1433.00,50.430
1434.00,50.417
1435.00,50.462
1436.00,50.483
1437.00,50.470
1438.00,50.488
1439.00,50.530
1440.00,50.532
1441.00,50.548
1442.00,50.567
1443.00,50.584
1444.00,50.653
1445.00,50.593
1446.00,50.629
1447.00,50.675
1448.00,50.710
1449.00,50.693
1450.00,50.714
1451.00,50.722
1452.00,50.749
1453.00,50.752
1454.00,50.766
1455.00,50.812
1456.00,50.820
1457.00,50.815
1458.00,50.866
1459.00,50.861
1460.00,50.908
1461.00,50.906
1462.00,50.936
1463.00,50.933
1464.00,50.927
1465.00,50.918
1466.00,50.930
1467.00,50.973
1468.00,51.030
1469.00,51.011
1470.00,51.038
1471.00,51.054
1472.00,51.067
1473.00,51.064
1474.00,51.108
1475.00,51.115
1476.00,51.120
1477.00,51.119
1478.00,51.154
1479.00,51.157
1480.00,51.170
1481.00,51.189
1482.00,51.219
1483.00,51.240
1484.00,51.253
1485.00,51.259
1486.00,51.278
1487.00,51.287
1488.00,51.325
1489.00,51.297
1490.00,51.324
1491.00,51.345
1492.00,51.363
1493.00,51.333
1494.00,51.394
1495.00,51.368
1496.00,51.410
1497.00,51.410
1498.00,51.424
1499.00,51.449
1500.00,51.456
1501.00, 
1502.00, 
1503.00, 
1504.00, 
1505.00, 
1506.00, 
1507.00, 
1508.00, 
1509.00, 
1510.00, 
1511.00, 
1512.00, 
1513.00, 
1514.00, 
1515.00, 
1516.00, 
1517.00, 
1518.00, 
1519.00, 
1520.00, 
1521.00, 
1522.00, 
1523.00, 
1524.00, 
1525.00, 
1526.00, 
1527.00, 
1528.00, 
1529.00, 
1530.00, 
1531.00, 
1532.00, 
1533.00, 
1534.00, 
1535.00, 
1536.00, 
1537.00, 
1538.00, 
1539.00, 
1540.00, 
1541.00, 
1542.00, 
1543.00, 
1544.00, 
1545.00, 
1546.00, 
1547.00, 
1548.00, 
1549.00, 
1550.00, 
1551.00, 
1552.00, 
1553.00, 
1554.00, 
1555.00, 
1556.00, 
1557.00, 
1558.00, 
1559.00, 
1560.00, 
1561.00, 
1562.00, 
1563.00, 
1564.00, 
1565.00, 
1566.00, 
1567.00, 
1568.00, 
1569.00, 
1570.00, 
1571.00, 
1572.00, 
1573.00, 
1574.00, 
1575.00, 
1576.00, 
1577.00, 
1578.00, 
1579.00, 
1580.00, 
1581.00, 
1582.00, 
1583.00, 
1584.00, 
1585.00, 
1586.00, 
1587.00, 
1588.00, 
1589.00, 
1590.00, 
1591.00, 
1592.00, 
1593.00, 
1594.00, 
1595.00, 
1596.00, 
1597.00, 
1598.00, 
1599.00, 
1600.00, 
1601.00, 
1602.00, 
1603.00, 
1604.00, 
1605.00, 
1606.00, 
1607.00, 
1608.00, 
1609.00, 
1610.00, 
1611.00, 
1612.00, 
1613.00, 
1614.00, 
1615.00, 
1616.00, 
1617.00, 
1618.00, 
1619.00, 
1620.00, 
1621.00, 
1622.00, 
1623.00, 
1624.00, 
1625.00, 
1626.00, 
1627.00, 
1628.00, 
1629.00, 
1630.00, 
1631.00, 
1632.00, 
1633.00, 
1634.00, 
1635.00, 
1636.00, 
1637.00, 
1638.00, 
1639.00, 
1640.00, 
1641.00, 
1642.00, 
1643.00, 
1644.00, 
1645.00, 
1646.00, 
1647.00, 
1648.00, 
1649.00, 
1650.00, 
1651.00, 
1652.00, 
1653.00, 
1654.00, 
1655.00, 
1656.00, 
1657.00, 
1658.00, 
1659.00, 
1660.00, 
1661.00, 
1662.00, 
1663.00, 
1664.00, 
1665.00, 
1666.00, 
1667.00, 
1668.00, 
1669.00, 
1670.00, 
1671.00, 
1672.00, 
1673.00, 
1674.00, 
1675.00, 
1676.00, 
1677.00, 
1678.00, 
1679.00, 
1680.00, 
1681.00, 
1682.00, 
1683.00, 
1684.00, 
1685.00, 
1686.00, 
1687.00, 
1688.00, 
1689.00, 
1690.00, 
1691.00, 
1692.00, 
1693.00, 
1694.00, 
1695.00, 
1696.00, 
1697.00, 
1698.00, 
1699.00, 
1700.00, 
1701.00, 
1702.00, 
1703.00, 
1704.00, 
1705.00, 
1706.00, 
1707.00, 
1708.00, 
1709.00, 
1710.00, 
1711.00, 
1712.00, 
1713.00, 
1714.00, 
1715.00, 
1716.00, 
1717.00, 
1718.00, 
1719.00, 
1720.00, 
1721.00, 
1722.00, 
1723.00, 
1724.00, 
1725.00, 
1726.00, 
1727.00, 
1728.00, 
1729.00, 
1730.00, 
1731.00, 
1732.00, 
1733.00, 
1734.00, 
1735.00, 
1736.00, 
1737.00, 
1738.00, 
1739.00, 
1740.00, 
1741.00, 
1742.00, 
1743.00, 
1744.00, 
1745.00, 
1746.00, 
1747.00, 
1748.00, 
1749.00, 
1750.00, 
1751.00, 
1752.00, 
1753.00, 
1754.00, 
1755.00, 
1756.00, 
1757.00, 
1758.00, 
1759.00, 
1760.00, 
1761.00, 
1762.00, 
1763.00, 
1764.00, 
1765.00, 
1766.00, 
1767.00, 
1768.00, 
1769.00, 
1770.00, 
1771.00, 
1772.00, 
1773.00, 
1774.00, 
1775.00, 
1776.00, 
1777.00, 
1778.00, 
1779.00, 
1780.00, 
1781.00, 
1782.00, 
1783.00, 
1784.00, 
1785.00, 
1786.00, 
1787.00, 
1788.00, 
1789.00, 
1790.00, 
1791.00, 
1792.00, 
1793.00, 
1794.00, 
1795.00, 
1796.00, 
1797.00, 
1798.00, 
1799.00, 
1800.00, 
1801.00, 
1802.00, 
1803.00, 
1804.00, 
1805.00, 
1806.00, 
1807.00, 
1808.00, 
1809.00, 
1810.00, 
1811.00, 
1812.00, 
1813.00, 
1814.00, 
1815.00, 
1816.00, 
1817.00, 
1818.00, 
1819.00, 
1820.00, 
1821.00, 
1822.00, 
1823.00, 
1824.00, 
1825.00, 
1826.00, 
1827.00, 
1828.00, 
1829.00, 
1830.00, 
1831.00, 
1832.00, 
1833.00, 
1834.00, 
1835.00, 
1836.00, 
1837.00, 
1838.00, 
1839.00, 
1840.00, 
1841.00, 
1842.00, 
1843.00, 
1844.00, 
1845.00, 
1846.00, 
1847.00, 
1848.00, 
1849.00, 
1850.00, 
1851.00, 
1852.00, 
1853.00, 
1854.00, 
1855.00, 
1856.00, 
1857.00, 
1858.00, 
1859.00, 
1860.00, 
1861.00, 
1862.00, 
1863.00, 
1864.00, 
1865.00, 
1866.00, 
1867.00, 
1868.00, 
1869.00, 
1870.00, 
1871.00, 
1872.00, 
1873.00, 
1874.00, 
1875.00, 
1876.00, 
1877.00, 
1878.00, 
1879.00, 
1880.00, 
1881.00, 
1882.00, 
1883.00, 
1884.00, 
1885.00, 
1886.00, 
1887.00, 
1888.00, 
1889.00, 
1890.00, 
1891.00, 
1892.00, 
1893.00, 
1894.00, 
1895.00, 
1896.00, 
1897.00, 
1898.00, 
1899.00, 
1900.00, 
1901.00, 
1902.00, 
1903.00, 
1904.00, 
1905.00, 
1906.00, 
1907.00, 
1908.00, 
1909.00, 
1910.00, 
1911.00, 
1912.00, 
1913.00, 
1914.00, 
1915.00, 
1916.00, 
1917.00, 
1918.00, 
1919.00, 
1920.00, 
1921.00, 
1922.00, 
1923.00, 
1924.00, 
1925.00, 
1926.00, 
1927.00, 
1928.00, 
1929.00, 
1930.00, 
1931.00, 
1932.00, 
1933.00, 
1934.00, 
1935.00, 
1936.00, 
1937.00, 
1938.00, 
1939.00, 
1940.00, 
1941.00, 
1942.00, 
1943.00, 
1944.00, 
1945.00, 
1946.00, 
1947.00, 
1948.00, 
1949.00, 
1950.00, 
1951.00, 
1952.00, 
1953.00, 
1954.00, 
1955.00, 
1956.00, 
1957.00, 
1958.00, 
1959.00, 
1960.00, 
1961.00, 
1962.00, 
1963.00, 
1964.00, 
1965.00, 
1966.00, 
1967.00, 
1968.00, 
1969.00, 
1970.00, 
1971.00, 
1972.00, 
1973.00, 
1974.00, 
1975.00, 
1976.00, 
1977.00, 
1978.00, 
1979.00, 
1980.00, 
1981.00, 
1982.00, 
1983.00, 
1984.00, 
1985.00, 
1986.00, 
1987.00, 
1988.00, 
1989.00, 
1990.00, 
1991.00, 
1992.00, 
1993.00, 
1994.00, 
1995.00, 
1996.00, 
1997.00, 
1998.00, 
1999.00, 
2000.00, 
2001.00, 
2002.00, 
2003.00, 
2004.00, 
2005.00, 
2006.00, 
2007.00, 
2008.00, 
2009.00, 
2010.00, 
2011.00, 
2012.00, 
2013.00, 
2014.00, 
2015.00, 
2016.00, 
2017.00, 
2018.00, 
2019.00, 
2020.00, 
2021.00, 
2022.00, 
2023.00, 
2024.00, 
2025.00, 
2026.00, 
2027.00, 
2028.00, 
2029.00, 
2030.00, 
2031.00, 
2032.00, 
2033.00, 
2034.00, 
2035.00, 
2036.00, 
2037.00, 
2038.00, 
2039.00, 
2040.00, 
2041.00, 
2042.00, 
2043.00, 
2044.00, 
2045.00, 
2046.00, 
2047.00, 
2048.00, 
2049.00, 
2050.00, 
2051.00, 
2052.00, 
2053.00, 
2054.00, 
2055.00, 
2056.00, 
2057.00, 
2058.00, 
2059.00, 
2060.00, 
2061.00, 
2062.00, 
2063.00, 
2064.00, 
2065.00, 
2066.00, 
2067.00, 
2068.00, 
2069.00, 
2070.00, 
2071.00, 
2072.00, 
2073.00, 
2074.00, 
2075.00, 
2076.00, 
2077.00, 
2078.00, 
2079.00, 
2080.00, 
2081.00, 
2082.00, 
2083.00, 
2084.00, 
2085.00, 
2086.00, 
2087.00, 
2088.00, 
2089.00, 
2090.00, 
2091.00, 
2092.00, 
2093.00, 
2094.00, 
2095.00, 
2096.00, 
2097.00, 
2098.00, 
2099.00, 
2100.00, 
2101.00, 
2102.00, 
2103.00, 
2104.00, 
2105.00, 
2106.00, 
2107.00, 
2108.00, 
2109.00, 
2110.00, 
2111.00, 
2112.00, 
2113.00, 
2114.00, 
2115.00, 
2116.00, 
2117.00, 
2118.00, 
2119.00, 
2120.00, 
2121.00, 
2122.00, 
2123.00, 
2124.00, 
2125.00, 
2126.00, 
2127.00, 
2128.00, 
2129.00, 
2130.00, 
2131.00, 
2132.00, 
2133.00, 
2134.00, 
2135.00, 
2136.00, 
2137.00, 
2138.00, 
2139.00, 
2140.00, 
2141.00, 
2142.00, 
2143.00, 
2144.00, 
2145.00, 
2146.00, 
2147.00, 
2148.00, 
2149.00, 
2150.00, 
2151.00, 
2152.00, 
2153.00, 
2154.00, 
2155.00, 
2156.00, 
2157.00, 
2158.00, 
2159.00, 
2160.00, 
2161.00, 
2162.00, 
2163.00, 
2164.00, 
2165.00, 
2166.00, 
2167.00, 
2168.00, 
2169.00, 
2170.00, 
2171.00, 
2172.00, 
2173.00, 
2174.00, 
2175.00, 
2176.00, 
2177.00, 
2178.00, 
2179.00, 
2180.00, 
2181.00, 
2182.00, 
2183.00, 
2184.00, 
2185.00, 
2186.00, 
2187.00, 
2188.00, 
2189.00, 
2190.00, 
2191.00, 
2192.00, 
2193.00, 
2194.00, 
2195.00, 
2196.00, 
2197.00, 
2198.00, 
2199.00, 
2200.00, 
2201.00, 
2202.00, 
2203.00, 
2204.00, 
2205.00, 
2206.00, 
2207.00, 
2208.00, 
2209.00, 
2210.00, 
2211.00, 
2212.00, 
2213.00, 
2214.00, 
2215.00, 
2216.00, 
2217.00, 
2218.00, 
2219.00, 
2220.00, 
2221.00, 
2222.00, 
2223.00, 
2224.00, 
2225.00, 
2226.00, 
2227.00, 
2228.00, 
2229.00, 
2230.00, 
2231.00, 
2232.00, 
2233.00, 
2234.00, 
2235.00, 
2236.00, 
2237.00, 
2238.00, 
2239.00, 
2240.00, 
2241.00, 
2242.00, 
2243.00, 
2244.00, 
2245.00, 
2246.00, 
2247.00, 
2248.00, 
2249.00, 
2250.00, 
2251.00, 
2252.00, 
2253.00, 
2254.00, 
2255.00, 
2256.00, 
2257.00, 
2258.00, 
2259.00, 
2260.00, 
2261.00, 
2262.00, 
2263.00, 
2264.00, 
2265.00, 
2266.00, 
2267.00, 
2268.00, 
2269.00, 
2270.00, 
2271.00, 
2272.00, 
2273.00, 
2274.00, 
2275.00, 
2276.00, 
2277.00, 
2278.00, 
2279.00, 
2280.00, 
2281.00, 
2282.00, 
2283.00, 
2284.00, 
2285.00, 
2286.00, 
2287.00, 
2288.00, 
2289.00, 
2290.00, 
2291.00, 
2292.00, 
2293.00, 
2294.00, 
2295.00, 
2296.00, 
2297.00, 
2298.00, 
2299.00, 
2300.00, 
2301.00, 
2302.00, 
2303.00, 
2304.00, 
2305.00, 
2306.00, 
2307.00, 
2308.00, 
2309.00, 
2310.00, 
2311.00, 
2312.00, 
2313.00, 
2314.00, 
2315.00, 
2316.00, 
2317.00, 
2318.00, 
2319.00, 
2320.00, 
2321.00, 
2322.00, 
2323.00, 
2324.00, 
2325.00, 
2326.00, 
2327.00, 
2328.00, 
2329.00, 
2330.00, 
2331.00, 
2332.00, 
2333.00, 
2334.00, 
2335.00, 
2336.00, 
2337.00, 
2338.00, 
2339.00, 
2340.00, 
2341.00, 
2342.00, 
2343.00, 
2344.00, 
2345.00, 
2346.00, 
2347.00, 
2348.00, 
2349.00, 
2350.00, 
2351.00, 
2352.00, 
2353.00, 
2354.00, 
2355.00, 
2356.00, 
2357.00, 
2358.00, 
2359.00, 
2360.00, 
2361.00, 
2362.00, 
2363.00, 
2364.00, 
2365.00, 
2366.00, 
2367.00, 
2368.00, 
2369.00, 
2370.00, 
2371.00, 
2372.00, 
2373.00, 
2374.00, 
2375.00, 
2376.00, 
2377.00, 
2378.00, 
2379.00, 
2380.00, 
2381.00, 
2382.00, 
2383.00, 
2384.00, 
2385.00, 
2386.00, 
2387.00, 
2388.00, 
2389.00, 
2390.00, 
2391.00, 
2392.00, 
2393.00, 
2394.00, 
2395.00, 
2396.00, 
2397.00, 
2398.00, 
2399.00, 
2400.00, 
2401.00, 
2402.00, 
2403.00, 
2404.00, 
2405.00, 
2406.00, 
2407.00, 
2408.00, 
2409.00, 
2410.00, 
2411.00, 
2412.00, 
2413.00, 
2414.00, 
2415.00, 
2416.00, 
2417.00, 
2418.00, 
2419.00, 
2420.00, 
2421.00, 
2422.00, 
2423.00, 
2424.00, 
2425.00, 
2426.00, 
2427.00, 
2428.00, 
2429.00, 
2430.00, 
2431.00, 
2432.00, 
2433.00, 
2434.00, 
2435.00, 
2436.00, 
2437.00, 
2438.00, 
2439.00, 
2440.00, 
2441.00, 
2442.00, 
2443.00, 
2444.00, 
2445.00, 
2446.00, 
2447.00, 
2448.00, 
2449.00, 
2450.00, 
2451.00, 
2452.00, 
2453.00, 
2454.00, 
2455.00, 
2456.00, 
2457.00, 
2458.00, 
2459.00, 
2460.00, 
2461.00, 
2462.00, 
2463.00, 
2464.00, 
2465.00, 
2466.00, 
2467.00, 
2468.00, 
2469.00, 
2470.00, 
2471.00, 
2472.00, 
2473.00, 
2474.00, 
2475.00, 
2476.00, 
2477.00, 
2478.00, 
2479.00, 
2480.00, 
2481.00, 
2482.00, 
2483.00, 
2484.00, 
2485.00, 
2486.00, 
2487.00, 
2488.00, 
2489.00, 
2490.00, 
2491.00, 
2492.00, 
2493.00, 
2494.00, 
2495.00, 
2496.00, 
2497.00, 
2498.00, 
2499.00, 
2500.00, 
2501.00, 
2502.00, 
2503.00, 
2504.00, 
2505.00, 
2506.00, 
2507.00, 
2508.00, 
2509.00, 
2510.00, 
2511.00, 
2512.00, 
2513.00, 
2514.00, 
2515.00, 
2516.00, 
2517.00, 
2518.00, 
2519.00, 
2520.00, 
2521.00, 
2522.00, 
2523.00, 
2524.00, 
2525.00, 
2526.00, 
2527.00, 
2528.00, 
2529.00, 
2530.00, 
2531.00, 
2532.00, 
2533.00, 
2534.00, 
2535.00, 
2536.00, 
2537.00, 
2538.00, 
2539.00, 
2540.00, 
2541.00, 
2542.00, 
2543.00, 
2544.00, 
2545.00, 
2546.00, 
2547.00, 
2548.00, 
2549.00, 
2550.00, 
2551.00, 
2552.00, 
2553.00, 
2554.00, 
2555.00, 
2556.00, 
2557.00, 
2558.00, 
2559.00, 
2560.00, 
2561.00, 
2562.00, 
2563.00, 
2564.00, 
2565.00, 
2566.00, 
2567.00, 
2568.00, 
2569.00, 
2570.00, 
2571.00, 
2572.00, 
2573.00, 
2574.00, 
2575.00, 
2576.00, 
2577.00, 
2578.00, 
2579.00, 
2580.00, 
2581.00, 
2582.00, 
2583.00, 
2584.00, 
2585.00, 
2586.00, 
2587.00, 
2588.00, 
2589.00, 
2590.00, 
2591.00, 
2592.00, 
2593.00, 
2594.00, 
2595.00, 
2596.00, 
2597.00, 
2598.00, 
2599.00, 
2600.00, 
