"1cP2 - RawData"
"Wavelength nm.","T%"
200.00,0.001
201.00,0.005
202.00,0.004
203.00,0.002
204.00,0.001
205.00,0.002
206.00,0.002
207.00,-0.001
208.00,0.001
209.00,0.001
210.00,0.000
211.00,-0.002
212.00,0.001
213.00,0.001
214.00,-0.001
215.00,-0.000
216.00,0.002
217.00,0.001
218.00,0.002
219.00,0.001
220.00,0.002
221.00,-0.000
222.00,0.002
223.00,-0.003
224.00,0.000
225.00,0.003
226.00,-0.001
227.00,0.000
228.00,-0.001
229.00,0.002
230.00,-0.000
231.00,0.000
232.00,0.002
233.00,0.001
234.00,0.003
235.00,-0.000
236.00,-0.000
237.00,0.002
238.00,-0.000
239.00,0.001
240.00,0.001
241.00,0.002
242.00,0.000
243.00,-0.001
244.00,0.002
245.00,0.001
246.00,0.001
247.00,0.002
248.00,-0.001
249.00,-0.000
250.00,-0.001
251.00,-0.002
252.00,0.001
253.00,0.002
254.00,-0.000
255.00,-0.000
256.00,0.000
257.00,0.002
258.00,0.001
259.00,0.001
260.00,0.002
261.00,0.001
262.00,-0.000
263.00,0.000
264.00,0.001
265.00,-0.000
266.00,0.001
267.00,0.002
268.00,0.001
269.00,-0.001
270.00,0.001
271.00,-0.001
272.00,-0.000
273.00,0.001
274.00,-0.001
275.00,-0.001
276.00,-0.000
277.00,0.001
278.00,-0.001
279.00,-0.000
280.00,0.002
281.00,-0.001
282.00,-0.002
283.00,-0.001
284.00,0.000
285.00,-0.001
286.00,-0.000
287.00,0.001
288.00,0.001
289.00,-0.000
290.00,-0.000
291.00,0.001
292.00,0.001
293.00,0.000
294.00,-0.000
295.00,0.000
296.00,0.000
297.00,0.001
298.00,0.002
299.00,-0.000
300.00,0.000
301.00,0.000
302.00,0.001
303.00,0.001
304.00,-0.002
305.00,0.002
306.00,0.003
307.00,0.003
308.00,0.008
309.00,0.012
310.00,0.019
311.00,0.027
312.00,0.045
313.00,0.070
314.00,0.108
315.00,0.157
316.00,0.223
317.00,0.312
318.00,0.424
319.00,0.579
320.00,0.775
321.00,0.998
322.00,1.269
323.00,1.603
324.00,1.984
325.00,2.395
326.00,2.833
327.00,3.361
328.00,3.940
329.00,4.538
330.00,5.211
331.00,5.904
332.00,6.638
333.00,7.436
334.00,8.156
335.00,8.982
336.00,9.803
337.00,10.628
338.00,11.511
339.00,12.255
340.00,13.103
341.00,13.890
342.00,14.637
343.00,15.440
344.00,16.176
345.00,16.873
346.00,17.479
347.00,18.102
348.00,18.727
349.00,19.309
350.00,19.839
351.00,20.338
352.00,20.777
353.00,21.268
354.00,21.707
355.00,22.103
356.00,22.455
357.00,22.791
358.00,23.131
359.00,23.547
360.00,23.780
361.00,23.939
362.00,24.211
363.00,24.417
364.00,24.610
365.00,24.669
366.00,24.846
367.00,24.937
368.00,25.036
369.00,25.139
370.00,25.193
371.00,25.227
372.00,25.173
373.00,25.289
374.00,25.231
375.00,25.106
376.00,25.067
377.00,24.959
378.00,24.859
379.00,24.720
380.00,24.696
381.00,24.672
382.00,24.698
383.00,24.728
384.00,24.771
385.00,24.852
386.00,24.830
387.00,25.003
388.00,25.081
389.00,25.051
390.00,25.154
391.00,25.094
392.00,25.216
393.00,25.158
394.00,25.258
395.00,25.303
396.00,25.257
397.00,25.349
398.00,25.272
399.00,25.304
400.00,25.282
401.00,25.279
402.00,25.326
403.00,25.336
404.00,25.268
405.00,25.219
406.00,25.201
407.00,25.164
408.00,25.057
409.00,25.033
410.00,24.962
411.00,24.936
412.00,24.866
413.00,24.885
414.00,24.822
415.00,24.814
416.00,24.849
417.00,24.813
418.00,24.826
419.00,24.903
420.00,24.944
421.00,24.855
422.00,24.822
423.00,24.853
424.00,24.886
425.00,24.874
426.00,24.914
427.00,24.945
428.00,24.946
429.00,24.958
430.00,25.024
431.00,25.079
432.00,25.056
433.00,25.086
434.00,25.123
435.00,25.241
436.00,25.240
437.00,25.251
438.00,25.338
439.00,25.384
440.00,25.431
441.00,25.494
442.00,25.595
443.00,25.597
444.00,25.667
445.00,25.754
446.00,25.835
447.00,25.896
448.00,25.999
449.00,26.101
450.00,26.177
451.00,26.278
452.00,26.347
453.00,26.465
454.00,26.548
455.00,26.629
456.00,26.730
457.00,26.845
458.00,26.900
459.00,27.061
460.00,27.151
461.00,27.263
462.00,27.362
463.00,27.523
464.00,27.634
465.00,27.721
466.00,27.798
467.00,27.954
468.00,28.083
469.00,28.121
470.00,28.229
471.00,28.299
472.00,28.424
473.00,28.500
474.00,28.582
475.00,28.703
476.00,28.760
477.00,28.927
478.00,29.034
479.00,29.186
480.00,29.317
481.00,29.388
482.00,29.549
483.00,29.694
484.00,29.852
485.00,30.000
486.00,30.135
487.00,30.277
488.00,30.363
489.00,30.523
490.00,30.683
491.00,30.826
492.00,30.945
493.00,31.165
494.00,31.330
495.00,31.200
496.00,31.414
497.00,31.492
498.00,31.632
499.00,31.781
500.00,31.961
501.00,32.033
502.00,32.128
503.00,32.287
504.00,32.302
505.00,32.424
506.00,32.565
507.00,32.649
508.00,32.771
509.00,32.870
510.00,33.036
511.00,33.066
512.00,33.290
513.00,33.442
514.00,33.562
515.00,33.641
516.00,33.713
517.00,33.806
518.00,33.967
519.00,34.058
520.00,34.107
521.00,34.136
522.00,34.181
523.00,34.339
524.00,34.453
525.00,34.557
526.00,34.652
527.00,34.711
528.00,34.772
529.00,35.024
530.00,35.130
531.00,35.223
532.00,35.305
533.00,35.396
534.00,35.472
535.00,35.561
536.00,35.660
537.00,35.726
538.00,35.789
539.00,35.850
540.00,35.969
541.00,35.994
542.00,36.035
543.00,36.126
544.00,36.219
545.00,36.269
546.00,36.279
547.00,36.471
548.00,36.465
549.00,36.617
550.00,36.680
551.00,36.733
552.00,36.760
553.00,36.857
554.00,36.915
555.00,37.017
556.00,37.081
557.00,37.151
558.00,37.221
559.00,37.305
560.00,37.346
561.00,37.404
562.00,37.499
563.00,37.523
564.00,37.567
565.00,37.602
566.00,37.603
567.00,37.625
568.00,37.700
569.00,37.746
570.00,37.792
571.00,37.841
572.00,37.909
573.00,37.869
574.00,37.918
575.00,37.926
576.00,37.903
577.00,37.996
578.00,38.144
579.00,38.160
580.00,38.173
581.00,38.332
582.00,38.435
583.00,38.387
584.00,38.531
585.00,38.605
586.00,38.612
587.00,38.657
588.00,38.660
589.00,38.656
590.00,38.736
591.00,38.757
592.00,38.715
593.00,38.765
594.00,38.801
595.00,38.956
596.00,39.057
597.00,38.923
598.00,39.102
599.00,39.233
600.00,39.323
601.00,39.251
602.00,39.244
603.00,39.301
604.00,39.312
605.00,39.416
606.00,39.536
607.00,39.516
608.00,39.507
609.00,39.552
610.00,39.801
611.00,39.645
612.00,39.655
613.00,39.705
614.00,39.785
615.00,39.890
616.00,39.957
617.00,39.944
618.00,39.956
619.00,40.020
620.00,40.012
621.00,40.082
622.00,40.157
623.00,40.223
624.00,40.324
625.00,40.331
626.00,40.306
627.00,40.434
628.00,40.455
629.00,40.460
630.00,40.492
631.00,40.545
632.00,40.628
633.00,40.694
634.00,40.813
635.00,40.912
636.00,40.857
637.00,40.963
638.00,41.029
639.00,40.992
640.00,41.022
641.00,41.124
642.00,41.222
643.00,41.294
644.00,41.375
645.00,41.397
646.00,41.615
647.00,41.612
648.00,41.662
649.00,41.674
650.00,41.697
651.00,41.927
652.00,41.994
653.00,41.930
654.00,41.999
655.00,42.213
656.00,42.504
657.00,42.317
658.00,42.406
659.00,42.391
660.00,42.480
661.00,42.457
662.00,42.512
663.00,42.682
664.00,42.931
665.00,43.038
666.00,42.951
667.00,43.109
668.00,42.920
669.00,43.273
670.00,43.609
671.00,43.354
672.00,43.486
673.00,43.552
674.00,43.605
675.00,43.721
676.00,43.914
677.00,44.053
678.00,43.750
679.00,43.989
680.00,44.120
681.00,44.225
682.00,44.197
683.00,44.136
684.00,44.362
685.00,44.466
686.00,44.312
687.00,44.433
688.00,44.582
689.00,44.585
690.00,44.757
691.00,45.114
692.00,44.784
693.00,44.827
694.00,45.000
695.00,45.099
696.00,45.022
697.00,45.134
698.00,45.362
699.00,45.437
700.00,45.562
701.00,45.474
702.00,45.631
703.00,45.868
704.00,45.752
705.00,45.687
706.00,45.763
707.00,45.831
708.00,45.865
709.00,46.260
710.00,46.592
711.00,46.095
712.00,46.136
713.00,46.213
714.00,46.325
715.00,46.404
716.00,46.327
717.00,46.457
718.00,46.669
719.00,46.523
720.00,46.690
721.00,51.207
722.00,51.178
723.00,51.179
724.00,51.182
725.00,51.125
726.00,51.170
727.00,51.152
728.00,51.232
729.00,51.250
730.00,51.246
731.00,51.166
732.00,51.299
733.00,51.262
734.00,51.239
735.00,51.407
736.00,51.404
737.00,51.414
738.00,51.420
739.00,51.444
740.00,51.410
741.00,51.604
742.00,51.515
743.00,51.482
744.00,51.438
745.00,51.450
746.00,51.482
747.00,51.540
748.00,51.477
749.00,51.445
750.00,51.424
751.00,51.497
752.00,51.489
753.00,51.463
754.00,51.453
755.00,51.398
756.00,51.422
757.00,51.432
758.00,51.503
759.00,51.370
760.00,51.422
761.00,51.528
762.00,51.432
763.00,51.445
764.00,51.491
765.00,51.445
766.00,51.454
767.00,51.506
768.00,51.405
769.00,51.441
770.00,51.553
771.00,51.450
772.00,51.529
773.00,51.458
774.00,51.536
775.00,51.559
776.00,51.422
777.00,51.543
778.00,51.478
779.00,51.522
780.00,51.470
781.00,51.484
782.00,51.439
783.00,51.437
784.00,51.430
785.00,51.322
786.00,51.448
787.00,51.367
788.00,51.288
789.00,51.380
790.00,51.288
791.00,51.301
792.00,51.317
793.00,51.322
794.00,51.385
795.00,51.239
796.00,51.260
797.00,51.169
798.00,51.222
799.00,51.142
800.00,51.112
801.00,51.159
802.00,51.192
803.00,51.126
804.00,51.009
805.00,51.094
806.00,51.093
807.00,51.023
808.00,51.106
809.00,51.065
810.00,51.023
811.00,50.984
812.00,51.001
813.00,50.874
814.00,50.963
815.00,50.907
816.00,50.901
817.00,50.865
818.00,50.786
819.00,50.861
820.00,50.754
821.00,50.795
822.00,50.782
823.00,50.803
824.00,50.799
825.00,50.712
826.00,50.636
827.00,50.729
828.00,50.686
829.00,50.657
830.00,50.669
831.00,53.131
832.00,53.127
833.00,53.058
834.00,53.045
835.00,53.038
836.00,53.011
837.00,52.989
838.00,52.939
839.00,52.968
840.00,52.876
841.00,52.892
842.00,52.851
843.00,52.879
844.00,52.888
845.00,52.874
846.00,52.832
847.00,52.789
848.00,52.798
849.00,52.695
850.00,52.721
851.00,52.625
852.00,52.640
853.00,52.557
854.00,52.538
855.00,52.464
856.00,52.467
857.00,52.461
858.00,52.409
859.00,52.415
860.00,52.461
861.00,52.411
862.00,52.352
863.00,52.378
864.00,52.335
865.00,52.358
866.00,52.346
867.00,52.307
868.00,52.282
869.00,52.266
870.00,52.293
871.00,52.209
872.00,52.295
873.00,52.187
874.00,52.239
875.00,52.162
876.00,52.162
877.00,52.150
878.00,52.210
879.00,52.161
880.00,52.123
881.00,52.077
882.00,52.150
883.00,52.079
884.00,52.025
885.00,52.056
886.00,52.030
887.00,51.905
888.00,51.993
889.00,51.937
890.00,51.923
891.00,51.895
892.00,51.871
893.00,51.868
894.00,51.855
895.00,51.812
896.00,51.788
897.00,51.788
898.00,51.756
899.00,51.772
900.00,51.727
901.00,51.699
902.00,51.712
903.00,51.684
904.00,51.671
905.00,51.657
906.00,51.645
907.00,51.604
908.00,51.567
909.00,51.557
910.00,51.546
911.00,51.550
912.00,51.505
913.00,51.517
914.00,51.385
915.00,51.460
916.00,51.433
917.00,51.415
918.00,51.415
919.00,51.356
920.00,51.314
921.00,51.355
922.00,51.322
923.00,51.295
924.00,51.228
925.00,51.269
926.00,51.243
927.00,51.209
928.00,51.189
929.00,51.209
930.00,51.157
931.00,51.151
932.00,51.081
933.00,51.106
934.00,51.084
935.00,51.079
936.00,51.039
937.00,51.034
938.00,51.017
939.00,51.013
940.00,50.955
941.00,50.971
942.00,50.931
943.00,50.910
944.00,50.878
945.00,50.886
946.00,50.796
947.00,50.818
948.00,50.800
949.00,50.782
950.00,50.756
951.00,50.708
952.00,50.710
953.00,50.678
954.00,50.669
955.00,50.636
956.00,50.624
957.00,50.585
958.00,50.615
959.00,50.546
960.00,50.550
961.00,50.538
962.00,50.535
963.00,50.500
964.00,50.480
965.00,50.491
966.00,50.447
967.00,50.456
968.00,50.418
969.00,50.463
970.00,50.437
971.00,50.436
972.00,50.375
973.00,50.470
974.00,50.459
975.00,50.415
976.00,50.432
977.00,50.411
978.00,50.450
979.00,50.405
980.00,50.419
981.00,50.438
982.00,50.404
983.00,50.422
984.00,50.390
985.00,50.412
986.00,50.364
987.00,50.386
988.00,50.381
989.00,50.334
990.00,50.344
991.00,50.335
992.00,50.356
993.00,50.304
994.00,50.289
995.00,50.265
996.00,50.250
997.00,50.229
998.00,50.222
999.00,50.228
1000.00,50.179
1001.00,50.192
1002.00,50.218
1003.00,50.165
1004.00,50.154
1005.00,50.123
1006.00,50.159
1007.00,50.111
1008.00,50.103
1009.00,50.084
1010.00,50.077
1011.00,50.071
1012.00,50.039
1013.00,50.051
1014.00,50.009
1015.00,50.038
1016.00,49.987
1017.00,49.968
1018.00,49.961
1019.00,49.920
1020.00,49.915
1021.00,49.891
1022.00,49.879
1023.00,49.836
1024.00,49.850
1025.00,49.822
1026.00,49.816
1027.00,49.798
1028.00,49.788
1029.00,49.788
1030.00,49.743
1031.00,49.776
1032.00,49.734
1033.00,49.746
1034.00,49.749
1035.00,49.672
1036.00,49.646
1037.00,49.637
1038.00,49.618
1039.00,49.581
1040.00,49.584
1041.00,49.551
1042.00,49.551
1043.00,49.524
1044.00,49.562
1045.00,49.537
1046.00,49.530
1047.00,49.526
1048.00,49.552
1049.00,49.569
1050.00,49.558
1051.00,49.607
1052.00,49.596
1053.00,49.600
1054.00,49.606
1055.00,49.629
1056.00,49.639
1057.00,49.634
1058.00,49.615
1059.00,49.615
1060.00,49.620
1061.00,49.594
1062.00,49.595
1063.00,49.586
1064.00,49.594
1065.00,49.586
1066.00,49.588
1067.00,49.583
1068.00,49.597
1069.00,49.550
1070.00,49.527
1071.00,49.526
1072.00,49.541
1073.00,49.518
1074.00,49.506
1075.00,49.492
1076.00,49.489
1077.00,49.469
1078.00,49.442
1079.00,49.437
1080.00,49.437
1081.00,49.427
1082.00,49.412
1083.00,49.413
1084.00,49.415
1085.00,49.427
1086.00,49.408
1087.00,49.418
1088.00,49.385
1089.00,49.388
1090.00,49.375
1091.00,49.396
1092.00,49.395
1093.00,49.364
1094.00,49.346
1095.00,49.374
1096.00,49.318
1097.00,49.329
1098.00,49.312
1099.00,49.294
1100.00,49.280
1101.00,49.273
1102.00,49.266
1103.00,49.275
1104.00,49.257
1105.00,49.245
1106.00,49.230
1107.00,49.222
1108.00,49.214
1109.00,49.220
1110.00,49.218
1111.00,49.193
1112.00,49.179
1113.00,49.178
1114.00,49.181
1115.00,49.188
1116.00,49.176
1117.00,49.177
1118.00,49.162
1119.00,49.159
1120.00,49.153
1121.00,49.143
1122.00,49.132
1123.00,49.130
1124.00,49.107
1125.00,49.121
1126.00,49.098
1127.00,49.096
1128.00,49.095
1129.00,49.079
1130.00,49.061
1131.00,49.071
1132.00,49.065
1133.00,49.053
1134.00,49.048
1135.00,49.059
1136.00,49.030
1137.00,49.043
1138.00,49.041
1139.00,49.048
1140.00,49.034
1141.00,49.058
1142.00,48.996
1143.00,49.020
1144.00,49.000
1145.00,49.009
1146.00,49.009
1147.00,49.012
1148.00,49.007
1149.00,49.016
1150.00,49.012
1151.00,49.008
1152.00,48.991
1153.00,48.994
1154.00,48.978
1155.00,48.995
1156.00,48.983
1157.00,48.991
1158.00,48.991
1159.00,48.992
1160.00,48.980
1161.00,48.996
1162.00,48.982
1163.00,48.973
1164.00,48.993
1165.00,48.992
1166.00,48.998
1167.00,48.982
1168.00,48.988
1169.00,48.974
1170.00,48.970
1171.00,48.945
1172.00,48.962
1173.00,48.945
1174.00,48.950
1175.00,48.942
1176.00,48.951
1177.00,48.952
1178.00,48.945
1179.00,48.954
1180.00,48.939
1181.00,48.959
1182.00,48.943
1183.00,48.945
1184.00,48.937
1185.00,48.949
1186.00,48.934
1187.00,48.938
1188.00,48.941
1189.00,48.929
1190.00,48.927
1191.00,48.928
1192.00,48.950
1193.00,48.929
1194.00,48.957
1195.00,48.926
1196.00,48.957
1197.00,48.969
1198.00,48.936
1199.00,48.932
1200.00,48.948
1201.00,48.965
1202.00,48.944
1203.00,48.943
1204.00,48.921
1205.00,48.945
1206.00,48.919
1207.00,48.930
1208.00,48.915
1209.00,48.937
1210.00,48.952
1211.00,48.937
1212.00,48.948
1213.00,48.917
1214.00,48.955
1215.00,48.928
1216.00,48.939
1217.00,48.947
1218.00,48.922
1219.00,48.948
1220.00,48.925
1221.00,48.938
1222.00,48.910
1223.00,48.938
1224.00,48.955
1225.00,48.932
1226.00,48.940
1227.00,48.955
1228.00,48.968
1229.00,48.963
1230.00,48.992
1231.00,48.990
1232.00,49.017
1233.00,48.994
1234.00,48.996
1235.00,49.006
1236.00,48.999
1237.00,49.005
1238.00,49.005
1239.00,49.018
1240.00,49.009
1241.00,49.027
1242.00,49.034
1243.00,49.039
1244.00,49.005
1245.00,49.031
1246.00,49.037
1247.00,49.012
1248.00,49.020
1249.00,49.043
1250.00,49.048
1251.00,49.037
1252.00,49.059
1253.00,49.045
1254.00,49.080
1255.00,49.053
1256.00,49.050
1257.00,49.049
1258.00,49.090
1259.00,49.066
1260.00,49.092
1261.00,49.085
1262.00,49.096
1263.00,49.104
1264.00,49.089
1265.00,49.095
1266.00,49.094
1267.00,49.117
1268.00,49.124
1269.00,49.124
1270.00,49.149
1271.00,49.171
1272.00,49.158
1273.00,49.188
1274.00,49.168
1275.00,49.172
1276.00,49.168
1277.00,49.171
1278.00,49.180
1279.00,49.183
1280.00,49.178
1281.00,49.196
1282.00,49.201
1283.00,49.183
1284.00,49.213
1285.00,49.200
1286.00,49.224
1287.00,49.215
1288.00,49.215
1289.00,49.220
1290.00,49.259
1291.00,49.236
1292.00,49.233
1293.00,49.249
1294.00,49.265
1295.00,49.270
1296.00,49.276
1297.00,49.276
1298.00,49.305
1299.00,49.276
1300.00,49.306
1301.00,49.306
1302.00,49.321
1303.00,49.325
1304.00,49.320
1305.00,49.340
1306.00,49.354
1307.00,49.358
1308.00,49.353
1309.00,49.357
1310.00,49.340
1311.00,49.341
1312.00,49.354
1313.00,49.364
1314.00,49.378
1315.00,49.412
1316.00,49.408
1317.00,49.447
1318.00,49.434
1319.00,49.440
1320.00,49.453
1321.00,49.622
1322.00,49.604
1323.00,49.626
1324.00,49.593
1325.00,49.565
1326.00,49.615
1327.00,49.578
1328.00,49.583
1329.00,49.598
1330.00,49.588
1331.00,49.592
1332.00,49.600
1333.00,49.599
1334.00,49.635
1335.00,49.642
1336.00,49.665
1337.00,49.724
1338.00,49.790
1339.00,49.814
1340.00,49.881
1341.00,49.927
1342.00,50.000
1343.00,50.054
1344.00,50.080
1345.00,50.151
1346.00,50.187
1347.00,50.194
1348.00,50.241
1349.00,50.248
1350.00,50.283
1351.00,50.284
1352.00,50.310
1353.00,50.309
1354.00,50.311
1355.00,50.280
1356.00,50.319
1357.00,50.325
1358.00,50.360
1359.00,50.381
1360.00,50.382
1361.00,50.321
1362.00,50.369
1363.00,50.405
1364.00,50.343
1365.00,50.357
1366.00,50.340
1367.00,50.328
1368.00,50.402
1369.00,50.241
1370.00,50.386
1371.00,50.364
1372.00,50.376
1373.00,50.381
1374.00,50.388
1375.00,50.369
1376.00,50.397
1377.00,50.350
1378.00,50.424
1379.00,50.349
1380.00,50.359
1381.00,50.385
1382.00,50.308
1383.00,50.361
1384.00,50.314
1385.00,50.344
1386.00,50.360
1387.00,50.351
1388.00,50.314
1389.00,50.375
1390.00,50.373
1391.00,50.336
1392.00,50.373
1393.00,50.363
1394.00,50.396
1395.00,50.366
1396.00,50.309
1397.00,50.441
1398.00,50.372
1399.00,50.320
1400.00,50.304
1401.00,50.372
1402.00,50.436
1403.00,50.348
1404.00,50.376
1405.00,50.387
1406.00,50.423
1407.00,50.376
1408.00,50.377
1409.00,50.397
1410.00,50.441
1411.00,50.447
1412.00,50.479
1413.00,50.406
1414.00,50.470
1415.00,50.451
1416.00,50.499
1417.00,50.539
1418.00,50.486
1419.00,50.510
1420.00,50.552
1421.00,50.571
1422.00,50.577
1423.00,50.598
1424.00,50.593
1425.00,50.623
1426.00,50.621
1427.00,50.650
1428.00,50.652
1429.00,50.684
1430.00,50.681
1431.00,50.715
1432.00,50.705
1433.00,50.749
1434.00,50.730
1435.00,50.787
1436.00,50.818
1437.00,50.817
1438.00,50.841
1439.00,50.862
1440.00,50.862
1441.00,50.864
1442.00,50.897
1443.00,50.917
1444.00,50.987
1445.00,50.957
1446.00,50.983
1447.00,51.002
1448.00,51.034
1449.00,51.037
1450.00,51.063
1451.00,51.054
1452.00,51.081
1453.00,51.093
1454.00,51.099
1455.00,51.132
1456.00,51.153
1457.00,51.131
1458.00,51.181
1459.00,51.181
1460.00,51.232
1461.00,51.222
1462.00,51.257
1463.00,51.272
1464.00,51.288
1465.00,51.284
1466.00,51.305
1467.00,51.318
1468.00,51.366
1469.00,51.339
1470.00,51.358
1471.00,51.389
1472.00,51.397
1473.00,51.397
1474.00,51.430
1475.00,51.455
1476.00,51.467
1477.00,51.446
1478.00,51.486
1479.00,51.490
1480.00,51.503
1481.00,51.516
1482.00,51.541
1483.00,51.558
1484.00,51.562
1485.00,51.570
1486.00,51.598
1487.00,51.616
1488.00,51.656
1489.00,51.642
1490.00,51.673
1491.00,51.666
1492.00,51.688
1493.00,51.671
1494.00,51.736
1495.00,51.718
1496.00,51.739
1497.00,51.731
1498.00,51.750
1499.00,51.787
1500.00,51.790
1501.00, 
1502.00, 
1503.00, 
1504.00, 
1505.00, 
1506.00, 
1507.00, 
1508.00, 
1509.00, 
1510.00, 
1511.00, 
1512.00, 
1513.00, 
1514.00, 
1515.00, 
1516.00, 
1517.00, 
1518.00, 
1519.00, 
1520.00, 
1521.00, 
1522.00, 
1523.00, 
1524.00, 
1525.00, 
1526.00, 
1527.00, 
1528.00, 
1529.00, 
1530.00, 
1531.00, 
1532.00, 
1533.00, 
1534.00, 
1535.00, 
1536.00, 
1537.00, 
1538.00, 
1539.00, 
1540.00, 
1541.00, 
1542.00, 
1543.00, 
1544.00, 
1545.00, 
1546.00, 
1547.00, 
1548.00, 
1549.00, 
1550.00, 
1551.00, 
1552.00, 
1553.00, 
1554.00, 
1555.00, 
1556.00, 
1557.00, 
1558.00, 
1559.00, 
1560.00, 
1561.00, 
1562.00, 
1563.00, 
1564.00, 
1565.00, 
1566.00, 
1567.00, 
1568.00, 
1569.00, 
1570.00, 
1571.00, 
1572.00, 
1573.00, 
1574.00, 
1575.00, 
1576.00, 
1577.00, 
1578.00, 
1579.00, 
1580.00, 
1581.00, 
1582.00, 
1583.00, 
1584.00, 
1585.00, 
1586.00, 
1587.00, 
1588.00, 
1589.00, 
1590.00, 
1591.00, 
1592.00, 
1593.00, 
1594.00, 
1595.00, 
1596.00, 
1597.00, 
1598.00, 
1599.00, 
1600.00, 
1601.00, 
1602.00, 
1603.00, 
1604.00, 
1605.00, 
1606.00, 
1607.00, 
1608.00, 
1609.00, 
1610.00, 
1611.00, 
1612.00, 
1613.00, 
1614.00, 
1615.00, 
1616.00, 
1617.00, 
1618.00, 
1619.00, 
1620.00, 
1621.00, 
1622.00, 
1623.00, 
1624.00, 
1625.00, 
1626.00, 
1627.00, 
1628.00, 
1629.00, 
1630.00, 
1631.00, 
1632.00, 
1633.00, 
1634.00, 
1635.00, 
1636.00, 
1637.00, 
1638.00, 
1639.00, 
1640.00, 
1641.00, 
1642.00, 
1643.00, 
1644.00, 
1645.00, 
1646.00, 
1647.00, 
1648.00, 
1649.00, 
1650.00, 
1651.00, 
1652.00, 
1653.00, 
1654.00, 
1655.00, 
1656.00, 
1657.00, 
1658.00, 
1659.00, 
1660.00, 
1661.00, 
1662.00, 
1663.00, 
1664.00, 
1665.00, 
1666.00, 
1667.00, 
1668.00, 
1669.00, 
1670.00, 
1671.00, 
1672.00, 
1673.00, 
1674.00, 
1675.00, 
1676.00, 
1677.00, 
1678.00, 
1679.00, 
1680.00, 
1681.00, 
1682.00, 
1683.00, 
1684.00, 
1685.00, 
1686.00, 
1687.00, 
1688.00, 
1689.00, 
1690.00, 
1691.00, 
1692.00, 
1693.00, 
1694.00, 
1695.00, 
1696.00, 
1697.00, 
1698.00, 
1699.00, 
1700.00, 
1701.00, 
1702.00, 
1703.00, 
1704.00, 
1705.00, 
1706.00, 
1707.00, 
1708.00, 
1709.00, 
1710.00, 
1711.00, 
1712.00, 
1713.00, 
1714.00, 
1715.00, 
1716.00, 
1717.00, 
1718.00, 
1719.00, 
1720.00, 
1721.00, 
1722.00, 
1723.00, 
1724.00, 
1725.00, 
1726.00, 
1727.00, 
1728.00, 
1729.00, 
1730.00, 
1731.00, 
1732.00, 
1733.00, 
1734.00, 
1735.00, 
1736.00, 
1737.00, 
1738.00, 
1739.00, 
1740.00, 
1741.00, 
1742.00, 
1743.00, 
1744.00, 
1745.00, 
1746.00, 
1747.00, 
1748.00, 
1749.00, 
1750.00, 
1751.00, 
1752.00, 
1753.00, 
1754.00, 
1755.00, 
1756.00, 
1757.00, 
1758.00, 
1759.00, 
1760.00, 
1761.00, 
1762.00, 
1763.00, 
1764.00, 
1765.00, 
1766.00, 
1767.00, 
1768.00, 
1769.00, 
1770.00, 
1771.00, 
1772.00, 
1773.00, 
1774.00, 
1775.00, 
1776.00, 
1777.00, 
1778.00, 
1779.00, 
1780.00, 
1781.00, 
1782.00, 
1783.00, 
1784.00, 
1785.00, 
1786.00, 
1787.00, 
1788.00, 
1789.00, 
1790.00, 
1791.00, 
1792.00, 
1793.00, 
1794.00, 
1795.00, 
1796.00, 
1797.00, 
1798.00, 
1799.00, 
1800.00, 
1801.00, 
1802.00, 
1803.00, 
1804.00, 
1805.00, 
1806.00, 
1807.00, 
1808.00, 
1809.00, 
1810.00, 
1811.00, 
1812.00, 
1813.00, 
1814.00, 
1815.00, 
1816.00, 
1817.00, 
1818.00, 
1819.00, 
1820.00, 
1821.00, 
1822.00, 
1823.00, 
1824.00, 
1825.00, 
1826.00, 
1827.00, 
1828.00, 
1829.00, 
1830.00, 
1831.00, 
1832.00, 
1833.00, 
1834.00, 
1835.00, 
1836.00, 
1837.00, 
1838.00, 
1839.00, 
1840.00, 
1841.00, 
1842.00, 
1843.00, 
1844.00, 
1845.00, 
1846.00, 
1847.00, 
1848.00, 
1849.00, 
1850.00, 
1851.00, 
1852.00, 
1853.00, 
1854.00, 
1855.00, 
1856.00, 
1857.00, 
1858.00, 
1859.00, 
1860.00, 
1861.00, 
1862.00, 
1863.00, 
1864.00, 
1865.00, 
1866.00, 
1867.00, 
1868.00, 
1869.00, 
1870.00, 
1871.00, 
1872.00, 
1873.00, 
1874.00, 
1875.00, 
1876.00, 
1877.00, 
1878.00, 
1879.00, 
1880.00, 
1881.00, 
1882.00, 
1883.00, 
1884.00, 
1885.00, 
1886.00, 
1887.00, 
1888.00, 
1889.00, 
1890.00, 
1891.00, 
1892.00, 
1893.00, 
1894.00, 
1895.00, 
1896.00, 
1897.00, 
1898.00, 
1899.00, 
1900.00, 
1901.00, 
1902.00, 
1903.00, 
1904.00, 
1905.00, 
1906.00, 
1907.00, 
1908.00, 
1909.00, 
1910.00, 
1911.00, 
1912.00, 
1913.00, 
1914.00, 
1915.00, 
1916.00, 
1917.00, 
1918.00, 
1919.00, 
1920.00, 
1921.00, 
1922.00, 
1923.00, 
1924.00, 
1925.00, 
1926.00, 
1927.00, 
1928.00, 
1929.00, 
1930.00, 
1931.00, 
1932.00, 
1933.00, 
1934.00, 
1935.00, 
1936.00, 
1937.00, 
1938.00, 
1939.00, 
1940.00, 
1941.00, 
1942.00, 
1943.00, 
1944.00, 
1945.00, 
1946.00, 
1947.00, 
1948.00, 
1949.00, 
1950.00, 
1951.00, 
1952.00, 
1953.00, 
1954.00, 
1955.00, 
1956.00, 
1957.00, 
1958.00, 
1959.00, 
1960.00, 
1961.00, 
1962.00, 
1963.00, 
1964.00, 
1965.00, 
1966.00, 
1967.00, 
1968.00, 
1969.00, 
1970.00, 
1971.00, 
1972.00, 
1973.00, 
1974.00, 
1975.00, 
1976.00, 
1977.00, 
1978.00, 
1979.00, 
1980.00, 
1981.00, 
1982.00, 
1983.00, 
1984.00, 
1985.00, 
1986.00, 
1987.00, 
1988.00, 
1989.00, 
1990.00, 
1991.00, 
1992.00, 
1993.00, 
1994.00, 
1995.00, 
1996.00, 
1997.00, 
1998.00, 
1999.00, 
2000.00, 
2001.00, 
2002.00, 
2003.00, 
2004.00, 
2005.00, 
2006.00, 
2007.00, 
2008.00, 
2009.00, 
2010.00, 
2011.00, 
2012.00, 
2013.00, 
2014.00, 
2015.00, 
2016.00, 
2017.00, 
2018.00, 
2019.00, 
2020.00, 
2021.00, 
2022.00, 
2023.00, 
2024.00, 
2025.00, 
2026.00, 
2027.00, 
2028.00, 
2029.00, 
2030.00, 
2031.00, 
2032.00, 
2033.00, 
2034.00, 
2035.00, 
2036.00, 
2037.00, 
2038.00, 
2039.00, 
2040.00, 
2041.00, 
2042.00, 
2043.00, 
2044.00, 
2045.00, 
2046.00, 
2047.00, 
2048.00, 
2049.00, 
2050.00, 
2051.00, 
2052.00, 
2053.00, 
2054.00, 
2055.00, 
2056.00, 
2057.00, 
2058.00, 
2059.00, 
2060.00, 
2061.00, 
2062.00, 
2063.00, 
2064.00, 
2065.00, 
2066.00, 
2067.00, 
2068.00, 
2069.00, 
2070.00, 
2071.00, 
2072.00, 
2073.00, 
2074.00, 
2075.00, 
2076.00, 
2077.00, 
2078.00, 
2079.00, 
2080.00, 
2081.00, 
2082.00, 
2083.00, 
2084.00, 
2085.00, 
2086.00, 
2087.00, 
2088.00, 
2089.00, 
2090.00, 
2091.00, 
2092.00, 
2093.00, 
2094.00, 
2095.00, 
2096.00, 
2097.00, 
2098.00, 
2099.00, 
2100.00, 
2101.00, 
2102.00, 
2103.00, 
2104.00, 
2105.00, 
2106.00, 
2107.00, 
2108.00, 
2109.00, 
2110.00, 
2111.00, 
2112.00, 
2113.00, 
2114.00, 
2115.00, 
2116.00, 
2117.00, 
2118.00, 
2119.00, 
2120.00, 
2121.00, 
2122.00, 
2123.00, 
2124.00, 
2125.00, 
2126.00, 
2127.00, 
2128.00, 
2129.00, 
2130.00, 
2131.00, 
2132.00, 
2133.00, 
2134.00, 
2135.00, 
2136.00, 
2137.00, 
2138.00, 
2139.00, 
2140.00, 
2141.00, 
2142.00, 
2143.00, 
2144.00, 
2145.00, 
2146.00, 
2147.00, 
2148.00, 
2149.00, 
2150.00, 
2151.00, 
2152.00, 
2153.00, 
2154.00, 
2155.00, 
2156.00, 
2157.00, 
2158.00, 
2159.00, 
2160.00, 
2161.00, 
2162.00, 
2163.00, 
2164.00, 
2165.00, 
2166.00, 
2167.00, 
2168.00, 
2169.00, 
2170.00, 
2171.00, 
2172.00, 
2173.00, 
2174.00, 
2175.00, 
2176.00, 
2177.00, 
2178.00, 
2179.00, 
2180.00, 
2181.00, 
2182.00, 
2183.00, 
2184.00, 
2185.00, 
2186.00, 
2187.00, 
2188.00, 
2189.00, 
2190.00, 
2191.00, 
2192.00, 
2193.00, 
2194.00, 
2195.00, 
2196.00, 
2197.00, 
2198.00, 
2199.00, 
2200.00, 
2201.00, 
2202.00, 
2203.00, 
2204.00, 
2205.00, 
2206.00, 
2207.00, 
2208.00, 
2209.00, 
2210.00, 
2211.00, 
2212.00, 
2213.00, 
2214.00, 
2215.00, 
2216.00, 
2217.00, 
2218.00, 
2219.00, 
2220.00, 
2221.00, 
2222.00, 
2223.00, 
2224.00, 
2225.00, 
2226.00, 
2227.00, 
2228.00, 
2229.00, 
2230.00, 
2231.00, 
2232.00, 
2233.00, 
2234.00, 
2235.00, 
2236.00, 
2237.00, 
2238.00, 
2239.00, 
2240.00, 
2241.00, 
2242.00, 
2243.00, 
2244.00, 
2245.00, 
2246.00, 
2247.00, 
2248.00, 
2249.00, 
2250.00, 
2251.00, 
2252.00, 
2253.00, 
2254.00, 
2255.00, 
2256.00, 
2257.00, 
2258.00, 
2259.00, 
2260.00, 
2261.00, 
2262.00, 
2263.00, 
2264.00, 
2265.00, 
2266.00, 
2267.00, 
2268.00, 
2269.00, 
2270.00, 
2271.00, 
2272.00, 
2273.00, 
2274.00, 
2275.00, 
2276.00, 
2277.00, 
2278.00, 
2279.00, 
2280.00, 
2281.00, 
2282.00, 
2283.00, 
2284.00, 
2285.00, 
2286.00, 
2287.00, 
2288.00, 
2289.00, 
2290.00, 
2291.00, 
2292.00, 
2293.00, 
2294.00, 
2295.00, 
2296.00, 
2297.00, 
2298.00, 
2299.00, 
2300.00, 
2301.00, 
2302.00, 
2303.00, 
2304.00, 
2305.00, 
2306.00, 
2307.00, 
2308.00, 
2309.00, 
2310.00, 
2311.00, 
2312.00, 
2313.00, 
2314.00, 
2315.00, 
2316.00, 
2317.00, 
2318.00, 
2319.00, 
2320.00, 
2321.00, 
2322.00, 
2323.00, 
2324.00, 
2325.00, 
2326.00, 
2327.00, 
2328.00, 
2329.00, 
2330.00, 
2331.00, 
2332.00, 
2333.00, 
2334.00, 
2335.00, 
2336.00, 
2337.00, 
2338.00, 
2339.00, 
2340.00, 
2341.00, 
2342.00, 
2343.00, 
2344.00, 
2345.00, 
2346.00, 
2347.00, 
2348.00, 
2349.00, 
2350.00, 
2351.00, 
2352.00, 
2353.00, 
2354.00, 
2355.00, 
2356.00, 
2357.00, 
2358.00, 
2359.00, 
2360.00, 
2361.00, 
2362.00, 
2363.00, 
2364.00, 
2365.00, 
2366.00, 
2367.00, 
2368.00, 
2369.00, 
2370.00, 
2371.00, 
2372.00, 
2373.00, 
2374.00, 
2375.00, 
2376.00, 
2377.00, 
2378.00, 
2379.00, 
2380.00, 
2381.00, 
2382.00, 
2383.00, 
2384.00, 
2385.00, 
2386.00, 
2387.00, 
2388.00, 
2389.00, 
2390.00, 
2391.00, 
2392.00, 
2393.00, 
2394.00, 
2395.00, 
2396.00, 
2397.00, 
2398.00, 
2399.00, 
2400.00, 
2401.00, 
2402.00, 
2403.00, 
2404.00, 
2405.00, 
2406.00, 
2407.00, 
2408.00, 
2409.00, 
2410.00, 
2411.00, 
2412.00, 
2413.00, 
2414.00, 
2415.00, 
2416.00, 
2417.00, 
2418.00, 
2419.00, 
2420.00, 
2421.00, 
2422.00, 
2423.00, 
2424.00, 
2425.00, 
2426.00, 
2427.00, 
2428.00, 
2429.00, 
2430.00, 
2431.00, 
2432.00, 
2433.00, 
2434.00, 
2435.00, 
2436.00, 
2437.00, 
2438.00, 
2439.00, 
2440.00, 
2441.00, 
2442.00, 
2443.00, 
2444.00, 
2445.00, 
2446.00, 
2447.00, 
2448.00, 
2449.00, 
2450.00, 
2451.00, 
2452.00, 
2453.00, 
2454.00, 
2455.00, 
2456.00, 
2457.00, 
2458.00, 
2459.00, 
2460.00, 
2461.00, 
2462.00, 
2463.00, 
2464.00, 
2465.00, 
2466.00, 
2467.00, 
2468.00, 
2469.00, 
2470.00, 
2471.00, 
2472.00, 
2473.00, 
2474.00, 
2475.00, 
2476.00, 
2477.00, 
2478.00, 
2479.00, 
2480.00, 
2481.00, 
2482.00, 
2483.00, 
2484.00, 
2485.00, 
2486.00, 
2487.00, 
2488.00, 
2489.00, 
2490.00, 
2491.00, 
2492.00, 
2493.00, 
2494.00, 
2495.00, 
2496.00, 
2497.00, 
2498.00, 
2499.00, 
2500.00, 
2501.00, 
2502.00, 
2503.00, 
2504.00, 
2505.00, 
2506.00, 
2507.00, 
2508.00, 
2509.00, 
2510.00, 
2511.00, 
2512.00, 
2513.00, 
2514.00, 
2515.00, 
2516.00, 
2517.00, 
2518.00, 
2519.00, 
2520.00, 
2521.00, 
2522.00, 
2523.00, 
2524.00, 
2525.00, 
2526.00, 
2527.00, 
2528.00, 
2529.00, 
2530.00, 
2531.00, 
2532.00, 
2533.00, 
2534.00, 
2535.00, 
2536.00, 
2537.00, 
2538.00, 
2539.00, 
2540.00, 
2541.00, 
2542.00, 
2543.00, 
2544.00, 
2545.00, 
2546.00, 
2547.00, 
2548.00, 
2549.00, 
2550.00, 
2551.00, 
2552.00, 
2553.00, 
2554.00, 
2555.00, 
2556.00, 
2557.00, 
2558.00, 
2559.00, 
2560.00, 
2561.00, 
2562.00, 
2563.00, 
2564.00, 
2565.00, 
2566.00, 
2567.00, 
2568.00, 
2569.00, 
2570.00, 
2571.00, 
2572.00, 
2573.00, 
2574.00, 
2575.00, 
2576.00, 
2577.00, 
2578.00, 
2579.00, 
2580.00, 
2581.00, 
2582.00, 
2583.00, 
2584.00, 
2585.00, 
2586.00, 
2587.00, 
2588.00, 
2589.00, 
2590.00, 
2591.00, 
2592.00, 
2593.00, 
2594.00, 
2595.00, 
2596.00, 
2597.00, 
2598.00, 
2599.00, 
2600.00, 
