"1cP3 - RawData"
"Wavelength nm.","T%"
200.00,0.001
201.00,-0.003
202.00,0.001
203.00,0.002
204.00,-0.001
205.00,0.003
206.00,0.001
207.00,-0.001
208.00,0.000
209.00,-0.000
210.00,0.000
211.00,-0.000
212.00,0.001
213.00,0.002
214.00,0.002
215.00,0.000
216.00,-0.000
217.00,0.001
218.00,-0.001
219.00,0.002
220.00,0.001
221.00,-0.001
222.00,-0.000
223.00,0.000
224.00,-0.001
225.00,0.000
226.00,0.003
227.00,0.002
228.00,-0.002
229.00,0.000
230.00,-0.001
231.00,-0.001
232.00,0.000
233.00,-0.000
234.00,0.000
235.00,-0.000
236.00,0.002
237.00,0.002
238.00,-0.000
239.00,-0.000
240.00,0.001
241.00,0.001
242.00,0.001
243.00,-0.000
244.00,-0.001
245.00,0.002
246.00,0.001
247.00,0.002
248.00,0.000
249.00,-0.001
250.00,0.000
251.00,0.000
252.00,0.002
253.00,0.000
254.00,0.000
255.00,0.000
256.00,-0.000
257.00,0.001
258.00,0.000
259.00,-0.000
260.00,-0.001
261.00,0.002
262.00,0.001
263.00,-0.000
264.00,0.000
265.00,0.001
266.00,-0.001
267.00,-0.001
268.00,0.000
269.00,0.001
270.00,-0.001
271.00,0.000
272.00,0.001
273.00,0.001
274.00,0.000
275.00,0.002
276.00,-0.000
277.00,-0.000
278.00,-0.000
279.00,-0.001
280.00,0.000
281.00,-0.002
282.00,0.001
283.00,0.001
284.00,0.001
285.00,0.000
286.00,0.001
287.00,0.002
288.00,0.000
289.00,-0.000
290.00,-0.000
291.00,0.002
292.00,-0.000
293.00,0.000
294.00,-0.001
295.00,0.001
296.00,0.001
297.00,-0.001
298.00,-0.001
299.00,0.000
300.00,-0.001
301.00,-0.001
302.00,0.001
303.00,0.001
304.00,0.000
305.00,0.003
306.00,-0.000
307.00,0.002
308.00,0.007
309.00,0.008
310.00,0.013
311.00,0.021
312.00,0.033
313.00,0.049
314.00,0.082
315.00,0.119
316.00,0.166
317.00,0.237
318.00,0.322
319.00,0.427
320.00,0.571
321.00,0.735
322.00,0.937
323.00,1.195
324.00,1.430
325.00,1.773
326.00,2.092
327.00,2.484
328.00,2.911
329.00,3.341
330.00,3.815
331.00,4.303
332.00,4.846
333.00,5.424
334.00,5.885
335.00,6.547
336.00,7.147
337.00,7.753
338.00,8.352
339.00,8.894
340.00,9.471
341.00,10.046
342.00,10.603
343.00,11.128
344.00,11.686
345.00,12.151
346.00,12.602
347.00,13.045
348.00,13.455
349.00,13.864
350.00,14.221
351.00,14.567
352.00,14.856
353.00,15.170
354.00,15.492
355.00,15.784
356.00,16.004
357.00,16.242
358.00,16.482
359.00,16.759
360.00,16.887
361.00,16.937
362.00,17.143
363.00,17.274
364.00,17.321
365.00,17.439
366.00,17.501
367.00,17.557
368.00,17.647
369.00,17.674
370.00,17.704
371.00,17.700
372.00,17.634
373.00,17.731
374.00,17.656
375.00,17.520
376.00,17.541
377.00,17.445
378.00,17.368
379.00,17.250
380.00,17.231
381.00,17.206
382.00,17.210
383.00,17.222
384.00,17.252
385.00,17.271
386.00,17.234
387.00,17.353
388.00,17.408
389.00,17.381
390.00,17.425
391.00,17.437
392.00,17.467
393.00,17.442
394.00,17.488
395.00,17.490
396.00,17.455
397.00,17.512
398.00,17.467
399.00,17.492
400.00,17.453
401.00,17.425
402.00,17.501
403.00,17.492
404.00,17.446
405.00,17.426
406.00,17.423
407.00,17.369
408.00,17.349
409.00,17.276
410.00,17.228
411.00,17.231
412.00,17.188
413.00,17.216
414.00,17.160
415.00,17.167
416.00,17.217
417.00,17.176
418.00,17.226
419.00,17.293
420.00,17.303
421.00,17.244
422.00,17.227
423.00,17.282
424.00,17.295
425.00,17.329
426.00,17.356
427.00,17.386
428.00,17.428
429.00,17.458
430.00,17.501
431.00,17.549
432.00,17.572
433.00,17.596
434.00,17.635
435.00,17.743
436.00,17.765
437.00,17.819
438.00,17.876
439.00,17.913
440.00,17.987
441.00,18.047
442.00,18.132
443.00,18.164
444.00,18.259
445.00,18.336
446.00,18.425
447.00,18.470
448.00,18.604
449.00,18.685
450.00,18.793
451.00,18.873
452.00,18.924
453.00,19.042
454.00,19.176
455.00,19.245
456.00,19.392
457.00,19.513
458.00,19.578
459.00,19.717
460.00,19.824
461.00,19.980
462.00,20.042
463.00,20.178
464.00,20.293
465.00,20.428
466.00,20.551
467.00,20.654
468.00,20.765
469.00,20.874
470.00,20.979
471.00,21.082
472.00,21.198
473.00,21.247
474.00,21.357
475.00,21.529
476.00,21.584
477.00,21.775
478.00,21.906
479.00,22.080
480.00,22.206
481.00,22.311
482.00,22.460
483.00,22.608
484.00,22.759
485.00,22.905
486.00,23.059
487.00,23.232
488.00,23.353
489.00,23.509
490.00,23.682
491.00,23.817
492.00,23.954
493.00,24.143
494.00,24.321
495.00,24.294
496.00,24.454
497.00,24.591
498.00,24.734
499.00,24.869
500.00,24.957
501.00,25.118
502.00,25.182
503.00,25.415
504.00,25.483
505.00,25.630
506.00,25.753
507.00,25.871
508.00,26.000
509.00,26.176
510.00,26.288
511.00,26.361
512.00,26.551
513.00,26.689
514.00,26.819
515.00,26.948
516.00,27.052
517.00,27.144
518.00,27.314
519.00,27.404
520.00,27.481
521.00,27.613
522.00,27.726
523.00,27.784
524.00,27.890
525.00,28.027
526.00,28.119
527.00,28.222
528.00,28.327
529.00,28.576
530.00,28.691
531.00,28.757
532.00,28.850
533.00,28.955
534.00,29.037
535.00,29.165
536.00,29.247
537.00,29.348
538.00,29.415
539.00,29.478
540.00,29.617
541.00,29.680
542.00,29.722
543.00,29.791
544.00,29.867
545.00,29.960
546.00,30.017
547.00,30.155
548.00,30.219
549.00,30.321
550.00,30.402
551.00,30.540
552.00,30.587
553.00,30.647
554.00,30.732
555.00,30.769
556.00,30.832
557.00,30.936
558.00,31.005
559.00,31.108
560.00,31.168
561.00,31.240
562.00,31.349
563.00,31.392
564.00,31.432
565.00,31.483
566.00,31.522
567.00,31.580
568.00,31.628
569.00,31.692
570.00,31.724
571.00,31.785
572.00,31.852
573.00,31.855
574.00,31.903
575.00,31.934
576.00,31.933
577.00,31.999
578.00,32.098
579.00,32.169
580.00,32.222
581.00,32.382
582.00,32.454
583.00,32.442
584.00,32.571
585.00,32.639
586.00,32.716
587.00,32.765
588.00,32.778
589.00,32.747
590.00,32.799
591.00,32.885
592.00,32.868
593.00,32.962
594.00,33.064
595.00,33.112
596.00,33.152
597.00,33.187
598.00,33.305
599.00,33.333
600.00,33.420
601.00,33.465
602.00,33.519
603.00,33.552
604.00,33.570
605.00,33.661
606.00,33.831
607.00,33.858
608.00,33.832
609.00,33.959
610.00,34.127
611.00,33.951
612.00,33.958
613.00,34.035
614.00,34.101
615.00,34.234
616.00,34.301
617.00,34.272
618.00,34.335
619.00,34.395
620.00,34.424
621.00,34.502
622.00,34.606
623.00,34.705
624.00,34.768
625.00,34.846
626.00,34.936
627.00,34.936
628.00,35.031
629.00,35.071
630.00,35.075
631.00,35.089
632.00,35.306
633.00,35.415
634.00,35.537
635.00,35.633
636.00,35.682
637.00,35.719
638.00,35.837
639.00,35.912
640.00,35.982
641.00,36.019
642.00,36.141
643.00,36.225
644.00,36.279
645.00,36.382
646.00,36.591
647.00,36.582
648.00,36.695
649.00,36.764
650.00,36.783
651.00,36.979
652.00,37.042
653.00,37.092
654.00,37.161
655.00,37.336
656.00,37.588
657.00,37.558
658.00,37.799
659.00,37.854
660.00,37.947
661.00,37.930
662.00,37.988
663.00,38.128
664.00,38.488
665.00,38.589
666.00,38.455
667.00,38.595
668.00,38.623
669.00,38.923
670.00,39.166
671.00,39.010
672.00,39.109
673.00,39.255
674.00,39.399
675.00,39.472
676.00,39.667
677.00,39.923
678.00,39.597
679.00,39.836
680.00,39.923
681.00,40.102
682.00,40.182
683.00,40.183
684.00,40.434
685.00,40.536
686.00,40.467
687.00,40.653
688.00,40.771
689.00,40.838
690.00,41.156
691.00,41.382
692.00,41.108
693.00,41.080
694.00,41.283
695.00,41.477
696.00,41.578
697.00,41.600
698.00,41.775
699.00,41.950
700.00,42.014
701.00,41.993
702.00,42.164
703.00,42.436
704.00,42.503
705.00,42.535
706.00,42.624
707.00,42.657
708.00,42.651
709.00,43.037
710.00,43.445
711.00,43.030
712.00,43.131
713.00,43.259
714.00,43.323
715.00,43.406
716.00,43.314
717.00,43.529
718.00,43.712
719.00,43.694
720.00,43.865
721.00,48.394
722.00,48.379
723.00,48.390
724.00,48.427
725.00,48.445
726.00,48.521
727.00,48.536
728.00,48.597
729.00,48.664
730.00,48.703
731.00,48.710
732.00,48.818
733.00,48.828
734.00,48.875
735.00,49.052
736.00,49.038
737.00,49.127
738.00,49.130
739.00,49.263
740.00,49.241
741.00,49.353
742.00,49.306
743.00,49.330
744.00,49.342
745.00,49.362
746.00,49.442
747.00,49.427
748.00,49.481
749.00,49.502
750.00,49.498
751.00,49.534
752.00,49.598
753.00,49.592
754.00,49.564
755.00,49.634
756.00,49.625
757.00,49.659
758.00,49.748
759.00,49.671
760.00,49.748
761.00,49.748
762.00,49.822
763.00,49.818
764.00,49.906
765.00,49.898
766.00,49.950
767.00,49.930
768.00,49.941
769.00,50.000
770.00,50.008
771.00,49.976
772.00,50.095
773.00,50.044
774.00,50.163
775.00,50.225
776.00,50.088
777.00,50.202
778.00,50.109
779.00,50.214
780.00,50.126
781.00,50.255
782.00,50.290
783.00,50.115
784.00,50.276
785.00,50.139
786.00,50.294
787.00,50.223
788.00,50.244
789.00,50.251
790.00,50.167
791.00,50.234
792.00,50.237
793.00,50.229
794.00,50.279
795.00,50.219
796.00,50.190
797.00,50.156
798.00,50.281
799.00,50.200
800.00,50.164
801.00,50.209
802.00,50.234
803.00,50.237
804.00,50.107
805.00,50.183
806.00,50.177
807.00,50.162
808.00,50.257
809.00,50.213
810.00,50.131
811.00,50.157
812.00,50.156
813.00,50.031
814.00,50.111
815.00,50.150
816.00,50.086
817.00,50.100
818.00,50.023
819.00,50.091
820.00,49.963
821.00,50.080
822.00,50.044
823.00,50.057
824.00,50.039
825.00,50.075
826.00,50.034
827.00,50.163
828.00,50.015
829.00,50.007
830.00,49.995
831.00,52.509
832.00,52.481
833.00,52.423
834.00,52.429
835.00,52.400
836.00,52.384
837.00,52.360
838.00,52.341
839.00,52.386
840.00,52.281
841.00,52.347
842.00,52.287
843.00,52.317
844.00,52.320
845.00,52.261
846.00,52.287
847.00,52.219
848.00,52.234
849.00,52.159
850.00,52.157
851.00,52.114
852.00,52.103
853.00,52.089
854.00,52.079
855.00,52.004
856.00,52.029
857.00,52.030
858.00,51.966
859.00,51.964
860.00,52.007
861.00,51.957
862.00,51.925
863.00,51.937
864.00,51.917
865.00,51.951
866.00,51.930
867.00,51.888
868.00,51.871
869.00,51.865
870.00,51.902
871.00,51.840
872.00,51.866
873.00,51.827
874.00,51.862
875.00,51.812
876.00,51.804
877.00,51.822
878.00,51.845
879.00,51.737
880.00,51.814
881.00,51.736
882.00,51.760
883.00,51.728
884.00,51.690
885.00,51.682
886.00,51.673
887.00,51.645
888.00,51.618
889.00,51.614
890.00,51.616
891.00,51.587
892.00,51.565
893.00,51.555
894.00,51.543
895.00,51.516
896.00,51.495
897.00,51.494
898.00,51.475
899.00,51.495
900.00,51.457
901.00,51.429
902.00,51.439
903.00,51.399
904.00,51.383
905.00,51.375
906.00,51.370
907.00,51.353
908.00,51.330
909.00,51.301
910.00,51.280
911.00,51.282
912.00,51.245
913.00,51.271
914.00,51.132
915.00,51.191
916.00,51.161
917.00,51.164
918.00,51.164
919.00,51.120
920.00,51.080
921.00,51.109
922.00,51.090
923.00,51.051
924.00,50.996
925.00,51.041
926.00,51.012
927.00,50.986
928.00,50.964
929.00,51.011
930.00,50.949
931.00,50.911
932.00,50.876
933.00,50.923
934.00,50.830
935.00,50.816
936.00,50.797
937.00,50.796
938.00,50.796
939.00,50.802
940.00,50.762
941.00,50.776
942.00,50.735
943.00,50.716
944.00,50.680
945.00,50.687
946.00,50.612
947.00,50.637
948.00,50.614
949.00,50.606
950.00,50.605
951.00,50.574
952.00,50.564
953.00,50.522
954.00,50.482
955.00,50.453
956.00,50.442
957.00,50.448
958.00,50.440
959.00,50.347
960.00,50.378
961.00,50.372
962.00,50.366
963.00,50.340
964.00,50.318
965.00,50.339
966.00,50.311
967.00,50.303
968.00,50.268
969.00,50.313
970.00,50.274
971.00,50.292
972.00,50.247
973.00,50.289
974.00,50.326
975.00,50.268
976.00,50.290
977.00,50.282
978.00,50.321
979.00,50.288
980.00,50.293
981.00,50.288
982.00,50.248
983.00,50.258
984.00,50.229
985.00,50.262
986.00,50.219
987.00,50.234
988.00,50.228
989.00,50.197
990.00,50.207
991.00,50.183
992.00,50.199
993.00,50.179
994.00,50.147
995.00,50.114
996.00,50.134
997.00,50.120
998.00,50.107
999.00,50.123
1000.00,50.082
1001.00,50.090
1002.00,50.072
1003.00,50.040
1004.00,50.039
1005.00,49.998
1006.00,50.033
1007.00,50.001
1008.00,49.972
1009.00,49.954
1010.00,49.958
1011.00,49.933
1012.00,49.917
1013.00,49.914
1014.00,49.878
1015.00,49.919
1016.00,49.876
1017.00,49.863
1018.00,49.863
1019.00,49.822
1020.00,49.808
1021.00,49.796
1022.00,49.775
1023.00,49.749
1024.00,49.757
1025.00,49.726
1026.00,49.722
1027.00,49.692
1028.00,49.675
1029.00,49.687
1030.00,49.636
1031.00,49.663
1032.00,49.627
1033.00,49.624
1034.00,49.603
1035.00,49.567
1036.00,49.532
1037.00,49.534
1038.00,49.513
1039.00,49.488
1040.00,49.481
1041.00,49.445
1042.00,49.470
1043.00,49.425
1044.00,49.451
1045.00,49.446
1046.00,49.418
1047.00,49.434
1048.00,49.451
1049.00,49.458
1050.00,49.458
1051.00,49.506
1052.00,49.482
1053.00,49.496
1054.00,49.515
1055.00,49.518
1056.00,49.540
1057.00,49.553
1058.00,49.518
1059.00,49.524
1060.00,49.522
1061.00,49.501
1062.00,49.511
1063.00,49.501
1064.00,49.508
1065.00,49.500
1066.00,49.483
1067.00,49.483
1068.00,49.502
1069.00,49.446
1070.00,49.437
1071.00,49.429
1072.00,49.449
1073.00,49.428
1074.00,49.418
1075.00,49.421
1076.00,49.416
1077.00,49.386
1078.00,49.379
1079.00,49.369
1080.00,49.366
1081.00,49.375
1082.00,49.377
1083.00,49.358
1084.00,49.352
1085.00,49.336
1086.00,49.320
1087.00,49.334
1088.00,49.300
1089.00,49.301
1090.00,49.286
1091.00,49.291
1092.00,49.292
1093.00,49.271
1094.00,49.248
1095.00,49.269
1096.00,49.235
1097.00,49.246
1098.00,49.241
1099.00,49.217
1100.00,49.226
1101.00,49.212
1102.00,49.188
1103.00,49.230
1104.00,49.176
1105.00,49.168
1106.00,49.163
1107.00,49.146
1108.00,49.138
1109.00,49.137
1110.00,49.126
1111.00,49.124
1112.00,49.105
1113.00,49.095
1114.00,49.092
1115.00,49.095
1116.00,49.082
1117.00,49.097
1118.00,49.076
1119.00,49.067
1120.00,49.067
1121.00,49.056
1122.00,49.049
1123.00,49.051
1124.00,49.028
1125.00,49.044
1126.00,49.016
1127.00,49.014
1128.00,49.021
1129.00,48.980
1130.00,48.975
1131.00,49.014
1132.00,48.968
1133.00,48.981
1134.00,48.975
1135.00,48.956
1136.00,48.960
1137.00,48.974
1138.00,48.962
1139.00,48.976
1140.00,48.942
1141.00,48.953
1142.00,48.936
1143.00,48.955
1144.00,48.929
1145.00,48.935
1146.00,48.925
1147.00,48.930
1148.00,48.921
1149.00,48.943
1150.00,48.954
1151.00,48.917
1152.00,48.910
1153.00,48.930
1154.00,48.914
1155.00,48.925
1156.00,48.908
1157.00,48.922
1158.00,48.909
1159.00,48.908
1160.00,48.893
1161.00,48.945
1162.00,48.904
1163.00,48.904
1164.00,48.935
1165.00,48.887
1166.00,48.896
1167.00,48.886
1168.00,48.905
1169.00,48.909
1170.00,48.888
1171.00,48.866
1172.00,48.900
1173.00,48.876
1174.00,48.888
1175.00,48.882
1176.00,48.873
1177.00,48.855
1178.00,48.853
1179.00,48.868
1180.00,48.850
1181.00,48.870
1182.00,48.845
1183.00,48.851
1184.00,48.833
1185.00,48.858
1186.00,48.861
1187.00,48.866
1188.00,48.885
1189.00,48.879
1190.00,48.869
1191.00,48.876
1192.00,48.888
1193.00,48.856
1194.00,48.879
1195.00,48.837
1196.00,48.868
1197.00,48.886
1198.00,48.845
1199.00,48.861
1200.00,48.886
1201.00,48.896
1202.00,48.874
1203.00,48.870
1204.00,48.850
1205.00,48.896
1206.00,48.867
1207.00,48.866
1208.00,48.862
1209.00,48.867
1210.00,48.879
1211.00,48.861
1212.00,48.870
1213.00,48.845
1214.00,48.876
1215.00,48.858
1216.00,48.876
1217.00,48.867
1218.00,48.848
1219.00,48.876
1220.00,48.845
1221.00,48.872
1222.00,48.866
1223.00,48.870
1224.00,48.880
1225.00,48.873
1226.00,48.872
1227.00,48.890
1228.00,48.899
1229.00,48.885
1230.00,48.933
1231.00,48.906
1232.00,48.943
1233.00,48.940
1234.00,48.919
1235.00,48.921
1236.00,48.908
1237.00,48.924
1238.00,48.932
1239.00,48.945
1240.00,48.942
1241.00,48.952
1242.00,48.933
1243.00,48.942
1244.00,48.922
1245.00,48.946
1246.00,48.960
1247.00,48.929
1248.00,48.946
1249.00,48.975
1250.00,48.973
1251.00,48.970
1252.00,48.985
1253.00,48.961
1254.00,49.007
1255.00,48.985
1256.00,48.996
1257.00,48.986
1258.00,49.028
1259.00,49.023
1260.00,49.052
1261.00,49.032
1262.00,49.029
1263.00,49.034
1264.00,49.030
1265.00,49.048
1266.00,49.044
1267.00,49.051
1268.00,49.067
1269.00,49.058
1270.00,49.069
1271.00,49.092
1272.00,49.076
1273.00,49.101
1274.00,49.094
1275.00,49.098
1276.00,49.100
1277.00,49.111
1278.00,49.115
1279.00,49.122
1280.00,49.109
1281.00,49.126
1282.00,49.134
1283.00,49.118
1284.00,49.136
1285.00,49.135
1286.00,49.157
1287.00,49.138
1288.00,49.140
1289.00,49.129
1290.00,49.176
1291.00,49.167
1292.00,49.174
1293.00,49.192
1294.00,49.192
1295.00,49.194
1296.00,49.205
1297.00,49.201
1298.00,49.243
1299.00,49.218
1300.00,49.251
1301.00,49.239
1302.00,49.254
1303.00,49.250
1304.00,49.253
1305.00,49.270
1306.00,49.274
1307.00,49.296
1308.00,49.285
1309.00,49.302
1310.00,49.290
1311.00,49.265
1312.00,49.293
1313.00,49.286
1314.00,49.301
1315.00,49.337
1316.00,49.323
1317.00,49.375
1318.00,49.360
1319.00,49.362
1320.00,49.378
1321.00,49.551
1322.00,49.534
1323.00,49.542
1324.00,49.552
1325.00,49.508
1326.00,49.544
1327.00,49.529
1328.00,49.518
1329.00,49.563
1330.00,49.553
1331.00,49.529
1332.00,49.559
1333.00,49.551
1334.00,49.588
1335.00,49.602
1336.00,49.631
1337.00,49.649
1338.00,49.724
1339.00,49.762
1340.00,49.830
1341.00,49.869
1342.00,49.928
1343.00,50.004
1344.00,50.040
1345.00,50.137
1346.00,50.137
1347.00,50.152
1348.00,50.186
1349.00,50.198
1350.00,50.227
1351.00,50.241
1352.00,50.267
1353.00,50.239
1354.00,50.265
1355.00,50.212
1356.00,50.247
1357.00,50.270
1358.00,50.299
1359.00,50.319
1360.00,50.358
1361.00,50.242
1362.00,50.290
1363.00,50.330
1364.00,50.286
1365.00,50.307
1366.00,50.359
1367.00,50.282
1368.00,50.323
1369.00,50.307
1370.00,50.302
1371.00,50.269
1372.00,50.287
1373.00,50.309
1374.00,50.329
1375.00,50.300
1376.00,50.338
1377.00,50.282
1378.00,50.411
1379.00,50.323
1380.00,50.325
1381.00,50.317
1382.00,50.277
1383.00,50.310
1384.00,50.274
1385.00,50.331
1386.00,50.306
1387.00,50.282
1388.00,50.259
1389.00,50.339
1390.00,50.323
1391.00,50.251
1392.00,50.296
1393.00,50.312
1394.00,50.306
1395.00,50.241
1396.00,50.234
1397.00,50.356
1398.00,50.372
1399.00,50.293
1400.00,50.276
1401.00,50.334
1402.00,50.424
1403.00,50.326
1404.00,50.335
1405.00,50.355
1406.00,50.408
1407.00,50.357
1408.00,50.343
1409.00,50.379
1410.00,50.416
1411.00,50.429
1412.00,50.483
1413.00,50.356
1414.00,50.394
1415.00,50.449
1416.00,50.454
1417.00,50.495
1418.00,50.442
1419.00,50.448
1420.00,50.505
1421.00,50.543
1422.00,50.523
1423.00,50.550
1424.00,50.539
1425.00,50.588
1426.00,50.585
1427.00,50.604
1428.00,50.621
1429.00,50.641
1430.00,50.650
1431.00,50.689
1432.00,50.680
1433.00,50.711
1434.00,50.702
1435.00,50.747
1436.00,50.763
1437.00,50.744
1438.00,50.771
1439.00,50.810
1440.00,50.812
1441.00,50.830
1442.00,50.851
1443.00,50.866
1444.00,50.924
1445.00,50.876
1446.00,50.908
1447.00,50.945
1448.00,50.979
1449.00,50.967
1450.00,51.004
1451.00,50.992
1452.00,51.020
1453.00,51.026
1454.00,51.041
1455.00,51.077
1456.00,51.090
1457.00,51.086
1458.00,51.131
1459.00,51.125
1460.00,51.164
1461.00,51.165
1462.00,51.205
1463.00,51.206
1464.00,51.234
1465.00,51.229
1466.00,51.244
1467.00,51.271
1468.00,51.316
1469.00,51.301
1470.00,51.324
1471.00,51.339
1472.00,51.360
1473.00,51.359
1474.00,51.414
1475.00,51.437
1476.00,51.439
1477.00,51.430
1478.00,51.461
1479.00,51.459
1480.00,51.464
1481.00,51.467
1482.00,51.491
1483.00,51.517
1484.00,51.520
1485.00,51.530
1486.00,51.565
1487.00,51.572
1488.00,51.620
1489.00,51.602
1490.00,51.624
1491.00,51.631
1492.00,51.656
1493.00,51.620
1494.00,51.687
1495.00,51.660
1496.00,51.674
1497.00,51.665
1498.00,51.684
1499.00,51.714
1500.00,51.732
1501.00, 
1502.00, 
1503.00, 
1504.00, 
1505.00, 
1506.00, 
1507.00, 
1508.00, 
1509.00, 
1510.00, 
1511.00, 
1512.00, 
1513.00, 
1514.00, 
1515.00, 
1516.00, 
1517.00, 
1518.00, 
1519.00, 
1520.00, 
1521.00, 
1522.00, 
1523.00, 
1524.00, 
1525.00, 
1526.00, 
1527.00, 
1528.00, 
1529.00, 
1530.00, 
1531.00, 
1532.00, 
1533.00, 
1534.00, 
1535.00, 
1536.00, 
1537.00, 
1538.00, 
1539.00, 
1540.00, 
1541.00, 
1542.00, 
1543.00, 
1544.00, 
1545.00, 
1546.00, 
1547.00, 
1548.00, 
1549.00, 
1550.00, 
1551.00, 
1552.00, 
1553.00, 
1554.00, 
1555.00, 
1556.00, 
1557.00, 
1558.00, 
1559.00, 
1560.00, 
1561.00, 
1562.00, 
1563.00, 
1564.00, 
1565.00, 
1566.00, 
1567.00, 
1568.00, 
1569.00, 
1570.00, 
1571.00, 
1572.00, 
1573.00, 
1574.00, 
1575.00, 
1576.00, 
1577.00, 
1578.00, 
1579.00, 
1580.00, 
1581.00, 
1582.00, 
1583.00, 
1584.00, 
1585.00, 
1586.00, 
1587.00, 
1588.00, 
1589.00, 
1590.00, 
1591.00, 
1592.00, 
1593.00, 
1594.00, 
1595.00, 
1596.00, 
1597.00, 
1598.00, 
1599.00, 
1600.00, 
1601.00, 
1602.00, 
1603.00, 
1604.00, 
1605.00, 
1606.00, 
1607.00, 
1608.00, 
1609.00, 
1610.00, 
1611.00, 
1612.00, 
1613.00, 
1614.00, 
1615.00, 
1616.00, 
1617.00, 
1618.00, 
1619.00, 
1620.00, 
1621.00, 
1622.00, 
1623.00, 
1624.00, 
1625.00, 
1626.00, 
1627.00, 
1628.00, 
1629.00, 
1630.00, 
1631.00, 
1632.00, 
1633.00, 
1634.00, 
1635.00, 
1636.00, 
1637.00, 
1638.00, 
1639.00, 
1640.00, 
1641.00, 
1642.00, 
1643.00, 
1644.00, 
1645.00, 
1646.00, 
1647.00, 
1648.00, 
1649.00, 
1650.00, 
1651.00, 
1652.00, 
1653.00, 
1654.00, 
1655.00, 
1656.00, 
1657.00, 
1658.00, 
1659.00, 
1660.00, 
1661.00, 
1662.00, 
1663.00, 
1664.00, 
1665.00, 
1666.00, 
1667.00, 
1668.00, 
1669.00, 
1670.00, 
1671.00, 
1672.00, 
1673.00, 
1674.00, 
1675.00, 
1676.00, 
1677.00, 
1678.00, 
1679.00, 
1680.00, 
1681.00, 
1682.00, 
1683.00, 
1684.00, 
1685.00, 
1686.00, 
1687.00, 
1688.00, 
1689.00, 
1690.00, 
1691.00, 
1692.00, 
1693.00, 
1694.00, 
1695.00, 
1696.00, 
1697.00, 
1698.00, 
1699.00, 
1700.00, 
1701.00, 
1702.00, 
1703.00, 
1704.00, 
1705.00, 
1706.00, 
1707.00, 
1708.00, 
1709.00, 
1710.00, 
1711.00, 
1712.00, 
1713.00, 
1714.00, 
1715.00, 
1716.00, 
1717.00, 
1718.00, 
1719.00, 
1720.00, 
1721.00, 
1722.00, 
1723.00, 
1724.00, 
1725.00, 
1726.00, 
1727.00, 
1728.00, 
1729.00, 
1730.00, 
1731.00, 
1732.00, 
1733.00, 
1734.00, 
1735.00, 
1736.00, 
1737.00, 
1738.00, 
1739.00, 
1740.00, 
1741.00, 
1742.00, 
1743.00, 
1744.00, 
1745.00, 
1746.00, 
1747.00, 
1748.00, 
1749.00, 
1750.00, 
1751.00, 
1752.00, 
1753.00, 
1754.00, 
1755.00, 
1756.00, 
1757.00, 
1758.00, 
1759.00, 
1760.00, 
1761.00, 
1762.00, 
1763.00, 
1764.00, 
1765.00, 
1766.00, 
1767.00, 
1768.00, 
1769.00, 
1770.00, 
1771.00, 
1772.00, 
1773.00, 
1774.00, 
1775.00, 
1776.00, 
1777.00, 
1778.00, 
1779.00, 
1780.00, 
1781.00, 
1782.00, 
1783.00, 
1784.00, 
1785.00, 
1786.00, 
1787.00, 
1788.00, 
1789.00, 
1790.00, 
1791.00, 
1792.00, 
1793.00, 
1794.00, 
1795.00, 
1796.00, 
1797.00, 
1798.00, 
1799.00, 
1800.00, 
1801.00, 
1802.00, 
1803.00, 
1804.00, 
1805.00, 
1806.00, 
1807.00, 
1808.00, 
1809.00, 
1810.00, 
1811.00, 
1812.00, 
1813.00, 
1814.00, 
1815.00, 
1816.00, 
1817.00, 
1818.00, 
1819.00, 
1820.00, 
1821.00, 
1822.00, 
1823.00, 
1824.00, 
1825.00, 
1826.00, 
1827.00, 
1828.00, 
1829.00, 
1830.00, 
1831.00, 
1832.00, 
1833.00, 
1834.00, 
1835.00, 
1836.00, 
1837.00, 
1838.00, 
1839.00, 
1840.00, 
1841.00, 
1842.00, 
1843.00, 
1844.00, 
1845.00, 
1846.00, 
1847.00, 
1848.00, 
1849.00, 
1850.00, 
1851.00, 
1852.00, 
1853.00, 
1854.00, 
1855.00, 
1856.00, 
1857.00, 
1858.00, 
1859.00, 
1860.00, 
1861.00, 
1862.00, 
1863.00, 
1864.00, 
1865.00, 
1866.00, 
1867.00, 
1868.00, 
1869.00, 
1870.00, 
1871.00, 
1872.00, 
1873.00, 
1874.00, 
1875.00, 
1876.00, 
1877.00, 
1878.00, 
1879.00, 
1880.00, 
1881.00, 
1882.00, 
1883.00, 
1884.00, 
1885.00, 
1886.00, 
1887.00, 
1888.00, 
1889.00, 
1890.00, 
1891.00, 
1892.00, 
1893.00, 
1894.00, 
1895.00, 
1896.00, 
1897.00, 
1898.00, 
1899.00, 
1900.00, 
1901.00, 
1902.00, 
1903.00, 
1904.00, 
1905.00, 
1906.00, 
1907.00, 
1908.00, 
1909.00, 
1910.00, 
1911.00, 
1912.00, 
1913.00, 
1914.00, 
1915.00, 
1916.00, 
1917.00, 
1918.00, 
1919.00, 
1920.00, 
1921.00, 
1922.00, 
1923.00, 
1924.00, 
1925.00, 
1926.00, 
1927.00, 
1928.00, 
1929.00, 
1930.00, 
1931.00, 
1932.00, 
1933.00, 
1934.00, 
1935.00, 
1936.00, 
1937.00, 
1938.00, 
1939.00, 
1940.00, 
1941.00, 
1942.00, 
1943.00, 
1944.00, 
1945.00, 
1946.00, 
1947.00, 
1948.00, 
1949.00, 
1950.00, 
1951.00, 
1952.00, 
1953.00, 
1954.00, 
1955.00, 
1956.00, 
1957.00, 
1958.00, 
1959.00, 
1960.00, 
1961.00, 
1962.00, 
1963.00, 
1964.00, 
1965.00, 
1966.00, 
1967.00, 
1968.00, 
1969.00, 
1970.00, 
1971.00, 
1972.00, 
1973.00, 
1974.00, 
1975.00, 
1976.00, 
1977.00, 
1978.00, 
1979.00, 
1980.00, 
1981.00, 
1982.00, 
1983.00, 
1984.00, 
1985.00, 
1986.00, 
1987.00, 
1988.00, 
1989.00, 
1990.00, 
1991.00, 
1992.00, 
1993.00, 
1994.00, 
1995.00, 
1996.00, 
1997.00, 
1998.00, 
1999.00, 
2000.00, 
2001.00, 
2002.00, 
2003.00, 
2004.00, 
2005.00, 
2006.00, 
2007.00, 
2008.00, 
2009.00, 
2010.00, 
2011.00, 
2012.00, 
2013.00, 
2014.00, 
2015.00, 
2016.00, 
2017.00, 
2018.00, 
2019.00, 
2020.00, 
2021.00, 
2022.00, 
2023.00, 
2024.00, 
2025.00, 
2026.00, 
2027.00, 
2028.00, 
2029.00, 
2030.00, 
2031.00, 
2032.00, 
2033.00, 
2034.00, 
2035.00, 
2036.00, 
2037.00, 
2038.00, 
2039.00, 
2040.00, 
2041.00, 
2042.00, 
2043.00, 
2044.00, 
2045.00, 
2046.00, 
2047.00, 
2048.00, 
2049.00, 
2050.00, 
2051.00, 
2052.00, 
2053.00, 
2054.00, 
2055.00, 
2056.00, 
2057.00, 
2058.00, 
2059.00, 
2060.00, 
2061.00, 
2062.00, 
2063.00, 
2064.00, 
2065.00, 
2066.00, 
2067.00, 
2068.00, 
2069.00, 
2070.00, 
2071.00, 
2072.00, 
2073.00, 
2074.00, 
2075.00, 
2076.00, 
2077.00, 
2078.00, 
2079.00, 
2080.00, 
2081.00, 
2082.00, 
2083.00, 
2084.00, 
2085.00, 
2086.00, 
2087.00, 
2088.00, 
2089.00, 
2090.00, 
2091.00, 
2092.00, 
2093.00, 
2094.00, 
2095.00, 
2096.00, 
2097.00, 
2098.00, 
2099.00, 
2100.00, 
2101.00, 
2102.00, 
2103.00, 
2104.00, 
2105.00, 
2106.00, 
2107.00, 
2108.00, 
2109.00, 
2110.00, 
2111.00, 
2112.00, 
2113.00, 
2114.00, 
2115.00, 
2116.00, 
2117.00, 
2118.00, 
2119.00, 
2120.00, 
2121.00, 
2122.00, 
2123.00, 
2124.00, 
2125.00, 
2126.00, 
2127.00, 
2128.00, 
2129.00, 
2130.00, 
2131.00, 
2132.00, 
2133.00, 
2134.00, 
2135.00, 
2136.00, 
2137.00, 
2138.00, 
2139.00, 
2140.00, 
2141.00, 
2142.00, 
2143.00, 
2144.00, 
2145.00, 
2146.00, 
2147.00, 
2148.00, 
2149.00, 
2150.00, 
2151.00, 
2152.00, 
2153.00, 
2154.00, 
2155.00, 
2156.00, 
2157.00, 
2158.00, 
2159.00, 
2160.00, 
2161.00, 
2162.00, 
2163.00, 
2164.00, 
2165.00, 
2166.00, 
2167.00, 
2168.00, 
2169.00, 
2170.00, 
2171.00, 
2172.00, 
2173.00, 
2174.00, 
2175.00, 
2176.00, 
2177.00, 
2178.00, 
2179.00, 
2180.00, 
2181.00, 
2182.00, 
2183.00, 
2184.00, 
2185.00, 
2186.00, 
2187.00, 
2188.00, 
2189.00, 
2190.00, 
2191.00, 
2192.00, 
2193.00, 
2194.00, 
2195.00, 
2196.00, 
2197.00, 
2198.00, 
2199.00, 
2200.00, 
2201.00, 
2202.00, 
2203.00, 
2204.00, 
2205.00, 
2206.00, 
2207.00, 
2208.00, 
2209.00, 
2210.00, 
2211.00, 
2212.00, 
2213.00, 
2214.00, 
2215.00, 
2216.00, 
2217.00, 
2218.00, 
2219.00, 
2220.00, 
2221.00, 
2222.00, 
2223.00, 
2224.00, 
2225.00, 
2226.00, 
2227.00, 
2228.00, 
2229.00, 
2230.00, 
2231.00, 
2232.00, 
2233.00, 
2234.00, 
2235.00, 
2236.00, 
2237.00, 
2238.00, 
2239.00, 
2240.00, 
2241.00, 
2242.00, 
2243.00, 
2244.00, 
2245.00, 
2246.00, 
2247.00, 
2248.00, 
2249.00, 
2250.00, 
2251.00, 
2252.00, 
2253.00, 
2254.00, 
2255.00, 
2256.00, 
2257.00, 
2258.00, 
2259.00, 
2260.00, 
2261.00, 
2262.00, 
2263.00, 
2264.00, 
2265.00, 
2266.00, 
2267.00, 
2268.00, 
2269.00, 
2270.00, 
2271.00, 
2272.00, 
2273.00, 
2274.00, 
2275.00, 
2276.00, 
2277.00, 
2278.00, 
2279.00, 
2280.00, 
2281.00, 
2282.00, 
2283.00, 
2284.00, 
2285.00, 
2286.00, 
2287.00, 
2288.00, 
2289.00, 
2290.00, 
2291.00, 
2292.00, 
2293.00, 
2294.00, 
2295.00, 
2296.00, 
2297.00, 
2298.00, 
2299.00, 
2300.00, 
2301.00, 
2302.00, 
2303.00, 
2304.00, 
2305.00, 
2306.00, 
2307.00, 
2308.00, 
2309.00, 
2310.00, 
2311.00, 
2312.00, 
2313.00, 
2314.00, 
2315.00, 
2316.00, 
2317.00, 
2318.00, 
2319.00, 
2320.00, 
2321.00, 
2322.00, 
2323.00, 
2324.00, 
2325.00, 
2326.00, 
2327.00, 
2328.00, 
2329.00, 
2330.00, 
2331.00, 
2332.00, 
2333.00, 
2334.00, 
2335.00, 
2336.00, 
2337.00, 
2338.00, 
2339.00, 
2340.00, 
2341.00, 
2342.00, 
2343.00, 
2344.00, 
2345.00, 
2346.00, 
2347.00, 
2348.00, 
2349.00, 
2350.00, 
2351.00, 
2352.00, 
2353.00, 
2354.00, 
2355.00, 
2356.00, 
2357.00, 
2358.00, 
2359.00, 
2360.00, 
2361.00, 
2362.00, 
2363.00, 
2364.00, 
2365.00, 
2366.00, 
2367.00, 
2368.00, 
2369.00, 
2370.00, 
2371.00, 
2372.00, 
2373.00, 
2374.00, 
2375.00, 
2376.00, 
2377.00, 
2378.00, 
2379.00, 
2380.00, 
2381.00, 
2382.00, 
2383.00, 
2384.00, 
2385.00, 
2386.00, 
2387.00, 
2388.00, 
2389.00, 
2390.00, 
2391.00, 
2392.00, 
2393.00, 
2394.00, 
2395.00, 
2396.00, 
2397.00, 
2398.00, 
2399.00, 
2400.00, 
2401.00, 
2402.00, 
2403.00, 
2404.00, 
2405.00, 
2406.00, 
2407.00, 
2408.00, 
2409.00, 
2410.00, 
2411.00, 
2412.00, 
2413.00, 
2414.00, 
2415.00, 
2416.00, 
2417.00, 
2418.00, 
2419.00, 
2420.00, 
2421.00, 
2422.00, 
2423.00, 
2424.00, 
2425.00, 
2426.00, 
2427.00, 
2428.00, 
2429.00, 
2430.00, 
2431.00, 
2432.00, 
2433.00, 
2434.00, 
2435.00, 
2436.00, 
2437.00, 
2438.00, 
2439.00, 
2440.00, 
2441.00, 
2442.00, 
2443.00, 
2444.00, 
2445.00, 
2446.00, 
2447.00, 
2448.00, 
2449.00, 
2450.00, 
2451.00, 
2452.00, 
2453.00, 
2454.00, 
2455.00, 
2456.00, 
2457.00, 
2458.00, 
2459.00, 
2460.00, 
2461.00, 
2462.00, 
2463.00, 
2464.00, 
2465.00, 
2466.00, 
2467.00, 
2468.00, 
2469.00, 
2470.00, 
2471.00, 
2472.00, 
2473.00, 
2474.00, 
2475.00, 
2476.00, 
2477.00, 
2478.00, 
2479.00, 
2480.00, 
2481.00, 
2482.00, 
2483.00, 
2484.00, 
2485.00, 
2486.00, 
2487.00, 
2488.00, 
2489.00, 
2490.00, 
2491.00, 
2492.00, 
2493.00, 
2494.00, 
2495.00, 
2496.00, 
2497.00, 
2498.00, 
2499.00, 
2500.00, 
2501.00, 
2502.00, 
2503.00, 
2504.00, 
2505.00, 
2506.00, 
2507.00, 
2508.00, 
2509.00, 
2510.00, 
2511.00, 
2512.00, 
2513.00, 
2514.00, 
2515.00, 
2516.00, 
2517.00, 
2518.00, 
2519.00, 
2520.00, 
2521.00, 
2522.00, 
2523.00, 
2524.00, 
2525.00, 
2526.00, 
2527.00, 
2528.00, 
2529.00, 
2530.00, 
2531.00, 
2532.00, 
2533.00, 
2534.00, 
2535.00, 
2536.00, 
2537.00, 
2538.00, 
2539.00, 
2540.00, 
2541.00, 
2542.00, 
2543.00, 
2544.00, 
2545.00, 
2546.00, 
2547.00, 
2548.00, 
2549.00, 
2550.00, 
2551.00, 
2552.00, 
2553.00, 
2554.00, 
2555.00, 
2556.00, 
2557.00, 
2558.00, 
2559.00, 
2560.00, 
2561.00, 
2562.00, 
2563.00, 
2564.00, 
2565.00, 
2566.00, 
2567.00, 
2568.00, 
2569.00, 
2570.00, 
2571.00, 
2572.00, 
2573.00, 
2574.00, 
2575.00, 
2576.00, 
2577.00, 
2578.00, 
2579.00, 
2580.00, 
2581.00, 
2582.00, 
2583.00, 
2584.00, 
2585.00, 
2586.00, 
2587.00, 
2588.00, 
2589.00, 
2590.00, 
2591.00, 
2592.00, 
2593.00, 
2594.00, 
2595.00, 
2596.00, 
2597.00, 
2598.00, 
2599.00, 
2600.00, 
