"2aP2 - RawData"
"Wavelength nm.","T%"
200.00,-0.001
201.00,0.003
202.00,0.000
203.00,0.002
204.00,0.001
205.00,0.002
206.00,0.001
207.00,0.002
208.00,-0.002
209.00,0.005
210.00,0.002
211.00,0.000
212.00,0.002
213.00,-0.001
214.00,0.003
215.00,0.000
216.00,0.001
217.00,0.002
218.00,0.001
219.00,0.001
220.00,-0.001
221.00,0.002
222.00,0.003
223.00,0.000
224.00,-0.001
225.00,0.001
226.00,0.000
227.00,0.001
228.00,0.002
229.00,0.003
230.00,0.003
231.00,0.001
232.00,-0.000
233.00,0.000
234.00,0.002
235.00,0.000
236.00,0.002
237.00,-0.001
238.00,0.001
239.00,0.000
240.00,0.001
241.00,0.001
242.00,0.000
243.00,0.002
244.00,0.003
245.00,0.002
246.00,0.001
247.00,0.001
248.00,0.001
249.00,0.002
250.00,-0.001
251.00,0.002
252.00,0.002
253.00,0.002
254.00,-0.002
255.00,0.002
256.00,0.000
257.00,-0.001
258.00,0.001
259.00,-0.002
260.00,-0.001
261.00,0.000
262.00,-0.001
263.00,-0.001
264.00,0.001
265.00,-0.002
266.00,-0.001
267.00,-0.000
268.00,-0.000
269.00,0.001
270.00,0.002
271.00,0.002
272.00,0.000
273.00,-0.001
274.00,0.000
275.00,-0.000
276.00,0.000
277.00,-0.000
278.00,0.001
279.00,-0.000
280.00,-0.000
281.00,-0.000
282.00,-0.000
283.00,0.001
284.00,-0.000
285.00,-0.000
286.00,-0.000
287.00,-0.000
288.00,0.000
289.00,0.001
290.00,-0.001
291.00,-0.001
292.00,-0.001
293.00,-0.000
294.00,0.001
295.00,0.000
296.00,-0.001
297.00,0.001
298.00,0.002
299.00,0.001
300.00,0.001
301.00,0.002
302.00,0.003
303.00,0.005
304.00,0.007
305.00,0.012
306.00,0.017
307.00,0.029
308.00,0.042
309.00,0.063
310.00,0.088
311.00,0.122
312.00,0.163
313.00,0.214
314.00,0.285
315.00,0.367
316.00,0.472
317.00,0.589
318.00,0.721
319.00,0.879
320.00,1.076
321.00,1.285
322.00,1.525
323.00,1.729
324.00,2.050
325.00,2.328
326.00,2.626
327.00,2.935
328.00,3.279
329.00,3.635
330.00,3.981
331.00,4.356
332.00,4.702
333.00,5.114
334.00,5.477
335.00,5.847
336.00,6.211
337.00,6.587
338.00,6.985
339.00,7.296
340.00,7.643
341.00,7.968
342.00,8.272
343.00,8.565
344.00,8.900
345.00,9.162
346.00,9.431
347.00,9.622
348.00,9.862
349.00,10.071
350.00,10.254
351.00,10.443
352.00,10.617
353.00,10.762
354.00,10.928
355.00,11.046
356.00,11.151
357.00,11.259
358.00,11.387
359.00,11.499
360.00,11.559
361.00,11.613
362.00,11.699
363.00,11.750
364.00,11.762
365.00,11.798
366.00,11.816
367.00,11.856
368.00,11.874
369.00,11.846
370.00,11.891
371.00,11.872
372.00,11.831
373.00,11.845
374.00,11.836
375.00,11.790
376.00,11.724
377.00,11.683
378.00,11.623
379.00,11.583
380.00,11.543
381.00,11.508
382.00,11.481
383.00,11.467
384.00,11.470
385.00,11.443
386.00,11.423
387.00,11.426
388.00,11.436
389.00,11.406
390.00,11.387
391.00,11.372
392.00,11.403
393.00,11.321
394.00,11.357
395.00,11.323
396.00,11.322
397.00,11.338
398.00,11.292
399.00,11.301
400.00,11.283
401.00,11.261
402.00,11.293
403.00,11.295
404.00,11.249
405.00,11.232
406.00,11.227
407.00,11.205
408.00,11.185
409.00,11.162
410.00,11.133
411.00,11.140
412.00,11.114
413.00,11.129
414.00,11.109
415.00,11.106
416.00,11.139
417.00,11.129
418.00,11.133
419.00,11.195
420.00,11.225
421.00,11.198
422.00,11.204
423.00,11.245
424.00,11.278
425.00,11.291
426.00,11.336
427.00,11.364
428.00,11.389
429.00,11.423
430.00,11.469
431.00,11.520
432.00,11.548
433.00,11.604
434.00,11.655
435.00,11.708
436.00,11.757
437.00,11.817
438.00,11.879
439.00,11.933
440.00,12.006
441.00,12.065
442.00,12.173
443.00,12.201
444.00,12.291
445.00,12.362
446.00,12.451
447.00,12.519
448.00,12.608
449.00,12.697
450.00,12.778
451.00,12.879
452.00,12.965
453.00,13.078
454.00,13.165
455.00,13.267
456.00,13.383
457.00,13.467
458.00,13.563
459.00,13.706
460.00,13.812
461.00,13.928
462.00,14.029
463.00,14.167
464.00,14.292
465.00,14.397
466.00,14.528
467.00,14.644
468.00,14.749
469.00,14.877
470.00,15.000
471.00,15.077
472.00,15.210
473.00,15.292
474.00,15.435
475.00,15.537
476.00,15.686
477.00,15.807
478.00,15.956
479.00,16.106
480.00,16.231
481.00,16.355
482.00,16.508
483.00,16.665
484.00,16.810
485.00,16.966
486.00,17.127
487.00,17.271
488.00,17.404
489.00,17.559
490.00,17.732
491.00,17.891
492.00,18.024
493.00,18.221
494.00,18.389
495.00,18.412
496.00,18.555
497.00,18.705
498.00,18.831
499.00,18.994
500.00,19.163
501.00,19.262
502.00,19.427
503.00,19.593
504.00,19.616
505.00,19.764
506.00,19.926
507.00,20.044
508.00,20.209
509.00,20.388
510.00,20.516
511.00,20.617
512.00,20.794
513.00,20.930
514.00,21.031
515.00,21.199
516.00,21.306
517.00,21.402
518.00,21.563
519.00,21.626
520.00,21.746
521.00,21.875
522.00,21.997
523.00,22.065
524.00,22.172
525.00,22.316
526.00,22.417
527.00,22.520
528.00,22.606
529.00,22.817
530.00,22.953
531.00,23.046
532.00,23.129
533.00,23.250
534.00,23.344
535.00,23.444
536.00,23.555
537.00,23.626
538.00,23.733
539.00,23.774
540.00,23.897
541.00,23.981
542.00,24.020
543.00,24.145
544.00,24.241
545.00,24.286
546.00,24.386
547.00,24.526
548.00,24.555
549.00,24.619
550.00,24.732
551.00,24.844
552.00,24.935
553.00,24.986
554.00,25.070
555.00,25.121
556.00,25.209
557.00,25.306
558.00,25.342
559.00,25.446
560.00,25.525
561.00,25.583
562.00,25.659
563.00,25.729
564.00,25.777
565.00,25.810
566.00,25.861
567.00,25.915
568.00,25.966
569.00,26.012
570.00,26.049
571.00,26.177
572.00,26.204
573.00,26.136
574.00,26.239
575.00,26.335
576.00,26.298
577.00,26.414
578.00,26.509
579.00,26.589
580.00,26.611
581.00,26.748
582.00,26.821
583.00,26.821
584.00,26.935
585.00,27.051
586.00,27.082
587.00,27.136
588.00,27.158
589.00,27.184
590.00,27.278
591.00,27.355
592.00,27.350
593.00,27.432
594.00,27.504
595.00,27.565
596.00,27.683
597.00,27.702
598.00,27.841
599.00,27.840
600.00,27.889
601.00,27.974
602.00,27.966
603.00,28.028
604.00,28.107
605.00,28.158
606.00,28.289
607.00,28.326
608.00,28.357
609.00,28.457
610.00,28.635
611.00,28.521
612.00,28.570
613.00,28.656
614.00,28.714
615.00,28.860
616.00,28.974
617.00,28.948
618.00,29.006
619.00,29.075
620.00,29.118
621.00,29.223
622.00,29.312
623.00,29.404
624.00,29.554
625.00,29.611
626.00,29.636
627.00,29.763
628.00,29.788
629.00,29.885
630.00,29.985
631.00,30.048
632.00,30.138
633.00,30.291
634.00,30.415
635.00,30.524
636.00,30.637
637.00,30.686
638.00,30.802
639.00,30.879
640.00,30.985
641.00,31.061
642.00,31.201
643.00,31.306
644.00,31.372
645.00,31.445
646.00,31.675
647.00,31.805
648.00,31.928
649.00,31.959
650.00,32.028
651.00,32.265
652.00,32.392
653.00,32.460
654.00,32.609
655.00,32.795
656.00,33.081
657.00,33.053
658.00,33.219
659.00,33.298
660.00,33.431
661.00,33.480
662.00,33.614
663.00,33.776
664.00,34.082
665.00,34.263
666.00,34.239
667.00,34.392
668.00,34.446
669.00,34.738
670.00,34.996
671.00,34.959
672.00,35.158
673.00,35.317
674.00,35.469
675.00,35.580
676.00,35.799
677.00,35.999
678.00,35.878
679.00,36.153
680.00,36.368
681.00,36.518
682.00,36.616
683.00,36.701
684.00,36.917
685.00,37.048
686.00,37.123
687.00,37.260
688.00,37.480
689.00,37.585
690.00,37.762
691.00,38.130
692.00,37.899
693.00,37.850
694.00,38.488
695.00,38.901
696.00,38.711
697.00,38.693
698.00,38.937
699.00,39.174
700.00,39.366
701.00,39.357
702.00,39.615
703.00,39.837
704.00,39.854
705.00,39.909
706.00,40.102
707.00,40.179
708.00,40.237
709.00,40.739
710.00,41.099
711.00,40.800
712.00,40.863
713.00,41.034
714.00,41.215
715.00,41.225
716.00,41.376
717.00,41.579
718.00,41.757
719.00,41.697
720.00,42.044
721.00,46.274
722.00,46.358
723.00,46.416
724.00,46.492
725.00,46.560
726.00,46.674
727.00,46.763
728.00,46.810
729.00,46.990
730.00,47.065
731.00,47.164
732.00,47.220
733.00,47.365
734.00,47.478
735.00,47.599
736.00,47.658
737.00,47.821
738.00,47.866
739.00,48.042
740.00,48.041
741.00,48.242
742.00,48.345
743.00,48.369
744.00,48.356
745.00,48.425
746.00,48.532
747.00,48.636
748.00,48.661
749.00,48.762
750.00,48.709
751.00,48.759
752.00,48.875
753.00,48.972
754.00,49.024
755.00,48.971
756.00,49.127
757.00,49.200
758.00,49.222
759.00,49.262
760.00,49.307
761.00,49.403
762.00,49.451
763.00,49.542
764.00,49.598
765.00,49.637
766.00,49.729
767.00,49.788
768.00,49.810
769.00,49.857
770.00,49.962
771.00,49.940
772.00,50.037
773.00,50.039
774.00,50.127
775.00,50.197
776.00,50.162
777.00,50.244
778.00,50.285
779.00,50.355
780.00,50.366
781.00,50.427
782.00,50.506
783.00,50.419
784.00,50.516
785.00,50.447
786.00,50.631
787.00,50.569
788.00,50.608
789.00,50.628
790.00,50.604
791.00,50.722
792.00,50.690
793.00,50.707
794.00,50.749
795.00,50.721
796.00,50.804
797.00,50.728
798.00,50.787
799.00,50.776
800.00,50.792
801.00,50.826
802.00,50.866
803.00,50.840
804.00,50.788
805.00,50.956
806.00,50.940
807.00,50.908
808.00,50.929
809.00,50.957
810.00,50.946
811.00,50.919
812.00,50.986
813.00,50.921
814.00,50.988
815.00,50.978
816.00,50.994
817.00,50.967
818.00,50.895
819.00,50.988
820.00,50.925
821.00,51.051
822.00,50.988
823.00,50.990
824.00,51.023
825.00,50.985
826.00,50.900
827.00,51.111
828.00,51.009
829.00,50.984
830.00,51.031
831.00,53.291
832.00,53.325
833.00,53.239
834.00,53.268
835.00,53.256
836.00,53.273
837.00,53.238
838.00,53.240
839.00,53.267
840.00,53.199
841.00,53.221
842.00,53.223
843.00,53.217
844.00,53.250
845.00,53.187
846.00,53.261
847.00,53.189
848.00,53.243
849.00,53.178
850.00,53.174
851.00,53.138
852.00,53.140
853.00,53.094
854.00,53.080
855.00,53.021
856.00,53.050
857.00,53.062
858.00,52.982
859.00,53.008
860.00,53.056
861.00,53.012
862.00,52.966
863.00,53.009
864.00,52.981
865.00,53.008
866.00,52.988
867.00,52.979
868.00,52.988
869.00,52.985
870.00,53.005
871.00,53.004
872.00,52.982
873.00,52.968
874.00,53.017
875.00,52.941
876.00,52.967
877.00,52.958
878.00,52.996
879.00,52.954
880.00,52.947
881.00,52.920
882.00,52.966
883.00,52.870
884.00,52.877
885.00,52.900
886.00,52.906
887.00,52.883
888.00,52.854
889.00,52.855
890.00,52.860
891.00,52.814
892.00,52.802
893.00,52.790
894.00,52.776
895.00,52.743
896.00,52.728
897.00,52.734
898.00,52.692
899.00,52.749
900.00,52.702
901.00,52.689
902.00,52.704
903.00,52.682
904.00,52.665
905.00,52.662
906.00,52.641
907.00,52.625
908.00,52.606
909.00,52.587
910.00,52.590
911.00,52.581
912.00,52.531
913.00,52.570
914.00,52.428
915.00,52.506
916.00,52.482
917.00,52.485
918.00,52.487
919.00,52.444
920.00,52.397
921.00,52.438
922.00,52.410
923.00,52.385
924.00,52.339
925.00,52.378
926.00,52.349
927.00,52.324
928.00,52.280
929.00,52.322
930.00,52.290
931.00,52.261
932.00,52.215
933.00,52.249
934.00,52.212
935.00,52.201
936.00,52.175
937.00,52.162
938.00,52.118
939.00,52.148
940.00,52.107
941.00,52.127
942.00,52.088
943.00,52.077
944.00,52.051
945.00,52.053
946.00,51.966
947.00,52.003
948.00,51.999
949.00,51.977
950.00,51.973
951.00,51.939
952.00,51.948
953.00,51.887
954.00,51.877
955.00,51.849
956.00,51.831
957.00,51.803
958.00,51.825
959.00,51.754
960.00,51.749
961.00,51.741
962.00,51.730
963.00,51.695
964.00,51.676
965.00,51.697
966.00,51.667
967.00,51.661
968.00,51.628
969.00,51.672
970.00,51.700
971.00,51.662
972.00,51.616
973.00,51.665
974.00,51.690
975.00,51.639
976.00,51.676
977.00,51.659
978.00,51.706
979.00,51.666
980.00,51.677
981.00,51.677
982.00,51.645
983.00,51.657
984.00,51.627
985.00,51.672
986.00,51.609
987.00,51.651
988.00,51.618
989.00,51.594
990.00,51.595
991.00,51.575
992.00,51.592
993.00,51.563
994.00,51.547
995.00,51.525
996.00,51.522
997.00,51.496
998.00,51.465
999.00,51.491
1000.00,51.443
1001.00,51.462
1002.00,51.446
1003.00,51.422
1004.00,51.428
1005.00,51.381
1006.00,51.419
1007.00,51.380
1008.00,51.371
1009.00,51.359
1010.00,51.364
1011.00,51.357
1012.00,51.329
1013.00,51.335
1014.00,51.286
1015.00,51.322
1016.00,51.273
1017.00,51.254
1018.00,51.253
1019.00,51.209
1020.00,51.210
1021.00,51.194
1022.00,51.186
1023.00,51.151
1024.00,51.161
1025.00,51.142
1026.00,51.132
1027.00,51.106
1028.00,51.108
1029.00,51.101
1030.00,51.035
1031.00,51.096
1032.00,51.027
1033.00,51.019
1034.00,50.998
1035.00,50.949
1036.00,50.933
1037.00,50.916
1038.00,50.907
1039.00,50.868
1040.00,50.874
1041.00,50.845
1042.00,50.847
1043.00,50.831
1044.00,50.832
1045.00,50.832
1046.00,50.821
1047.00,50.826
1048.00,50.853
1049.00,50.847
1050.00,50.831
1051.00,50.902
1052.00,50.891
1053.00,50.895
1054.00,50.893
1055.00,50.920
1056.00,50.936
1057.00,50.934
1058.00,50.903
1059.00,50.904
1060.00,50.911
1061.00,50.883
1062.00,50.899
1063.00,50.880
1064.00,50.890
1065.00,50.885
1066.00,50.870
1067.00,50.869
1068.00,50.880
1069.00,50.835
1070.00,50.825
1071.00,50.813
1072.00,50.824
1073.00,50.813
1074.00,50.788
1075.00,50.772
1076.00,50.783
1077.00,50.766
1078.00,50.754
1079.00,50.742
1080.00,50.726
1081.00,50.713
1082.00,50.695
1083.00,50.713
1084.00,50.726
1085.00,50.711
1086.00,50.698
1087.00,50.696
1088.00,50.661
1089.00,50.670
1090.00,50.656
1091.00,50.674
1092.00,50.698
1093.00,50.635
1094.00,50.616
1095.00,50.628
1096.00,50.599
1097.00,50.606
1098.00,50.606
1099.00,50.581
1100.00,50.574
1101.00,50.576
1102.00,50.556
1103.00,50.571
1104.00,50.557
1105.00,50.530
1106.00,50.532
1107.00,50.544
1108.00,50.514
1109.00,50.509
1110.00,50.492
1111.00,50.484
1112.00,50.467
1113.00,50.469
1114.00,50.453
1115.00,50.445
1116.00,50.432
1117.00,50.425
1118.00,50.402
1119.00,50.426
1120.00,50.442
1121.00,50.425
1122.00,50.388
1123.00,50.389
1124.00,50.372
1125.00,50.387
1126.00,50.363
1127.00,50.366
1128.00,50.354
1129.00,50.330
1130.00,50.317
1131.00,50.332
1132.00,50.305
1133.00,50.309
1134.00,50.309
1135.00,50.288
1136.00,50.291
1137.00,50.303
1138.00,50.278
1139.00,50.306
1140.00,50.275
1141.00,50.283
1142.00,50.260
1143.00,50.276
1144.00,50.248
1145.00,50.241
1146.00,50.230
1147.00,50.230
1148.00,50.211
1149.00,50.230
1150.00,50.250
1151.00,50.242
1152.00,50.241
1153.00,50.264
1154.00,50.206
1155.00,50.219
1156.00,50.207
1157.00,50.213
1158.00,50.204
1159.00,50.202
1160.00,50.198
1161.00,50.218
1162.00,50.197
1163.00,50.193
1164.00,50.200
1165.00,50.196
1166.00,50.197
1167.00,50.189
1168.00,50.202
1169.00,50.186
1170.00,50.170
1171.00,50.143
1172.00,50.166
1173.00,50.148
1174.00,50.162
1175.00,50.165
1176.00,50.157
1177.00,50.156
1178.00,50.150
1179.00,50.165
1180.00,50.154
1181.00,50.167
1182.00,50.149
1183.00,50.150
1184.00,50.132
1185.00,50.149
1186.00,50.137
1187.00,50.144
1188.00,50.155
1189.00,50.139
1190.00,50.117
1191.00,50.126
1192.00,50.140
1193.00,50.115
1194.00,50.149
1195.00,50.107
1196.00,50.141
1197.00,50.144
1198.00,50.104
1199.00,50.107
1200.00,50.118
1201.00,50.131
1202.00,50.110
1203.00,50.103
1204.00,50.080
1205.00,50.108
1206.00,50.089
1207.00,50.096
1208.00,50.100
1209.00,50.101
1210.00,50.116
1211.00,50.114
1212.00,50.110
1213.00,50.093
1214.00,50.132
1215.00,50.072
1216.00,50.092
1217.00,50.084
1218.00,50.067
1219.00,50.091
1220.00,50.059
1221.00,50.086
1222.00,50.055
1223.00,50.085
1224.00,50.094
1225.00,50.055
1226.00,50.072
1227.00,50.086
1228.00,50.111
1229.00,50.134
1230.00,50.130
1231.00,50.110
1232.00,50.138
1233.00,50.125
1234.00,50.108
1235.00,50.120
1236.00,50.108
1237.00,50.117
1238.00,50.128
1239.00,50.126
1240.00,50.121
1241.00,50.133
1242.00,50.124
1243.00,50.145
1244.00,50.124
1245.00,50.140
1246.00,50.158
1247.00,50.125
1248.00,50.117
1249.00,50.147
1250.00,50.145
1251.00,50.144
1252.00,50.154
1253.00,50.127
1254.00,50.185
1255.00,50.133
1256.00,50.131
1257.00,50.131
1258.00,50.162
1259.00,50.157
1260.00,50.188
1261.00,50.167
1262.00,50.160
1263.00,50.171
1264.00,50.177
1265.00,50.187
1266.00,50.177
1267.00,50.183
1268.00,50.205
1269.00,50.192
1270.00,50.200
1271.00,50.221
1272.00,50.204
1273.00,50.225
1274.00,50.230
1275.00,50.224
1276.00,50.228
1277.00,50.219
1278.00,50.222
1279.00,50.236
1280.00,50.218
1281.00,50.249
1282.00,50.258
1283.00,50.248
1284.00,50.274
1285.00,50.252
1286.00,50.271
1287.00,50.275
1288.00,50.275
1289.00,50.264
1290.00,50.295
1291.00,50.279
1292.00,50.280
1293.00,50.307
1294.00,50.312
1295.00,50.314
1296.00,50.313
1297.00,50.310
1298.00,50.346
1299.00,50.304
1300.00,50.313
1301.00,50.321
1302.00,50.332
1303.00,50.330
1304.00,50.330
1305.00,50.350
1306.00,50.366
1307.00,50.379
1308.00,50.363
1309.00,50.386
1310.00,50.378
1311.00,50.359
1312.00,50.367
1313.00,50.365
1314.00,50.372
1315.00,50.404
1316.00,50.387
1317.00,50.423
1318.00,50.418
1319.00,50.421
1320.00,50.445
1321.00,50.584
1322.00,50.561
1323.00,50.564
1324.00,50.560
1325.00,50.540
1326.00,50.587
1327.00,50.565
1328.00,50.544
1329.00,50.579
1330.00,50.549
1331.00,50.551
1332.00,50.563
1333.00,50.567
1334.00,50.597
1335.00,50.599
1336.00,50.622
1337.00,50.680
1338.00,50.728
1339.00,50.761
1340.00,50.822
1341.00,50.868
1342.00,50.948
1343.00,51.007
1344.00,51.045
1345.00,51.107
1346.00,51.133
1347.00,51.138
1348.00,51.181
1349.00,51.196
1350.00,51.213
1351.00,51.224
1352.00,51.232
1353.00,51.239
1354.00,51.243
1355.00,51.199
1356.00,51.236
1357.00,51.224
1358.00,51.261
1359.00,51.267
1360.00,51.269
1361.00,51.207
1362.00,51.259
1363.00,51.281
1364.00,51.225
1365.00,51.258
1366.00,51.269
1367.00,51.229
1368.00,51.276
1369.00,51.237
1370.00,51.273
1371.00,51.228
1372.00,51.241
1373.00,51.255
1374.00,51.240
1375.00,51.230
1376.00,51.247
1377.00,51.255
1378.00,51.269
1379.00,51.288
1380.00,51.313
1381.00,51.274
1382.00,51.212
1383.00,51.239
1384.00,51.203
1385.00,51.225
1386.00,51.240
1387.00,51.236
1388.00,51.185
1389.00,51.230
1390.00,51.252
1391.00,51.195
1392.00,51.231
1393.00,51.270
1394.00,51.252
1395.00,51.187
1396.00,51.183
1397.00,51.275
1398.00,51.301
1399.00,51.213
1400.00,51.187
1401.00,51.234
1402.00,51.336
1403.00,51.231
1404.00,51.259
1405.00,51.281
1406.00,51.332
1407.00,51.290
1408.00,51.267
1409.00,51.279
1410.00,51.320
1411.00,51.348
1412.00,51.379
1413.00,51.249
1414.00,51.299
1415.00,51.365
1416.00,51.352
1417.00,51.384
1418.00,51.325
1419.00,51.346
1420.00,51.386
1421.00,51.405
1422.00,51.417
1423.00,51.411
1424.00,51.420
1425.00,51.484
1426.00,51.461
1427.00,51.475
1428.00,51.485
1429.00,51.498
1430.00,51.500
1431.00,51.535
1432.00,51.524
1433.00,51.544
1434.00,51.535
1435.00,51.585
1436.00,51.616
1437.00,51.594
1438.00,51.616
1439.00,51.654
1440.00,51.641
1441.00,51.661
1442.00,51.682
1443.00,51.697
1444.00,51.756
1445.00,51.727
1446.00,51.753
1447.00,51.783
1448.00,51.809
1449.00,51.790
1450.00,51.834
1451.00,51.820
1452.00,51.840
1453.00,51.876
1454.00,51.856
1455.00,51.896
1456.00,51.914
1457.00,51.878
1458.00,51.921
1459.00,51.914
1460.00,51.952
1461.00,51.949
1462.00,52.000
1463.00,51.991
1464.00,52.015
1465.00,52.010
1466.00,52.024
1467.00,52.032
1468.00,52.074
1469.00,52.062
1470.00,52.062
1471.00,52.078
1472.00,52.086
1473.00,52.084
1474.00,52.136
1475.00,52.157
1476.00,52.172
1477.00,52.156
1478.00,52.193
1479.00,52.182
1480.00,52.190
1481.00,52.198
1482.00,52.228
1483.00,52.251
1484.00,52.254
1485.00,52.257
1486.00,52.289
1487.00,52.299
1488.00,52.337
1489.00,52.324
1490.00,52.346
1491.00,52.354
1492.00,52.377
1493.00,52.344
1494.00,52.405
1495.00,52.380
1496.00,52.389
1497.00,52.393
1498.00,52.408
1499.00,52.437
1500.00,52.440
1501.00, 
1502.00, 
1503.00, 
1504.00, 
1505.00, 
1506.00, 
1507.00, 
1508.00, 
1509.00, 
1510.00, 
1511.00, 
1512.00, 
1513.00, 
1514.00, 
1515.00, 
1516.00, 
1517.00, 
1518.00, 
1519.00, 
1520.00, 
1521.00, 
1522.00, 
1523.00, 
1524.00, 
1525.00, 
1526.00, 
1527.00, 
1528.00, 
1529.00, 
1530.00, 
1531.00, 
1532.00, 
1533.00, 
1534.00, 
1535.00, 
1536.00, 
1537.00, 
1538.00, 
1539.00, 
1540.00, 
1541.00, 
1542.00, 
1543.00, 
1544.00, 
1545.00, 
1546.00, 
1547.00, 
1548.00, 
1549.00, 
1550.00, 
1551.00, 
1552.00, 
1553.00, 
1554.00, 
1555.00, 
1556.00, 
1557.00, 
1558.00, 
1559.00, 
1560.00, 
1561.00, 
1562.00, 
1563.00, 
1564.00, 
1565.00, 
1566.00, 
1567.00, 
1568.00, 
1569.00, 
1570.00, 
1571.00, 
1572.00, 
1573.00, 
1574.00, 
1575.00, 
1576.00, 
1577.00, 
1578.00, 
1579.00, 
1580.00, 
1581.00, 
1582.00, 
1583.00, 
1584.00, 
1585.00, 
1586.00, 
1587.00, 
1588.00, 
1589.00, 
1590.00, 
1591.00, 
1592.00, 
1593.00, 
1594.00, 
1595.00, 
1596.00, 
1597.00, 
1598.00, 
1599.00, 
1600.00, 
1601.00, 
1602.00, 
1603.00, 
1604.00, 
1605.00, 
1606.00, 
1607.00, 
1608.00, 
1609.00, 
1610.00, 
1611.00, 
1612.00, 
1613.00, 
1614.00, 
1615.00, 
1616.00, 
1617.00, 
1618.00, 
1619.00, 
1620.00, 
1621.00, 
1622.00, 
1623.00, 
1624.00, 
1625.00, 
1626.00, 
1627.00, 
1628.00, 
1629.00, 
1630.00, 
1631.00, 
1632.00, 
1633.00, 
1634.00, 
1635.00, 
1636.00, 
1637.00, 
1638.00, 
1639.00, 
1640.00, 
1641.00, 
1642.00, 
1643.00, 
1644.00, 
1645.00, 
1646.00, 
1647.00, 
1648.00, 
1649.00, 
1650.00, 
1651.00, 
1652.00, 
1653.00, 
1654.00, 
1655.00, 
1656.00, 
1657.00, 
1658.00, 
1659.00, 
1660.00, 
1661.00, 
1662.00, 
1663.00, 
1664.00, 
1665.00, 
1666.00, 
1667.00, 
1668.00, 
1669.00, 
1670.00, 
1671.00, 
1672.00, 
1673.00, 
1674.00, 
1675.00, 
1676.00, 
1677.00, 
1678.00, 
1679.00, 
1680.00, 
1681.00, 
1682.00, 
1683.00, 
1684.00, 
1685.00, 
1686.00, 
1687.00, 
1688.00, 
1689.00, 
1690.00, 
1691.00, 
1692.00, 
1693.00, 
1694.00, 
1695.00, 
1696.00, 
1697.00, 
1698.00, 
1699.00, 
1700.00, 
1701.00, 
1702.00, 
1703.00, 
1704.00, 
1705.00, 
1706.00, 
1707.00, 
1708.00, 
1709.00, 
1710.00, 
1711.00, 
1712.00, 
1713.00, 
1714.00, 
1715.00, 
1716.00, 
1717.00, 
1718.00, 
1719.00, 
1720.00, 
1721.00, 
1722.00, 
1723.00, 
1724.00, 
1725.00, 
1726.00, 
1727.00, 
1728.00, 
1729.00, 
1730.00, 
1731.00, 
1732.00, 
1733.00, 
1734.00, 
1735.00, 
1736.00, 
1737.00, 
1738.00, 
1739.00, 
1740.00, 
1741.00, 
1742.00, 
1743.00, 
1744.00, 
1745.00, 
1746.00, 
1747.00, 
1748.00, 
1749.00, 
1750.00, 
1751.00, 
1752.00, 
1753.00, 
1754.00, 
1755.00, 
1756.00, 
1757.00, 
1758.00, 
1759.00, 
1760.00, 
1761.00, 
1762.00, 
1763.00, 
1764.00, 
1765.00, 
1766.00, 
1767.00, 
1768.00, 
1769.00, 
1770.00, 
1771.00, 
1772.00, 
1773.00, 
1774.00, 
1775.00, 
1776.00, 
1777.00, 
1778.00, 
1779.00, 
1780.00, 
1781.00, 
1782.00, 
1783.00, 
1784.00, 
1785.00, 
1786.00, 
1787.00, 
1788.00, 
1789.00, 
1790.00, 
1791.00, 
1792.00, 
1793.00, 
1794.00, 
1795.00, 
1796.00, 
1797.00, 
1798.00, 
1799.00, 
1800.00, 
1801.00, 
1802.00, 
1803.00, 
1804.00, 
1805.00, 
1806.00, 
1807.00, 
1808.00, 
1809.00, 
1810.00, 
1811.00, 
1812.00, 
1813.00, 
1814.00, 
1815.00, 
1816.00, 
1817.00, 
1818.00, 
1819.00, 
1820.00, 
1821.00, 
1822.00, 
1823.00, 
1824.00, 
1825.00, 
1826.00, 
1827.00, 
1828.00, 
1829.00, 
1830.00, 
1831.00, 
1832.00, 
1833.00, 
1834.00, 
1835.00, 
1836.00, 
1837.00, 
1838.00, 
1839.00, 
1840.00, 
1841.00, 
1842.00, 
1843.00, 
1844.00, 
1845.00, 
1846.00, 
1847.00, 
1848.00, 
1849.00, 
1850.00, 
1851.00, 
1852.00, 
1853.00, 
1854.00, 
1855.00, 
1856.00, 
1857.00, 
1858.00, 
1859.00, 
1860.00, 
1861.00, 
1862.00, 
1863.00, 
1864.00, 
1865.00, 
1866.00, 
1867.00, 
1868.00, 
1869.00, 
1870.00, 
1871.00, 
1872.00, 
1873.00, 
1874.00, 
1875.00, 
1876.00, 
1877.00, 
1878.00, 
1879.00, 
1880.00, 
1881.00, 
1882.00, 
1883.00, 
1884.00, 
1885.00, 
1886.00, 
1887.00, 
1888.00, 
1889.00, 
1890.00, 
1891.00, 
1892.00, 
1893.00, 
1894.00, 
1895.00, 
1896.00, 
1897.00, 
1898.00, 
1899.00, 
1900.00, 
1901.00, 
1902.00, 
1903.00, 
1904.00, 
1905.00, 
1906.00, 
1907.00, 
1908.00, 
1909.00, 
1910.00, 
1911.00, 
1912.00, 
1913.00, 
1914.00, 
1915.00, 
1916.00, 
1917.00, 
1918.00, 
1919.00, 
1920.00, 
1921.00, 
1922.00, 
1923.00, 
1924.00, 
1925.00, 
1926.00, 
1927.00, 
1928.00, 
1929.00, 
1930.00, 
1931.00, 
1932.00, 
1933.00, 
1934.00, 
1935.00, 
1936.00, 
1937.00, 
1938.00, 
1939.00, 
1940.00, 
1941.00, 
1942.00, 
1943.00, 
1944.00, 
1945.00, 
1946.00, 
1947.00, 
1948.00, 
1949.00, 
1950.00, 
1951.00, 
1952.00, 
1953.00, 
1954.00, 
1955.00, 
1956.00, 
1957.00, 
1958.00, 
1959.00, 
1960.00, 
1961.00, 
1962.00, 
1963.00, 
1964.00, 
1965.00, 
1966.00, 
1967.00, 
1968.00, 
1969.00, 
1970.00, 
1971.00, 
1972.00, 
1973.00, 
1974.00, 
1975.00, 
1976.00, 
1977.00, 
1978.00, 
1979.00, 
1980.00, 
1981.00, 
1982.00, 
1983.00, 
1984.00, 
1985.00, 
1986.00, 
1987.00, 
1988.00, 
1989.00, 
1990.00, 
1991.00, 
1992.00, 
1993.00, 
1994.00, 
1995.00, 
1996.00, 
1997.00, 
1998.00, 
1999.00, 
2000.00, 
2001.00, 
2002.00, 
2003.00, 
2004.00, 
2005.00, 
2006.00, 
2007.00, 
2008.00, 
2009.00, 
2010.00, 
2011.00, 
2012.00, 
2013.00, 
2014.00, 
2015.00, 
2016.00, 
2017.00, 
2018.00, 
2019.00, 
2020.00, 
2021.00, 
2022.00, 
2023.00, 
2024.00, 
2025.00, 
2026.00, 
2027.00, 
2028.00, 
2029.00, 
2030.00, 
2031.00, 
2032.00, 
2033.00, 
2034.00, 
2035.00, 
2036.00, 
2037.00, 
2038.00, 
2039.00, 
2040.00, 
2041.00, 
2042.00, 
2043.00, 
2044.00, 
2045.00, 
2046.00, 
2047.00, 
2048.00, 
2049.00, 
2050.00, 
2051.00, 
2052.00, 
2053.00, 
2054.00, 
2055.00, 
2056.00, 
2057.00, 
2058.00, 
2059.00, 
2060.00, 
2061.00, 
2062.00, 
2063.00, 
2064.00, 
2065.00, 
2066.00, 
2067.00, 
2068.00, 
2069.00, 
2070.00, 
2071.00, 
2072.00, 
2073.00, 
2074.00, 
2075.00, 
2076.00, 
2077.00, 
2078.00, 
2079.00, 
2080.00, 
2081.00, 
2082.00, 
2083.00, 
2084.00, 
2085.00, 
2086.00, 
2087.00, 
2088.00, 
2089.00, 
2090.00, 
2091.00, 
2092.00, 
2093.00, 
2094.00, 
2095.00, 
2096.00, 
2097.00, 
2098.00, 
2099.00, 
2100.00, 
2101.00, 
2102.00, 
2103.00, 
2104.00, 
2105.00, 
2106.00, 
2107.00, 
2108.00, 
2109.00, 
2110.00, 
2111.00, 
2112.00, 
2113.00, 
2114.00, 
2115.00, 
2116.00, 
2117.00, 
2118.00, 
2119.00, 
2120.00, 
2121.00, 
2122.00, 
2123.00, 
2124.00, 
2125.00, 
2126.00, 
2127.00, 
2128.00, 
2129.00, 
2130.00, 
2131.00, 
2132.00, 
2133.00, 
2134.00, 
2135.00, 
2136.00, 
2137.00, 
2138.00, 
2139.00, 
2140.00, 
2141.00, 
2142.00, 
2143.00, 
2144.00, 
2145.00, 
2146.00, 
2147.00, 
2148.00, 
2149.00, 
2150.00, 
2151.00, 
2152.00, 
2153.00, 
2154.00, 
2155.00, 
2156.00, 
2157.00, 
2158.00, 
2159.00, 
2160.00, 
2161.00, 
2162.00, 
2163.00, 
2164.00, 
2165.00, 
2166.00, 
2167.00, 
2168.00, 
2169.00, 
2170.00, 
2171.00, 
2172.00, 
2173.00, 
2174.00, 
2175.00, 
2176.00, 
2177.00, 
2178.00, 
2179.00, 
2180.00, 
2181.00, 
2182.00, 
2183.00, 
2184.00, 
2185.00, 
2186.00, 
2187.00, 
2188.00, 
2189.00, 
2190.00, 
2191.00, 
2192.00, 
2193.00, 
2194.00, 
2195.00, 
2196.00, 
2197.00, 
2198.00, 
2199.00, 
2200.00, 
2201.00, 
2202.00, 
2203.00, 
2204.00, 
2205.00, 
2206.00, 
2207.00, 
2208.00, 
2209.00, 
2210.00, 
2211.00, 
2212.00, 
2213.00, 
2214.00, 
2215.00, 
2216.00, 
2217.00, 
2218.00, 
2219.00, 
2220.00, 
2221.00, 
2222.00, 
2223.00, 
2224.00, 
2225.00, 
2226.00, 
2227.00, 
2228.00, 
2229.00, 
2230.00, 
2231.00, 
2232.00, 
2233.00, 
2234.00, 
2235.00, 
2236.00, 
2237.00, 
2238.00, 
2239.00, 
2240.00, 
2241.00, 
2242.00, 
2243.00, 
2244.00, 
2245.00, 
2246.00, 
2247.00, 
2248.00, 
2249.00, 
2250.00, 
2251.00, 
2252.00, 
2253.00, 
2254.00, 
2255.00, 
2256.00, 
2257.00, 
2258.00, 
2259.00, 
2260.00, 
2261.00, 
2262.00, 
2263.00, 
2264.00, 
2265.00, 
2266.00, 
2267.00, 
2268.00, 
2269.00, 
2270.00, 
2271.00, 
2272.00, 
2273.00, 
2274.00, 
2275.00, 
2276.00, 
2277.00, 
2278.00, 
2279.00, 
2280.00, 
2281.00, 
2282.00, 
2283.00, 
2284.00, 
2285.00, 
2286.00, 
2287.00, 
2288.00, 
2289.00, 
2290.00, 
2291.00, 
2292.00, 
2293.00, 
2294.00, 
2295.00, 
2296.00, 
2297.00, 
2298.00, 
2299.00, 
2300.00, 
2301.00, 
2302.00, 
2303.00, 
2304.00, 
2305.00, 
2306.00, 
2307.00, 
2308.00, 
2309.00, 
2310.00, 
2311.00, 
2312.00, 
2313.00, 
2314.00, 
2315.00, 
2316.00, 
2317.00, 
2318.00, 
2319.00, 
2320.00, 
2321.00, 
2322.00, 
2323.00, 
2324.00, 
2325.00, 
2326.00, 
2327.00, 
2328.00, 
2329.00, 
2330.00, 
2331.00, 
2332.00, 
2333.00, 
2334.00, 
2335.00, 
2336.00, 
2337.00, 
2338.00, 
2339.00, 
2340.00, 
2341.00, 
2342.00, 
2343.00, 
2344.00, 
2345.00, 
2346.00, 
2347.00, 
2348.00, 
2349.00, 
2350.00, 
2351.00, 
2352.00, 
2353.00, 
2354.00, 
2355.00, 
2356.00, 
2357.00, 
2358.00, 
2359.00, 
2360.00, 
2361.00, 
2362.00, 
2363.00, 
2364.00, 
2365.00, 
2366.00, 
2367.00, 
2368.00, 
2369.00, 
2370.00, 
2371.00, 
2372.00, 
2373.00, 
2374.00, 
2375.00, 
2376.00, 
2377.00, 
2378.00, 
2379.00, 
2380.00, 
2381.00, 
2382.00, 
2383.00, 
2384.00, 
2385.00, 
2386.00, 
2387.00, 
2388.00, 
2389.00, 
2390.00, 
2391.00, 
2392.00, 
2393.00, 
2394.00, 
2395.00, 
2396.00, 
2397.00, 
2398.00, 
2399.00, 
2400.00, 
2401.00, 
2402.00, 
2403.00, 
2404.00, 
2405.00, 
2406.00, 
2407.00, 
2408.00, 
2409.00, 
2410.00, 
2411.00, 
2412.00, 
2413.00, 
2414.00, 
2415.00, 
2416.00, 
2417.00, 
2418.00, 
2419.00, 
2420.00, 
2421.00, 
2422.00, 
2423.00, 
2424.00, 
2425.00, 
2426.00, 
2427.00, 
2428.00, 
2429.00, 
2430.00, 
2431.00, 
2432.00, 
2433.00, 
2434.00, 
2435.00, 
2436.00, 
2437.00, 
2438.00, 
2439.00, 
2440.00, 
2441.00, 
2442.00, 
2443.00, 
2444.00, 
2445.00, 
2446.00, 
2447.00, 
2448.00, 
2449.00, 
2450.00, 
2451.00, 
2452.00, 
2453.00, 
2454.00, 
2455.00, 
2456.00, 
2457.00, 
2458.00, 
2459.00, 
2460.00, 
2461.00, 
2462.00, 
2463.00, 
2464.00, 
2465.00, 
2466.00, 
2467.00, 
2468.00, 
2469.00, 
2470.00, 
2471.00, 
2472.00, 
2473.00, 
2474.00, 
2475.00, 
2476.00, 
2477.00, 
2478.00, 
2479.00, 
2480.00, 
2481.00, 
2482.00, 
2483.00, 
2484.00, 
2485.00, 
2486.00, 
2487.00, 
2488.00, 
2489.00, 
2490.00, 
2491.00, 
2492.00, 
2493.00, 
2494.00, 
2495.00, 
2496.00, 
2497.00, 
2498.00, 
2499.00, 
2500.00, 
2501.00, 
2502.00, 
2503.00, 
2504.00, 
2505.00, 
2506.00, 
2507.00, 
2508.00, 
2509.00, 
2510.00, 
2511.00, 
2512.00, 
2513.00, 
2514.00, 
2515.00, 
2516.00, 
2517.00, 
2518.00, 
2519.00, 
2520.00, 
2521.00, 
2522.00, 
2523.00, 
2524.00, 
2525.00, 
2526.00, 
2527.00, 
2528.00, 
2529.00, 
2530.00, 
2531.00, 
2532.00, 
2533.00, 
2534.00, 
2535.00, 
2536.00, 
2537.00, 
2538.00, 
2539.00, 
2540.00, 
2541.00, 
2542.00, 
2543.00, 
2544.00, 
2545.00, 
2546.00, 
2547.00, 
2548.00, 
2549.00, 
2550.00, 
2551.00, 
2552.00, 
2553.00, 
2554.00, 
2555.00, 
2556.00, 
2557.00, 
2558.00, 
2559.00, 
2560.00, 
2561.00, 
2562.00, 
2563.00, 
2564.00, 
2565.00, 
2566.00, 
2567.00, 
2568.00, 
2569.00, 
2570.00, 
2571.00, 
2572.00, 
2573.00, 
2574.00, 
2575.00, 
2576.00, 
2577.00, 
2578.00, 
2579.00, 
2580.00, 
2581.00, 
2582.00, 
2583.00, 
2584.00, 
2585.00, 
2586.00, 
2587.00, 
2588.00, 
2589.00, 
2590.00, 
2591.00, 
2592.00, 
2593.00, 
2594.00, 
2595.00, 
2596.00, 
2597.00, 
2598.00, 
2599.00, 
2600.00, 
