"2bP2 - RawData"
"Wavelength nm.","T%"
200.00,0.002
201.00,0.002
202.00,0.001
203.00,0.003
204.00,0.002
205.00,-0.001
206.00,0.001
207.00,-0.002
208.00,-0.002
209.00,0.004
210.00,0.002
211.00,0.000
212.00,0.004
213.00,0.000
214.00,0.003
215.00,0.000
216.00,0.002
217.00,-0.001
218.00,0.002
219.00,0.002
220.00,0.001
221.00,0.003
222.00,0.001
223.00,0.001
224.00,0.001
225.00,0.001
226.00,0.002
227.00,0.001
228.00,-0.002
229.00,-0.000
230.00,-0.000
231.00,0.000
232.00,-0.000
233.00,0.001
234.00,0.003
235.00,0.001
236.00,0.002
237.00,0.000
238.00,-0.002
239.00,-0.000
240.00,-0.000
241.00,-0.000
242.00,0.000
243.00,0.001
244.00,0.001
245.00,-0.000
246.00,0.000
247.00,0.001
248.00,-0.000
249.00,0.001
250.00,-0.001
251.00,0.001
252.00,-0.002
253.00,0.001
254.00,0.000
255.00,-0.001
256.00,0.000
257.00,0.001
258.00,0.001
259.00,-0.001
260.00,0.000
261.00,0.001
262.00,0.000
263.00,0.000
264.00,-0.002
265.00,0.001
266.00,0.002
267.00,-0.001
268.00,-0.001
269.00,0.000
270.00,-0.001
271.00,-0.001
272.00,0.001
273.00,-0.000
274.00,-0.000
275.00,-0.000
276.00,0.001
277.00,0.001
278.00,0.002
279.00,0.002
280.00,0.000
281.00,-0.001
282.00,0.000
283.00,-0.001
284.00,-0.000
285.00,0.000
286.00,0.000
287.00,-0.000
288.00,-0.001
289.00,-0.001
290.00,-0.002
291.00,-0.001
292.00,-0.000
293.00,0.001
294.00,-0.001
295.00,0.001
296.00,-0.000
297.00,0.001
298.00,0.001
299.00,0.001
300.00,0.001
301.00,0.003
302.00,0.003
303.00,0.007
304.00,0.010
305.00,0.017
306.00,0.022
307.00,0.037
308.00,0.052
309.00,0.086
310.00,0.112
311.00,0.154
312.00,0.210
313.00,0.277
314.00,0.367
315.00,0.475
316.00,0.604
317.00,0.745
318.00,0.919
319.00,1.119
320.00,1.352
321.00,1.605
322.00,1.880
323.00,2.202
324.00,2.545
325.00,2.886
326.00,3.224
327.00,3.629
328.00,4.037
329.00,4.430
330.00,4.867
331.00,5.295
332.00,5.712
333.00,6.198
334.00,6.600
335.00,7.064
336.00,7.509
337.00,7.942
338.00,8.386
339.00,8.761
340.00,9.167
341.00,9.561
342.00,9.912
343.00,10.274
344.00,10.663
345.00,10.962
346.00,11.236
347.00,11.494
348.00,11.759
349.00,11.989
350.00,12.248
351.00,12.436
352.00,12.600
353.00,12.813
354.00,12.962
355.00,13.150
356.00,13.262
357.00,13.404
358.00,13.538
359.00,13.719
360.00,13.781
361.00,13.837
362.00,13.900
363.00,13.973
364.00,13.984
365.00,14.033
366.00,14.069
367.00,14.085
368.00,14.110
369.00,14.163
370.00,14.110
371.00,14.123
372.00,14.108
373.00,14.124
374.00,14.089
375.00,14.051
376.00,14.025
377.00,13.941
378.00,13.870
379.00,13.775
380.00,13.786
381.00,13.724
382.00,13.712
383.00,13.702
384.00,13.706
385.00,13.683
386.00,13.655
387.00,13.666
388.00,13.695
389.00,13.645
390.00,13.660
391.00,13.642
392.00,13.627
393.00,13.603
394.00,13.627
395.00,13.600
396.00,13.561
397.00,13.576
398.00,13.567
399.00,13.541
400.00,13.506
401.00,13.497
402.00,13.533
403.00,13.525
404.00,13.492
405.00,13.465
406.00,13.435
407.00,13.438
408.00,13.413
409.00,13.368
410.00,13.347
411.00,13.354
412.00,13.316
413.00,13.326
414.00,13.292
415.00,13.268
416.00,13.322
417.00,13.319
418.00,13.349
419.00,13.402
420.00,13.425
421.00,13.384
422.00,13.399
423.00,13.463
424.00,13.467
425.00,13.506
426.00,13.536
427.00,13.561
428.00,13.586
429.00,13.624
430.00,13.667
431.00,13.716
432.00,13.773
433.00,13.782
434.00,13.835
435.00,13.932
436.00,13.951
437.00,14.041
438.00,14.084
439.00,14.145
440.00,14.214
441.00,14.277
442.00,14.385
443.00,14.429
444.00,14.514
445.00,14.596
446.00,14.672
447.00,14.746
448.00,14.852
449.00,14.949
450.00,15.038
451.00,15.122
452.00,15.220
453.00,15.346
454.00,15.430
455.00,15.506
456.00,15.652
457.00,15.747
458.00,15.846
459.00,15.981
460.00,16.102
461.00,16.216
462.00,16.332
463.00,16.470
464.00,16.589
465.00,16.707
466.00,16.834
467.00,16.950
468.00,17.079
469.00,17.202
470.00,17.326
471.00,17.410
472.00,17.558
473.00,17.659
474.00,17.756
475.00,17.882
476.00,18.013
477.00,18.127
478.00,18.281
479.00,18.445
480.00,18.558
481.00,18.694
482.00,18.822
483.00,19.027
484.00,19.166
485.00,19.314
486.00,19.492
487.00,19.641
488.00,19.767
489.00,19.931
490.00,20.091
491.00,20.262
492.00,20.399
493.00,20.598
494.00,20.773
495.00,20.790
496.00,20.942
497.00,21.064
498.00,21.210
499.00,21.387
500.00,21.508
501.00,21.629
502.00,21.812
503.00,21.957
504.00,22.041
505.00,22.201
506.00,22.309
507.00,22.433
508.00,22.577
509.00,22.735
510.00,22.886
511.00,22.978
512.00,23.165
513.00,23.326
514.00,23.439
515.00,23.583
516.00,23.688
517.00,23.793
518.00,23.958
519.00,24.049
520.00,24.145
521.00,24.259
522.00,24.362
523.00,24.436
524.00,24.537
525.00,24.649
526.00,24.775
527.00,24.883
528.00,24.985
529.00,25.195
530.00,25.321
531.00,25.407
532.00,25.505
533.00,25.635
534.00,25.691
535.00,25.782
536.00,25.913
537.00,25.949
538.00,26.090
539.00,26.155
540.00,26.246
541.00,26.336
542.00,26.372
543.00,26.459
544.00,26.570
545.00,26.644
546.00,26.696
547.00,26.830
548.00,26.913
549.00,26.990
550.00,27.075
551.00,27.211
552.00,27.244
553.00,27.303
554.00,27.386
555.00,27.452
556.00,27.496
557.00,27.612
558.00,27.666
559.00,27.772
560.00,27.854
561.00,27.899
562.00,27.985
563.00,28.040
564.00,28.089
565.00,28.111
566.00,28.165
567.00,28.233
568.00,28.268
569.00,28.352
570.00,28.373
571.00,28.434
572.00,28.503
573.00,28.533
574.00,28.554
575.00,28.582
576.00,28.574
577.00,28.662
578.00,28.787
579.00,28.868
580.00,28.865
581.00,28.966
582.00,29.143
583.00,29.076
584.00,29.254
585.00,29.318
586.00,29.361
587.00,29.430
588.00,29.436
589.00,29.449
590.00,29.547
591.00,29.573
592.00,29.571
593.00,29.702
594.00,29.798
595.00,29.828
596.00,29.902
597.00,29.924
598.00,30.043
599.00,30.079
600.00,30.183
601.00,30.208
602.00,30.252
603.00,30.291
604.00,30.341
605.00,30.395
606.00,30.534
607.00,30.580
608.00,30.580
609.00,30.681
610.00,30.873
611.00,30.715
612.00,30.785
613.00,30.853
614.00,30.940
615.00,31.023
616.00,31.140
617.00,31.150
618.00,31.199
619.00,31.264
620.00,31.313
621.00,31.373
622.00,31.447
623.00,31.539
624.00,31.710
625.00,31.781
626.00,31.783
627.00,31.902
628.00,31.938
629.00,32.050
630.00,32.110
631.00,32.187
632.00,32.281
633.00,32.376
634.00,32.572
635.00,32.671
636.00,32.703
637.00,32.793
638.00,32.888
639.00,32.997
640.00,33.083
641.00,33.134
642.00,33.271
643.00,33.405
644.00,33.453
645.00,33.531
646.00,33.719
647.00,33.866
648.00,33.976
649.00,33.988
650.00,34.081
651.00,34.285
652.00,34.362
653.00,34.421
654.00,34.557
655.00,34.712
656.00,35.054
657.00,34.951
658.00,35.176
659.00,35.325
660.00,35.390
661.00,35.401
662.00,35.518
663.00,35.653
664.00,36.040
665.00,36.153
666.00,36.090
667.00,36.213
668.00,36.315
669.00,36.580
670.00,36.860
671.00,36.802
672.00,36.967
673.00,37.016
674.00,37.240
675.00,37.386
676.00,37.596
677.00,37.765
678.00,37.625
679.00,37.777
680.00,37.982
681.00,38.174
682.00,38.139
683.00,38.186
684.00,38.689
685.00,38.846
686.00,38.657
687.00,38.843
688.00,39.025
689.00,39.222
690.00,39.513
691.00,39.752
692.00,39.547
693.00,39.583
694.00,39.825
695.00,40.050
696.00,40.179
697.00,40.180
698.00,40.450
699.00,40.692
700.00,40.743
701.00,40.751
702.00,40.968
703.00,41.276
704.00,41.255
705.00,41.325
706.00,41.507
707.00,41.554
708.00,41.547
709.00,42.010
710.00,42.401
711.00,42.059
712.00,42.174
713.00,42.352
714.00,42.520
715.00,42.584
716.00,42.563
717.00,42.808
718.00,43.031
719.00,43.001
720.00,43.225
721.00,47.559
722.00,47.582
723.00,47.555
724.00,47.683
725.00,47.737
726.00,47.775
727.00,47.877
728.00,47.977
729.00,48.105
730.00,48.174
731.00,48.242
732.00,48.353
733.00,48.378
734.00,48.428
735.00,48.539
736.00,48.645
737.00,48.708
738.00,48.792
739.00,48.873
740.00,48.927
741.00,49.183
742.00,49.158
743.00,49.166
744.00,49.206
745.00,49.275
746.00,49.340
747.00,49.450
748.00,49.439
749.00,49.546
750.00,49.555
751.00,49.610
752.00,49.733
753.00,49.698
754.00,49.752
755.00,49.751
756.00,49.846
757.00,49.871
758.00,49.880
759.00,49.932
760.00,50.031
761.00,50.134
762.00,50.107
763.00,50.182
764.00,50.209
765.00,50.308
766.00,50.307
767.00,50.391
768.00,50.454
769.00,50.448
770.00,50.531
771.00,50.518
772.00,50.611
773.00,50.629
774.00,50.774
775.00,50.797
776.00,50.719
777.00,50.873
778.00,50.802
779.00,50.961
780.00,50.865
781.00,50.937
782.00,50.973
783.00,50.885
784.00,50.983
785.00,50.965
786.00,51.044
787.00,51.020
788.00,50.991
789.00,51.085
790.00,50.982
791.00,51.057
792.00,51.090
793.00,51.119
794.00,51.153
795.00,51.132
796.00,51.182
797.00,51.095
798.00,51.179
799.00,51.162
800.00,51.185
801.00,51.233
802.00,51.293
803.00,51.238
804.00,51.161
805.00,51.220
806.00,51.292
807.00,51.291
808.00,51.332
809.00,51.284
810.00,51.278
811.00,51.325
812.00,51.301
813.00,51.201
814.00,51.294
815.00,51.303
816.00,51.287
817.00,51.316
818.00,51.284
819.00,51.355
820.00,51.242
821.00,51.255
822.00,51.335
823.00,51.357
824.00,51.295
825.00,51.278
826.00,51.241
827.00,51.325
828.00,51.259
829.00,51.276
830.00,51.278
831.00,53.750
832.00,53.727
833.00,53.722
834.00,53.720
835.00,53.678
836.00,53.706
837.00,53.728
838.00,53.651
839.00,53.694
840.00,53.628
841.00,53.681
842.00,53.613
843.00,53.653
844.00,53.776
845.00,53.613
846.00,53.690
847.00,53.624
848.00,53.639
849.00,53.590
850.00,53.603
851.00,53.555
852.00,53.565
853.00,53.521
854.00,53.493
855.00,53.429
856.00,53.464
857.00,53.462
858.00,53.402
859.00,53.392
860.00,53.448
861.00,53.433
862.00,53.371
863.00,53.416
864.00,53.416
865.00,53.411
866.00,53.395
867.00,53.366
868.00,53.377
869.00,53.368
870.00,53.386
871.00,53.379
872.00,53.372
873.00,53.321
874.00,53.367
875.00,53.320
876.00,53.328
877.00,53.328
878.00,53.365
879.00,53.314
880.00,53.302
881.00,53.284
882.00,53.328
883.00,53.305
884.00,53.257
885.00,53.244
886.00,53.274
887.00,53.231
888.00,53.216
889.00,53.204
890.00,53.220
891.00,53.169
892.00,53.168
893.00,53.142
894.00,53.148
895.00,53.104
896.00,53.116
897.00,53.111
898.00,53.079
899.00,53.111
900.00,53.068
901.00,53.054
902.00,53.067
903.00,53.058
904.00,53.033
905.00,53.016
906.00,52.995
907.00,52.980
908.00,52.957
909.00,52.941
910.00,52.936
911.00,52.949
912.00,52.908
913.00,52.937
914.00,52.791
915.00,52.845
916.00,52.827
917.00,52.812
918.00,52.823
919.00,52.793
920.00,52.756
921.00,52.780
922.00,52.747
923.00,52.738
924.00,52.698
925.00,52.733
926.00,52.706
927.00,52.689
928.00,52.641
929.00,52.672
930.00,52.608
931.00,52.595
932.00,52.568
933.00,52.604
934.00,52.569
935.00,52.572
936.00,52.517
937.00,52.517
938.00,52.492
939.00,52.517
940.00,52.472
941.00,52.489
942.00,52.443
943.00,52.442
944.00,52.387
945.00,52.411
946.00,52.325
947.00,52.350
948.00,52.346
949.00,52.331
950.00,52.327
951.00,52.292
952.00,52.292
953.00,52.253
954.00,52.213
955.00,52.144
956.00,52.212
957.00,52.123
958.00,52.146
959.00,52.090
960.00,52.083
961.00,52.082
962.00,52.085
963.00,52.062
964.00,52.042
965.00,52.054
966.00,52.035
967.00,52.019
968.00,51.995
969.00,52.032
970.00,51.996
971.00,52.020
972.00,51.965
973.00,52.025
974.00,52.041
975.00,52.006
976.00,52.028
977.00,52.011
978.00,52.060
979.00,52.020
980.00,52.034
981.00,52.035
982.00,52.003
983.00,52.019
984.00,51.989
985.00,52.018
986.00,51.971
987.00,52.002
988.00,51.965
989.00,51.953
990.00,51.952
991.00,51.929
992.00,51.944
993.00,51.902
994.00,51.904
995.00,51.891
996.00,51.889
997.00,51.873
998.00,51.867
999.00,51.881
1000.00,51.828
1001.00,51.845
1002.00,51.833
1003.00,51.815
1004.00,51.801
1005.00,51.766
1006.00,51.806
1007.00,51.762
1008.00,51.742
1009.00,51.732
1010.00,51.733
1011.00,51.720
1012.00,51.681
1013.00,51.688
1014.00,51.679
1015.00,51.688
1016.00,51.627
1017.00,51.645
1018.00,51.632
1019.00,51.596
1020.00,51.590
1021.00,51.566
1022.00,51.568
1023.00,51.523
1024.00,51.539
1025.00,51.512
1026.00,51.513
1027.00,51.463
1028.00,51.443
1029.00,51.497
1030.00,51.405
1031.00,51.435
1032.00,51.392
1033.00,51.396
1034.00,51.378
1035.00,51.329
1036.00,51.319
1037.00,51.298
1038.00,51.281
1039.00,51.247
1040.00,51.251
1041.00,51.202
1042.00,51.211
1043.00,51.184
1044.00,51.202
1045.00,51.186
1046.00,51.158
1047.00,51.194
1048.00,51.216
1049.00,51.219
1050.00,51.226
1051.00,51.276
1052.00,51.260
1053.00,51.272
1054.00,51.273
1055.00,51.301
1056.00,51.301
1057.00,51.294
1058.00,51.273
1059.00,51.271
1060.00,51.271
1061.00,51.257
1062.00,51.267
1063.00,51.257
1064.00,51.275
1065.00,51.253
1066.00,51.245
1067.00,51.236
1068.00,51.260
1069.00,51.214
1070.00,51.198
1071.00,51.192
1072.00,51.207
1073.00,51.181
1074.00,51.157
1075.00,51.170
1076.00,51.167
1077.00,51.150
1078.00,51.145
1079.00,51.123
1080.00,51.130
1081.00,51.125
1082.00,51.116
1083.00,51.122
1084.00,51.109
1085.00,51.100
1086.00,51.085
1087.00,51.098
1088.00,51.075
1089.00,51.065
1090.00,51.051
1091.00,51.076
1092.00,51.061
1093.00,51.033
1094.00,51.024
1095.00,51.021
1096.00,50.982
1097.00,50.995
1098.00,50.991
1099.00,50.972
1100.00,50.947
1101.00,50.945
1102.00,50.929
1103.00,50.941
1104.00,50.921
1105.00,50.918
1106.00,50.904
1107.00,50.898
1108.00,50.904
1109.00,50.890
1110.00,50.868
1111.00,50.864
1112.00,50.844
1113.00,50.840
1114.00,50.827
1115.00,50.835
1116.00,50.826
1117.00,50.816
1118.00,50.793
1119.00,50.793
1120.00,50.797
1121.00,50.789
1122.00,50.786
1123.00,50.782
1124.00,50.760
1125.00,50.772
1126.00,50.738
1127.00,50.743
1128.00,50.723
1129.00,50.702
1130.00,50.701
1131.00,50.714
1132.00,50.706
1133.00,50.701
1134.00,50.686
1135.00,50.676
1136.00,50.668
1137.00,50.673
1138.00,50.666
1139.00,50.680
1140.00,50.651
1141.00,50.672
1142.00,50.652
1143.00,50.668
1144.00,50.645
1145.00,50.647
1146.00,50.632
1147.00,50.637
1148.00,50.629
1149.00,50.638
1150.00,50.625
1151.00,50.612
1152.00,50.597
1153.00,50.602
1154.00,50.591
1155.00,50.608
1156.00,50.588
1157.00,50.611
1158.00,50.613
1159.00,50.606
1160.00,50.597
1161.00,50.618
1162.00,50.587
1163.00,50.578
1164.00,50.589
1165.00,50.581
1166.00,50.578
1167.00,50.557
1168.00,50.590
1169.00,50.585
1170.00,50.561
1171.00,50.542
1172.00,50.567
1173.00,50.544
1174.00,50.559
1175.00,50.555
1176.00,50.540
1177.00,50.533
1178.00,50.523
1179.00,50.547
1180.00,50.528
1181.00,50.551
1182.00,50.534
1183.00,50.545
1184.00,50.536
1185.00,50.538
1186.00,50.528
1187.00,50.527
1188.00,50.527
1189.00,50.507
1190.00,50.502
1191.00,50.505
1192.00,50.518
1193.00,50.518
1194.00,50.530
1195.00,50.488
1196.00,50.520
1197.00,50.533
1198.00,50.513
1199.00,50.492
1200.00,50.512
1201.00,50.533
1202.00,50.500
1203.00,50.494
1204.00,50.475
1205.00,50.503
1206.00,50.485
1207.00,50.499
1208.00,50.493
1209.00,50.499
1210.00,50.511
1211.00,50.490
1212.00,50.515
1213.00,50.469
1214.00,50.496
1215.00,50.475
1216.00,50.479
1217.00,50.477
1218.00,50.453
1219.00,50.483
1220.00,50.460
1221.00,50.484
1222.00,50.456
1223.00,50.490
1224.00,50.487
1225.00,50.455
1226.00,50.466
1227.00,50.477
1228.00,50.483
1229.00,50.460
1230.00,50.517
1231.00,50.506
1232.00,50.524
1233.00,50.521
1234.00,50.517
1235.00,50.524
1236.00,50.515
1237.00,50.528
1238.00,50.528
1239.00,50.518
1240.00,50.514
1241.00,50.530
1242.00,50.526
1243.00,50.530
1244.00,50.501
1245.00,50.545
1246.00,50.550
1247.00,50.525
1248.00,50.531
1249.00,50.547
1250.00,50.547
1251.00,50.537
1252.00,50.562
1253.00,50.535
1254.00,50.569
1255.00,50.539
1256.00,50.542
1257.00,50.520
1258.00,50.560
1259.00,50.564
1260.00,50.598
1261.00,50.576
1262.00,50.570
1263.00,50.573
1264.00,50.579
1265.00,50.574
1266.00,50.569
1267.00,50.595
1268.00,50.610
1269.00,50.595
1270.00,50.615
1271.00,50.628
1272.00,50.611
1273.00,50.639
1274.00,50.631
1275.00,50.638
1276.00,50.630
1277.00,50.638
1278.00,50.652
1279.00,50.646
1280.00,50.636
1281.00,50.663
1282.00,50.670
1283.00,50.647
1284.00,50.668
1285.00,50.660
1286.00,50.670
1287.00,50.670
1288.00,50.660
1289.00,50.662
1290.00,50.695
1291.00,50.678
1292.00,50.676
1293.00,50.690
1294.00,50.687
1295.00,50.695
1296.00,50.702
1297.00,50.696
1298.00,50.732
1299.00,50.685
1300.00,50.720
1301.00,50.716
1302.00,50.725
1303.00,50.749
1304.00,50.739
1305.00,50.752
1306.00,50.768
1307.00,50.778
1308.00,50.760
1309.00,50.773
1310.00,50.769
1311.00,50.756
1312.00,50.770
1313.00,50.769
1314.00,50.778
1315.00,50.799
1316.00,50.766
1317.00,50.821
1318.00,50.803
1319.00,50.796
1320.00,50.817
1321.00,50.975
1322.00,50.959
1323.00,50.961
1324.00,50.957
1325.00,50.951
1326.00,50.991
1327.00,50.958
1328.00,50.954
1329.00,50.974
1330.00,50.944
1331.00,50.949
1332.00,50.964
1333.00,50.973
1334.00,50.995
1335.00,51.002
1336.00,51.045
1337.00,51.085
1338.00,51.140
1339.00,51.187
1340.00,51.242
1341.00,51.276
1342.00,51.359
1343.00,51.409
1344.00,51.449
1345.00,51.498
1346.00,51.515
1347.00,51.551
1348.00,51.582
1349.00,51.580
1350.00,51.623
1351.00,51.618
1352.00,51.632
1353.00,51.635
1354.00,51.653
1355.00,51.609
1356.00,51.657
1357.00,51.641
1358.00,51.676
1359.00,51.703
1360.00,51.658
1361.00,51.637
1362.00,51.642
1363.00,51.713
1364.00,51.665
1365.00,51.667
1366.00,51.844
1367.00,51.622
1368.00,51.663
1369.00,51.653
1370.00,51.664
1371.00,51.624
1372.00,51.637
1373.00,51.639
1374.00,51.649
1375.00,51.619
1376.00,51.641
1377.00,51.630
1378.00,51.691
1379.00,51.619
1380.00,51.641
1381.00,51.662
1382.00,51.595
1383.00,51.637
1384.00,51.606
1385.00,51.621
1386.00,51.630
1387.00,51.612
1388.00,51.565
1389.00,51.610
1390.00,51.618
1391.00,51.572
1392.00,51.612
1393.00,51.636
1394.00,51.638
1395.00,51.570
1396.00,51.554
1397.00,51.623
1398.00,51.677
1399.00,51.585
1400.00,51.535
1401.00,51.597
1402.00,51.661
1403.00,51.594
1404.00,51.648
1405.00,51.637
1406.00,51.696
1407.00,51.655
1408.00,51.646
1409.00,51.678
1410.00,51.734
1411.00,51.638
1412.00,51.748
1413.00,51.636
1414.00,51.695
1415.00,51.754
1416.00,51.743
1417.00,51.778
1418.00,51.716
1419.00,51.753
1420.00,51.773
1421.00,51.785
1422.00,51.816
1423.00,51.820
1424.00,51.823
1425.00,51.841
1426.00,51.828
1427.00,51.853
1428.00,51.844
1429.00,51.848
1430.00,51.876
1431.00,51.911
1432.00,51.907
1433.00,51.928
1434.00,51.913
1435.00,51.968
1436.00,51.975
1437.00,51.955
1438.00,51.974
1439.00,51.988
1440.00,51.987
1441.00,52.007
1442.00,52.038
1443.00,52.068
1444.00,52.107
1445.00,52.062
1446.00,52.109
1447.00,52.129
1448.00,52.150
1449.00,52.147
1450.00,52.160
1451.00,52.149
1452.00,52.180
1453.00,52.176
1454.00,52.192
1455.00,52.237
1456.00,52.263
1457.00,52.248
1458.00,52.284
1459.00,52.291
1460.00,52.337
1461.00,52.323
1462.00,52.359
1463.00,52.352
1464.00,52.371
1465.00,52.372
1466.00,52.377
1467.00,52.397
1468.00,52.448
1469.00,52.428
1470.00,52.438
1471.00,52.464
1472.00,52.475
1473.00,52.475
1474.00,52.511
1475.00,52.528
1476.00,52.537
1477.00,52.508
1478.00,52.539
1479.00,52.552
1480.00,52.571
1481.00,52.576
1482.00,52.609
1483.00,52.622
1484.00,52.623
1485.00,52.632
1486.00,52.651
1487.00,52.662
1488.00,52.681
1489.00,52.659
1490.00,52.685
1491.00,52.674
1492.00,52.700
1493.00,52.677
1494.00,52.733
1495.00,52.726
1496.00,52.747
1497.00,52.739
1498.00,52.755
1499.00,52.778
1500.00,52.781
1501.00, 
1502.00, 
1503.00, 
1504.00, 
1505.00, 
1506.00, 
1507.00, 
1508.00, 
1509.00, 
1510.00, 
1511.00, 
1512.00, 
1513.00, 
1514.00, 
1515.00, 
1516.00, 
1517.00, 
1518.00, 
1519.00, 
1520.00, 
1521.00, 
1522.00, 
1523.00, 
1524.00, 
1525.00, 
1526.00, 
1527.00, 
1528.00, 
1529.00, 
1530.00, 
1531.00, 
1532.00, 
1533.00, 
1534.00, 
1535.00, 
1536.00, 
1537.00, 
1538.00, 
1539.00, 
1540.00, 
1541.00, 
1542.00, 
1543.00, 
1544.00, 
1545.00, 
1546.00, 
1547.00, 
1548.00, 
1549.00, 
1550.00, 
1551.00, 
1552.00, 
1553.00, 
1554.00, 
1555.00, 
1556.00, 
1557.00, 
1558.00, 
1559.00, 
1560.00, 
1561.00, 
1562.00, 
1563.00, 
1564.00, 
1565.00, 
1566.00, 
1567.00, 
1568.00, 
1569.00, 
1570.00, 
1571.00, 
1572.00, 
1573.00, 
1574.00, 
1575.00, 
1576.00, 
1577.00, 
1578.00, 
1579.00, 
1580.00, 
1581.00, 
1582.00, 
1583.00, 
1584.00, 
1585.00, 
1586.00, 
1587.00, 
1588.00, 
1589.00, 
1590.00, 
1591.00, 
1592.00, 
1593.00, 
1594.00, 
1595.00, 
1596.00, 
1597.00, 
1598.00, 
1599.00, 
1600.00, 
1601.00, 
1602.00, 
1603.00, 
1604.00, 
1605.00, 
1606.00, 
1607.00, 
1608.00, 
1609.00, 
1610.00, 
1611.00, 
1612.00, 
1613.00, 
1614.00, 
1615.00, 
1616.00, 
1617.00, 
1618.00, 
1619.00, 
1620.00, 
1621.00, 
1622.00, 
1623.00, 
1624.00, 
1625.00, 
1626.00, 
1627.00, 
1628.00, 
1629.00, 
1630.00, 
1631.00, 
1632.00, 
1633.00, 
1634.00, 
1635.00, 
1636.00, 
1637.00, 
1638.00, 
1639.00, 
1640.00, 
1641.00, 
1642.00, 
1643.00, 
1644.00, 
1645.00, 
1646.00, 
1647.00, 
1648.00, 
1649.00, 
1650.00, 
1651.00, 
1652.00, 
1653.00, 
1654.00, 
1655.00, 
1656.00, 
1657.00, 
1658.00, 
1659.00, 
1660.00, 
1661.00, 
1662.00, 
1663.00, 
1664.00, 
1665.00, 
1666.00, 
1667.00, 
1668.00, 
1669.00, 
1670.00, 
1671.00, 
1672.00, 
1673.00, 
1674.00, 
1675.00, 
1676.00, 
1677.00, 
1678.00, 
1679.00, 
1680.00, 
1681.00, 
1682.00, 
1683.00, 
1684.00, 
1685.00, 
1686.00, 
1687.00, 
1688.00, 
1689.00, 
1690.00, 
1691.00, 
1692.00, 
1693.00, 
1694.00, 
1695.00, 
1696.00, 
1697.00, 
1698.00, 
1699.00, 
1700.00, 
1701.00, 
1702.00, 
1703.00, 
1704.00, 
1705.00, 
1706.00, 
1707.00, 
1708.00, 
1709.00, 
1710.00, 
1711.00, 
1712.00, 
1713.00, 
1714.00, 
1715.00, 
1716.00, 
1717.00, 
1718.00, 
1719.00, 
1720.00, 
1721.00, 
1722.00, 
1723.00, 
1724.00, 
1725.00, 
1726.00, 
1727.00, 
1728.00, 
1729.00, 
1730.00, 
1731.00, 
1732.00, 
1733.00, 
1734.00, 
1735.00, 
1736.00, 
1737.00, 
1738.00, 
1739.00, 
1740.00, 
1741.00, 
1742.00, 
1743.00, 
1744.00, 
1745.00, 
1746.00, 
1747.00, 
1748.00, 
1749.00, 
1750.00, 
1751.00, 
1752.00, 
1753.00, 
1754.00, 
1755.00, 
1756.00, 
1757.00, 
1758.00, 
1759.00, 
1760.00, 
1761.00, 
1762.00, 
1763.00, 
1764.00, 
1765.00, 
1766.00, 
1767.00, 
1768.00, 
1769.00, 
1770.00, 
1771.00, 
1772.00, 
1773.00, 
1774.00, 
1775.00, 
1776.00, 
1777.00, 
1778.00, 
1779.00, 
1780.00, 
1781.00, 
1782.00, 
1783.00, 
1784.00, 
1785.00, 
1786.00, 
1787.00, 
1788.00, 
1789.00, 
1790.00, 
1791.00, 
1792.00, 
1793.00, 
1794.00, 
1795.00, 
1796.00, 
1797.00, 
1798.00, 
1799.00, 
1800.00, 
1801.00, 
1802.00, 
1803.00, 
1804.00, 
1805.00, 
1806.00, 
1807.00, 
1808.00, 
1809.00, 
1810.00, 
1811.00, 
1812.00, 
1813.00, 
1814.00, 
1815.00, 
1816.00, 
1817.00, 
1818.00, 
1819.00, 
1820.00, 
1821.00, 
1822.00, 
1823.00, 
1824.00, 
1825.00, 
1826.00, 
1827.00, 
1828.00, 
1829.00, 
1830.00, 
1831.00, 
1832.00, 
1833.00, 
1834.00, 
1835.00, 
1836.00, 
1837.00, 
1838.00, 
1839.00, 
1840.00, 
1841.00, 
1842.00, 
1843.00, 
1844.00, 
1845.00, 
1846.00, 
1847.00, 
1848.00, 
1849.00, 
1850.00, 
1851.00, 
1852.00, 
1853.00, 
1854.00, 
1855.00, 
1856.00, 
1857.00, 
1858.00, 
1859.00, 
1860.00, 
1861.00, 
1862.00, 
1863.00, 
1864.00, 
1865.00, 
1866.00, 
1867.00, 
1868.00, 
1869.00, 
1870.00, 
1871.00, 
1872.00, 
1873.00, 
1874.00, 
1875.00, 
1876.00, 
1877.00, 
1878.00, 
1879.00, 
1880.00, 
1881.00, 
1882.00, 
1883.00, 
1884.00, 
1885.00, 
1886.00, 
1887.00, 
1888.00, 
1889.00, 
1890.00, 
1891.00, 
1892.00, 
1893.00, 
1894.00, 
1895.00, 
1896.00, 
1897.00, 
1898.00, 
1899.00, 
1900.00, 
1901.00, 
1902.00, 
1903.00, 
1904.00, 
1905.00, 
1906.00, 
1907.00, 
1908.00, 
1909.00, 
1910.00, 
1911.00, 
1912.00, 
1913.00, 
1914.00, 
1915.00, 
1916.00, 
1917.00, 
1918.00, 
1919.00, 
1920.00, 
1921.00, 
1922.00, 
1923.00, 
1924.00, 
1925.00, 
1926.00, 
1927.00, 
1928.00, 
1929.00, 
1930.00, 
1931.00, 
1932.00, 
1933.00, 
1934.00, 
1935.00, 
1936.00, 
1937.00, 
1938.00, 
1939.00, 
1940.00, 
1941.00, 
1942.00, 
1943.00, 
1944.00, 
1945.00, 
1946.00, 
1947.00, 
1948.00, 
1949.00, 
1950.00, 
1951.00, 
1952.00, 
1953.00, 
1954.00, 
1955.00, 
1956.00, 
1957.00, 
1958.00, 
1959.00, 
1960.00, 
1961.00, 
1962.00, 
1963.00, 
1964.00, 
1965.00, 
1966.00, 
1967.00, 
1968.00, 
1969.00, 
1970.00, 
1971.00, 
1972.00, 
1973.00, 
1974.00, 
1975.00, 
1976.00, 
1977.00, 
1978.00, 
1979.00, 
1980.00, 
1981.00, 
1982.00, 
1983.00, 
1984.00, 
1985.00, 
1986.00, 
1987.00, 
1988.00, 
1989.00, 
1990.00, 
1991.00, 
1992.00, 
1993.00, 
1994.00, 
1995.00, 
1996.00, 
1997.00, 
1998.00, 
1999.00, 
2000.00, 
2001.00, 
2002.00, 
2003.00, 
2004.00, 
2005.00, 
2006.00, 
2007.00, 
2008.00, 
2009.00, 
2010.00, 
2011.00, 
2012.00, 
2013.00, 
2014.00, 
2015.00, 
2016.00, 
2017.00, 
2018.00, 
2019.00, 
2020.00, 
2021.00, 
2022.00, 
2023.00, 
2024.00, 
2025.00, 
2026.00, 
2027.00, 
2028.00, 
2029.00, 
2030.00, 
2031.00, 
2032.00, 
2033.00, 
2034.00, 
2035.00, 
2036.00, 
2037.00, 
2038.00, 
2039.00, 
2040.00, 
2041.00, 
2042.00, 
2043.00, 
2044.00, 
2045.00, 
2046.00, 
2047.00, 
2048.00, 
2049.00, 
2050.00, 
2051.00, 
2052.00, 
2053.00, 
2054.00, 
2055.00, 
2056.00, 
2057.00, 
2058.00, 
2059.00, 
2060.00, 
2061.00, 
2062.00, 
2063.00, 
2064.00, 
2065.00, 
2066.00, 
2067.00, 
2068.00, 
2069.00, 
2070.00, 
2071.00, 
2072.00, 
2073.00, 
2074.00, 
2075.00, 
2076.00, 
2077.00, 
2078.00, 
2079.00, 
2080.00, 
2081.00, 
2082.00, 
2083.00, 
2084.00, 
2085.00, 
2086.00, 
2087.00, 
2088.00, 
2089.00, 
2090.00, 
2091.00, 
2092.00, 
2093.00, 
2094.00, 
2095.00, 
2096.00, 
2097.00, 
2098.00, 
2099.00, 
2100.00, 
2101.00, 
2102.00, 
2103.00, 
2104.00, 
2105.00, 
2106.00, 
2107.00, 
2108.00, 
2109.00, 
2110.00, 
2111.00, 
2112.00, 
2113.00, 
2114.00, 
2115.00, 
2116.00, 
2117.00, 
2118.00, 
2119.00, 
2120.00, 
2121.00, 
2122.00, 
2123.00, 
2124.00, 
2125.00, 
2126.00, 
2127.00, 
2128.00, 
2129.00, 
2130.00, 
2131.00, 
2132.00, 
2133.00, 
2134.00, 
2135.00, 
2136.00, 
2137.00, 
2138.00, 
2139.00, 
2140.00, 
2141.00, 
2142.00, 
2143.00, 
2144.00, 
2145.00, 
2146.00, 
2147.00, 
2148.00, 
2149.00, 
2150.00, 
2151.00, 
2152.00, 
2153.00, 
2154.00, 
2155.00, 
2156.00, 
2157.00, 
2158.00, 
2159.00, 
2160.00, 
2161.00, 
2162.00, 
2163.00, 
2164.00, 
2165.00, 
2166.00, 
2167.00, 
2168.00, 
2169.00, 
2170.00, 
2171.00, 
2172.00, 
2173.00, 
2174.00, 
2175.00, 
2176.00, 
2177.00, 
2178.00, 
2179.00, 
2180.00, 
2181.00, 
2182.00, 
2183.00, 
2184.00, 
2185.00, 
2186.00, 
2187.00, 
2188.00, 
2189.00, 
2190.00, 
2191.00, 
2192.00, 
2193.00, 
2194.00, 
2195.00, 
2196.00, 
2197.00, 
2198.00, 
2199.00, 
2200.00, 
2201.00, 
2202.00, 
2203.00, 
2204.00, 
2205.00, 
2206.00, 
2207.00, 
2208.00, 
2209.00, 
2210.00, 
2211.00, 
2212.00, 
2213.00, 
2214.00, 
2215.00, 
2216.00, 
2217.00, 
2218.00, 
2219.00, 
2220.00, 
2221.00, 
2222.00, 
2223.00, 
2224.00, 
2225.00, 
2226.00, 
2227.00, 
2228.00, 
2229.00, 
2230.00, 
2231.00, 
2232.00, 
2233.00, 
2234.00, 
2235.00, 
2236.00, 
2237.00, 
2238.00, 
2239.00, 
2240.00, 
2241.00, 
2242.00, 
2243.00, 
2244.00, 
2245.00, 
2246.00, 
2247.00, 
2248.00, 
2249.00, 
2250.00, 
2251.00, 
2252.00, 
2253.00, 
2254.00, 
2255.00, 
2256.00, 
2257.00, 
2258.00, 
2259.00, 
2260.00, 
2261.00, 
2262.00, 
2263.00, 
2264.00, 
2265.00, 
2266.00, 
2267.00, 
2268.00, 
2269.00, 
2270.00, 
2271.00, 
2272.00, 
2273.00, 
2274.00, 
2275.00, 
2276.00, 
2277.00, 
2278.00, 
2279.00, 
2280.00, 
2281.00, 
2282.00, 
2283.00, 
2284.00, 
2285.00, 
2286.00, 
2287.00, 
2288.00, 
2289.00, 
2290.00, 
2291.00, 
2292.00, 
2293.00, 
2294.00, 
2295.00, 
2296.00, 
2297.00, 
2298.00, 
2299.00, 
2300.00, 
2301.00, 
2302.00, 
2303.00, 
2304.00, 
2305.00, 
2306.00, 
2307.00, 
2308.00, 
2309.00, 
2310.00, 
2311.00, 
2312.00, 
2313.00, 
2314.00, 
2315.00, 
2316.00, 
2317.00, 
2318.00, 
2319.00, 
2320.00, 
2321.00, 
2322.00, 
2323.00, 
2324.00, 
2325.00, 
2326.00, 
2327.00, 
2328.00, 
2329.00, 
2330.00, 
2331.00, 
2332.00, 
2333.00, 
2334.00, 
2335.00, 
2336.00, 
2337.00, 
2338.00, 
2339.00, 
2340.00, 
2341.00, 
2342.00, 
2343.00, 
2344.00, 
2345.00, 
2346.00, 
2347.00, 
2348.00, 
2349.00, 
2350.00, 
2351.00, 
2352.00, 
2353.00, 
2354.00, 
2355.00, 
2356.00, 
2357.00, 
2358.00, 
2359.00, 
2360.00, 
2361.00, 
2362.00, 
2363.00, 
2364.00, 
2365.00, 
2366.00, 
2367.00, 
2368.00, 
2369.00, 
2370.00, 
2371.00, 
2372.00, 
2373.00, 
2374.00, 
2375.00, 
2376.00, 
2377.00, 
2378.00, 
2379.00, 
2380.00, 
2381.00, 
2382.00, 
2383.00, 
2384.00, 
2385.00, 
2386.00, 
2387.00, 
2388.00, 
2389.00, 
2390.00, 
2391.00, 
2392.00, 
2393.00, 
2394.00, 
2395.00, 
2396.00, 
2397.00, 
2398.00, 
2399.00, 
2400.00, 
2401.00, 
2402.00, 
2403.00, 
2404.00, 
2405.00, 
2406.00, 
2407.00, 
2408.00, 
2409.00, 
2410.00, 
2411.00, 
2412.00, 
2413.00, 
2414.00, 
2415.00, 
2416.00, 
2417.00, 
2418.00, 
2419.00, 
2420.00, 
2421.00, 
2422.00, 
2423.00, 
2424.00, 
2425.00, 
2426.00, 
2427.00, 
2428.00, 
2429.00, 
2430.00, 
2431.00, 
2432.00, 
2433.00, 
2434.00, 
2435.00, 
2436.00, 
2437.00, 
2438.00, 
2439.00, 
2440.00, 
2441.00, 
2442.00, 
2443.00, 
2444.00, 
2445.00, 
2446.00, 
2447.00, 
2448.00, 
2449.00, 
2450.00, 
2451.00, 
2452.00, 
2453.00, 
2454.00, 
2455.00, 
2456.00, 
2457.00, 
2458.00, 
2459.00, 
2460.00, 
2461.00, 
2462.00, 
2463.00, 
2464.00, 
2465.00, 
2466.00, 
2467.00, 
2468.00, 
2469.00, 
2470.00, 
2471.00, 
2472.00, 
2473.00, 
2474.00, 
2475.00, 
2476.00, 
2477.00, 
2478.00, 
2479.00, 
2480.00, 
2481.00, 
2482.00, 
2483.00, 
2484.00, 
2485.00, 
2486.00, 
2487.00, 
2488.00, 
2489.00, 
2490.00, 
2491.00, 
2492.00, 
2493.00, 
2494.00, 
2495.00, 
2496.00, 
2497.00, 
2498.00, 
2499.00, 
2500.00, 
2501.00, 
2502.00, 
2503.00, 
2504.00, 
2505.00, 
2506.00, 
2507.00, 
2508.00, 
2509.00, 
2510.00, 
2511.00, 
2512.00, 
2513.00, 
2514.00, 
2515.00, 
2516.00, 
2517.00, 
2518.00, 
2519.00, 
2520.00, 
2521.00, 
2522.00, 
2523.00, 
2524.00, 
2525.00, 
2526.00, 
2527.00, 
2528.00, 
2529.00, 
2530.00, 
2531.00, 
2532.00, 
2533.00, 
2534.00, 
2535.00, 
2536.00, 
2537.00, 
2538.00, 
2539.00, 
2540.00, 
2541.00, 
2542.00, 
2543.00, 
2544.00, 
2545.00, 
2546.00, 
2547.00, 
2548.00, 
2549.00, 
2550.00, 
2551.00, 
2552.00, 
2553.00, 
2554.00, 
2555.00, 
2556.00, 
2557.00, 
2558.00, 
2559.00, 
2560.00, 
2561.00, 
2562.00, 
2563.00, 
2564.00, 
2565.00, 
2566.00, 
2567.00, 
2568.00, 
2569.00, 
2570.00, 
2571.00, 
2572.00, 
2573.00, 
2574.00, 
2575.00, 
2576.00, 
2577.00, 
2578.00, 
2579.00, 
2580.00, 
2581.00, 
2582.00, 
2583.00, 
2584.00, 
2585.00, 
2586.00, 
2587.00, 
2588.00, 
2589.00, 
2590.00, 
2591.00, 
2592.00, 
2593.00, 
2594.00, 
2595.00, 
2596.00, 
2597.00, 
2598.00, 
2599.00, 
2600.00, 
