"2cP4 - RawData"
"Wavelength nm.","T%"
200.00,0.000
201.00,-0.000
202.00,0.001
203.00,0.002
204.00,0.004
205.00,-0.001
206.00,0.001
207.00,0.001
208.00,0.000
209.00,0.002
210.00,-0.002
211.00,0.000
212.00,0.003
213.00,0.001
214.00,-0.001
215.00,0.002
216.00,0.003
217.00,0.005
218.00,0.000
219.00,0.003
220.00,0.003
221.00,0.002
222.00,0.000
223.00,0.001
224.00,0.000
225.00,0.002
226.00,0.003
227.00,-0.000
228.00,-0.001
229.00,0.001
230.00,0.001
231.00,0.000
232.00,0.000
233.00,0.001
234.00,0.001
235.00,0.001
236.00,0.002
237.00,0.002
238.00,0.001
239.00,0.001
240.00,0.000
241.00,0.000
242.00,0.000
243.00,-0.002
244.00,-0.000
245.00,0.001
246.00,0.000
247.00,0.001
248.00,0.001
249.00,0.001
250.00,0.001
251.00,0.000
252.00,0.002
253.00,0.002
254.00,0.000
255.00,-0.001
256.00,0.001
257.00,0.001
258.00,-0.000
259.00,-0.001
260.00,0.000
261.00,0.001
262.00,0.000
263.00,0.000
264.00,-0.001
265.00,0.003
266.00,0.000
267.00,-0.000
268.00,-0.001
269.00,0.001
270.00,0.000
271.00,0.000
272.00,0.001
273.00,-0.000
274.00,-0.001
275.00,0.000
276.00,0.001
277.00,0.000
278.00,0.000
279.00,0.002
280.00,-0.000
281.00,-0.000
282.00,-0.000
283.00,0.000
284.00,0.002
285.00,0.002
286.00,-0.000
287.00,0.000
288.00,-0.000
289.00,0.002
290.00,-0.001
291.00,-0.001
292.00,-0.000
293.00,0.001
294.00,0.000
295.00,-0.001
296.00,-0.002
297.00,-0.000
298.00,0.000
299.00,0.000
300.00,0.000
301.00,0.003
302.00,0.003
303.00,0.004
304.00,0.006
305.00,0.012
306.00,0.021
307.00,0.028
308.00,0.043
309.00,0.065
310.00,0.092
311.00,0.118
312.00,0.167
313.00,0.226
314.00,0.291
315.00,0.381
316.00,0.492
317.00,0.615
318.00,0.762
319.00,0.933
320.00,1.126
321.00,1.346
322.00,1.605
323.00,1.891
324.00,2.179
325.00,2.476
326.00,2.772
327.00,3.133
328.00,3.505
329.00,3.866
330.00,4.250
331.00,4.628
332.00,5.019
333.00,5.461
334.00,5.844
335.00,6.249
336.00,6.649
337.00,7.071
338.00,7.455
339.00,7.807
340.00,8.179
341.00,8.531
342.00,8.890
343.00,9.200
344.00,9.522
345.00,9.829
346.00,10.058
347.00,10.337
348.00,10.566
349.00,10.803
350.00,11.015
351.00,11.206
352.00,11.370
353.00,11.562
354.00,11.705
355.00,11.875
356.00,11.991
357.00,12.105
358.00,12.242
359.00,12.386
360.00,12.464
361.00,12.521
362.00,12.579
363.00,12.655
364.00,12.676
365.00,12.723
366.00,12.741
367.00,12.791
368.00,12.797
369.00,12.811
370.00,12.831
371.00,12.832
372.00,12.794
373.00,12.799
374.00,12.768
375.00,12.722
376.00,12.691
377.00,12.636
378.00,12.591
379.00,12.524
380.00,12.506
381.00,12.463
382.00,12.444
383.00,12.416
384.00,12.423
385.00,12.418
386.00,12.359
387.00,12.400
388.00,12.386
389.00,12.395
390.00,12.383
391.00,12.375
392.00,12.372
393.00,12.355
394.00,12.346
395.00,12.351
396.00,12.309
397.00,12.334
398.00,12.304
399.00,12.293
400.00,12.290
401.00,12.264
402.00,12.280
403.00,12.307
404.00,12.262
405.00,12.246
406.00,12.255
407.00,12.210
408.00,12.202
409.00,12.178
410.00,12.154
411.00,12.137
412.00,12.103
413.00,12.123
414.00,12.102
415.00,12.098
416.00,12.157
417.00,12.149
418.00,12.164
419.00,12.218
420.00,12.242
421.00,12.225
422.00,12.201
423.00,12.254
424.00,12.292
425.00,12.302
426.00,12.341
427.00,12.387
428.00,12.398
429.00,12.446
430.00,12.500
431.00,12.535
432.00,12.584
433.00,12.621
434.00,12.665
435.00,12.746
436.00,12.797
437.00,12.850
438.00,12.909
439.00,12.983
440.00,13.029
441.00,13.132
442.00,13.193
443.00,13.259
444.00,13.332
445.00,13.403
446.00,13.506
447.00,13.573
448.00,13.666
449.00,13.764
450.00,13.838
451.00,13.917
452.00,14.025
453.00,14.120
454.00,14.241
455.00,14.346
456.00,14.460
457.00,14.554
458.00,14.646
459.00,14.788
460.00,14.896
461.00,15.025
462.00,15.136
463.00,15.253
464.00,15.378
465.00,15.492
466.00,15.617
467.00,15.733
468.00,15.854
469.00,15.969
470.00,16.101
471.00,16.188
472.00,16.320
473.00,16.425
474.00,16.539
475.00,16.665
476.00,16.789
477.00,16.878
478.00,17.008
479.00,17.196
480.00,17.326
481.00,17.475
482.00,17.638
483.00,17.778
484.00,17.922
485.00,18.094
486.00,18.247
487.00,18.393
488.00,18.543
489.00,18.693
490.00,18.849
491.00,18.999
492.00,19.142
493.00,19.316
494.00,19.480
495.00,19.551
496.00,19.689
497.00,19.799
498.00,19.965
499.00,20.091
500.00,20.247
501.00,20.390
502.00,20.535
503.00,20.685
504.00,20.777
505.00,20.937
506.00,21.043
507.00,21.198
508.00,21.342
509.00,21.479
510.00,21.605
511.00,21.716
512.00,21.909
513.00,22.041
514.00,22.151
515.00,22.293
516.00,22.423
517.00,22.513
518.00,22.672
519.00,22.767
520.00,22.853
521.00,22.959
522.00,23.071
523.00,23.157
524.00,23.270
525.00,23.389
526.00,23.488
527.00,23.599
528.00,23.697
529.00,23.896
530.00,24.021
531.00,24.097
532.00,24.207
533.00,24.313
534.00,24.410
535.00,24.517
536.00,24.616
537.00,24.690
538.00,24.791
539.00,24.871
540.00,24.965
541.00,25.009
542.00,25.083
543.00,25.174
544.00,25.278
545.00,25.349
546.00,25.418
547.00,25.547
548.00,25.620
549.00,25.701
550.00,25.779
551.00,25.898
552.00,25.957
553.00,26.023
554.00,26.126
555.00,26.155
556.00,26.219
557.00,26.334
558.00,26.393
559.00,26.470
560.00,26.547
561.00,26.614
562.00,26.686
563.00,26.744
564.00,26.785
565.00,26.850
566.00,26.877
567.00,26.927
568.00,26.994
569.00,27.031
570.00,27.123
571.00,27.172
572.00,27.233
573.00,27.237
574.00,27.297
575.00,27.328
576.00,27.326
577.00,27.415
578.00,27.527
579.00,27.576
580.00,27.623
581.00,27.759
582.00,27.869
583.00,27.865
584.00,27.965
585.00,28.060
586.00,28.114
587.00,28.179
588.00,28.187
589.00,28.182
590.00,28.268
591.00,28.335
592.00,28.337
593.00,28.424
594.00,28.485
595.00,28.535
596.00,28.630
597.00,28.627
598.00,28.812
599.00,28.825
600.00,28.843
601.00,28.851
602.00,29.011
603.00,29.049
604.00,29.045
605.00,29.137
606.00,29.226
607.00,29.299
608.00,29.328
609.00,29.403
610.00,29.587
611.00,29.477
612.00,29.448
613.00,29.590
614.00,29.691
615.00,29.788
616.00,29.923
617.00,29.925
618.00,29.990
619.00,30.043
620.00,30.046
621.00,30.138
622.00,30.282
623.00,30.386
624.00,30.476
625.00,30.544
626.00,30.622
627.00,30.687
628.00,30.736
629.00,30.828
630.00,30.898
631.00,31.012
632.00,31.122
633.00,31.199
634.00,31.318
635.00,31.446
636.00,31.520
637.00,31.615
638.00,31.701
639.00,31.799
640.00,31.918
641.00,31.970
642.00,32.115
643.00,32.219
644.00,32.303
645.00,32.402
646.00,32.585
647.00,32.679
648.00,32.761
649.00,32.837
650.00,32.937
651.00,33.092
652.00,33.228
653.00,33.290
654.00,33.442
655.00,33.610
656.00,33.884
657.00,33.858
658.00,34.004
659.00,34.163
660.00,34.265
661.00,34.281
662.00,34.419
663.00,34.562
664.00,34.865
665.00,35.036
666.00,35.003
667.00,35.170
668.00,35.218
669.00,35.480
670.00,35.776
671.00,35.651
672.00,35.833
673.00,35.996
674.00,36.166
675.00,36.290
676.00,36.516
677.00,36.702
678.00,36.568
679.00,36.843
680.00,37.013
681.00,37.196
682.00,37.283
683.00,37.363
684.00,37.512
685.00,37.669
686.00,37.674
687.00,37.967
688.00,38.093
689.00,38.148
690.00,38.481
691.00,38.822
692.00,38.578
693.00,38.621
694.00,38.897
695.00,39.112
696.00,39.263
697.00,39.280
698.00,39.513
699.00,39.665
700.00,39.805
701.00,39.862
702.00,40.141
703.00,40.349
704.00,40.413
705.00,40.454
706.00,40.608
707.00,40.660
708.00,40.746
709.00,41.110
710.00,41.535
711.00,41.260
712.00,41.353
713.00,41.535
714.00,41.681
715.00,41.685
716.00,41.735
717.00,42.021
718.00,42.232
719.00,42.271
720.00,42.421
721.00,46.685
722.00,46.768
723.00,46.785
724.00,46.903
725.00,46.955
726.00,47.012
727.00,47.052
728.00,47.131
729.00,47.258
730.00,47.375
731.00,47.413
732.00,47.549
733.00,47.647
734.00,47.687
735.00,47.876
736.00,47.928
737.00,48.047
738.00,48.075
739.00,48.199
740.00,48.223
741.00,48.434
742.00,48.382
743.00,48.498
744.00,48.474
745.00,48.544
746.00,48.611
747.00,48.747
748.00,48.730
749.00,48.847
750.00,48.816
751.00,48.940
752.00,48.974
753.00,49.024
754.00,49.114
755.00,49.039
756.00,49.158
757.00,49.181
758.00,49.239
759.00,49.318
760.00,49.377
761.00,49.399
762.00,49.495
763.00,49.530
764.00,49.595
765.00,49.655
766.00,49.711
767.00,49.762
768.00,49.762
769.00,49.826
770.00,49.924
771.00,49.922
772.00,50.015
773.00,50.059
774.00,50.059
775.00,50.174
776.00,50.128
777.00,50.184
778.00,50.229
779.00,50.296
780.00,50.290
781.00,50.353
782.00,50.401
783.00,50.338
784.00,50.465
785.00,50.404
786.00,50.479
787.00,50.448
788.00,50.433
789.00,50.495
790.00,50.446
791.00,50.533
792.00,50.547
793.00,50.619
794.00,50.643
795.00,50.615
796.00,50.625
797.00,50.606
798.00,50.693
799.00,50.646
800.00,50.635
801.00,50.664
802.00,50.744
803.00,50.698
804.00,50.729
805.00,50.763
806.00,50.691
807.00,50.688
808.00,50.745
809.00,50.803
810.00,50.734
811.00,50.706
812.00,50.771
813.00,50.665
814.00,50.790
815.00,50.799
816.00,50.767
817.00,50.786
818.00,50.758
819.00,50.759
820.00,50.620
821.00,50.773
822.00,50.768
823.00,50.805
824.00,50.725
825.00,50.769
826.00,50.718
827.00,50.897
828.00,50.699
829.00,50.699
830.00,50.736
831.00,52.990
832.00,53.013
833.00,52.940
834.00,52.959
835.00,52.914
836.00,52.971
837.00,52.945
838.00,52.908
839.00,52.930
840.00,52.877
841.00,52.925
842.00,52.861
843.00,52.880
844.00,53.022
845.00,52.875
846.00,52.903
847.00,52.864
848.00,52.827
849.00,52.852
850.00,52.853
851.00,52.765
852.00,52.816
853.00,52.770
854.00,52.731
855.00,52.677
856.00,52.716
857.00,52.695
858.00,52.642
859.00,52.635
860.00,52.674
861.00,52.690
862.00,52.587
863.00,52.637
864.00,52.636
865.00,52.652
866.00,52.634
867.00,52.595
868.00,52.616
869.00,52.615
870.00,52.573
871.00,52.682
872.00,52.601
873.00,52.570
874.00,52.583
875.00,52.548
876.00,52.578
877.00,52.562
878.00,52.594
879.00,52.559
880.00,52.575
881.00,52.516
882.00,52.569
883.00,52.535
884.00,52.490
885.00,52.462
886.00,52.598
887.00,52.455
888.00,52.436
889.00,52.428
890.00,52.426
891.00,52.410
892.00,52.386
893.00,52.366
894.00,52.385
895.00,52.338
896.00,52.315
897.00,52.326
898.00,52.304
899.00,52.314
900.00,52.289
901.00,52.258
902.00,52.277
903.00,52.250
904.00,52.237
905.00,52.225
906.00,52.231
907.00,52.219
908.00,52.195
909.00,52.170
910.00,52.168
911.00,52.157
912.00,52.118
913.00,52.134
914.00,52.006
915.00,52.058
916.00,52.043
917.00,52.049
918.00,52.036
919.00,51.945
920.00,52.043
921.00,52.006
922.00,51.954
923.00,51.945
924.00,51.901
925.00,51.922
926.00,51.914
927.00,51.890
928.00,51.869
929.00,51.893
930.00,51.849
931.00,51.845
932.00,51.786
933.00,51.812
934.00,51.794
935.00,51.784
936.00,51.740
937.00,51.737
938.00,51.735
939.00,51.715
940.00,51.641
941.00,51.706
942.00,51.646
943.00,51.637
944.00,51.608
945.00,51.607
946.00,51.534
947.00,51.582
948.00,51.569
949.00,51.535
950.00,51.531
951.00,51.497
952.00,51.495
953.00,51.474
954.00,51.442
955.00,51.422
956.00,51.443
957.00,51.362
958.00,51.376
959.00,51.321
960.00,51.312
961.00,51.310
962.00,51.297
963.00,51.273
964.00,51.260
965.00,51.262
966.00,51.237
967.00,51.241
968.00,51.216
969.00,51.248
970.00,51.208
971.00,51.242
972.00,51.209
973.00,51.245
974.00,51.262
975.00,51.218
976.00,51.238
977.00,51.208
978.00,51.253
979.00,51.207
980.00,51.211
981.00,51.232
982.00,51.188
983.00,51.209
984.00,51.184
985.00,51.214
986.00,51.201
987.00,51.211
988.00,51.182
989.00,51.149
990.00,51.157
991.00,51.137
992.00,51.162
993.00,51.114
994.00,51.097
995.00,51.082
996.00,51.072
997.00,51.064
998.00,51.052
999.00,51.060
1000.00,51.005
1001.00,51.036
1002.00,51.099
1003.00,51.005
1004.00,51.009
1005.00,50.967
1006.00,50.997
1007.00,50.959
1008.00,50.947
1009.00,50.941
1010.00,50.930
1011.00,50.923
1012.00,50.901
1013.00,50.901
1014.00,50.863
1015.00,50.884
1016.00,50.847
1017.00,50.828
1018.00,50.835
1019.00,50.793
1020.00,50.792
1021.00,50.774
1022.00,50.767
1023.00,50.721
1024.00,50.729
1025.00,50.713
1026.00,50.706
1027.00,50.671
1028.00,50.650
1029.00,50.656
1030.00,50.612
1031.00,50.629
1032.00,50.584
1033.00,50.582
1034.00,50.562
1035.00,50.522
1036.00,50.506
1037.00,50.480
1038.00,50.474
1039.00,50.440
1040.00,50.445
1041.00,50.424
1042.00,50.408
1043.00,50.378
1044.00,50.388
1045.00,50.391
1046.00,50.354
1047.00,50.381
1048.00,50.405
1049.00,50.413
1050.00,50.409
1051.00,50.457
1052.00,50.467
1053.00,50.466
1054.00,50.472
1055.00,50.483
1056.00,50.488
1057.00,50.476
1058.00,50.461
1059.00,50.452
1060.00,50.459
1061.00,50.436
1062.00,50.466
1063.00,50.490
1064.00,50.453
1065.00,50.437
1066.00,50.433
1067.00,50.416
1068.00,50.433
1069.00,50.405
1070.00,50.385
1071.00,50.373
1072.00,50.378
1073.00,50.363
1074.00,50.356
1075.00,50.344
1076.00,50.324
1077.00,50.317
1078.00,50.310
1079.00,50.304
1080.00,50.306
1081.00,50.298
1082.00,50.281
1083.00,50.294
1084.00,50.273
1085.00,50.270
1086.00,50.250
1087.00,50.254
1088.00,50.227
1089.00,50.222
1090.00,50.211
1091.00,50.208
1092.00,50.199
1093.00,50.211
1094.00,50.179
1095.00,50.188
1096.00,50.156
1097.00,50.154
1098.00,50.137
1099.00,50.126
1100.00,50.115
1101.00,50.106
1102.00,50.094
1103.00,50.097
1104.00,50.086
1105.00,50.075
1106.00,50.075
1107.00,50.073
1108.00,50.063
1109.00,50.047
1110.00,50.045
1111.00,50.034
1112.00,50.008
1113.00,50.011
1114.00,49.997
1115.00,49.996
1116.00,49.983
1117.00,49.986
1118.00,49.970
1119.00,49.971
1120.00,49.953
1121.00,49.947
1122.00,49.926
1123.00,49.938
1124.00,49.936
1125.00,49.935
1126.00,49.907
1127.00,49.919
1128.00,49.904
1129.00,49.886
1130.00,49.876
1131.00,49.883
1132.00,49.869
1133.00,49.876
1134.00,49.880
1135.00,49.864
1136.00,49.852
1137.00,49.850
1138.00,49.843
1139.00,49.848
1140.00,49.827
1141.00,49.820
1142.00,49.812
1143.00,49.837
1144.00,49.816
1145.00,49.808
1146.00,49.814
1147.00,49.802
1148.00,49.784
1149.00,49.788
1150.00,49.791
1151.00,49.775
1152.00,49.760
1153.00,49.778
1154.00,49.777
1155.00,49.769
1156.00,49.758
1157.00,49.764
1158.00,49.758
1159.00,49.745
1160.00,49.741
1161.00,49.753
1162.00,49.739
1163.00,49.741
1164.00,49.737
1165.00,49.728
1166.00,49.734
1167.00,49.724
1168.00,49.737
1169.00,49.741
1170.00,49.725
1171.00,49.705
1172.00,49.724
1173.00,49.719
1174.00,49.717
1175.00,49.713
1176.00,49.711
1177.00,49.701
1178.00,49.694
1179.00,49.703
1180.00,49.696
1181.00,49.710
1182.00,49.702
1183.00,49.690
1184.00,49.689
1185.00,49.694
1186.00,49.689
1187.00,49.692
1188.00,49.687
1189.00,49.681
1190.00,49.675
1191.00,49.674
1192.00,49.675
1193.00,49.664
1194.00,49.690
1195.00,49.652
1196.00,49.680
1197.00,49.682
1198.00,49.660
1199.00,49.651
1200.00,49.669
1201.00,49.670
1202.00,49.652
1203.00,49.647
1204.00,49.639
1205.00,49.667
1206.00,49.651
1207.00,49.654
1208.00,49.639
1209.00,49.638
1210.00,49.645
1211.00,49.635
1212.00,49.655
1213.00,49.608
1214.00,49.636
1215.00,49.633
1216.00,49.623
1217.00,49.632
1218.00,49.616
1219.00,49.630
1220.00,49.611
1221.00,49.635
1222.00,49.618
1223.00,49.646
1224.00,49.649
1225.00,49.626
1226.00,49.633
1227.00,49.643
1228.00,49.646
1229.00,49.650
1230.00,49.679
1231.00,49.677
1232.00,49.681
1233.00,49.684
1234.00,49.684
1235.00,49.682
1236.00,49.682
1237.00,49.668
1238.00,49.677
1239.00,49.676
1240.00,49.690
1241.00,49.666
1242.00,49.685
1243.00,49.706
1244.00,49.676
1245.00,49.700
1246.00,49.698
1247.00,49.687
1248.00,49.691
1249.00,49.703
1250.00,49.712
1251.00,49.710
1252.00,49.713
1253.00,49.698
1254.00,49.725
1255.00,49.719
1256.00,49.704
1257.00,49.693
1258.00,49.720
1259.00,49.726
1260.00,49.745
1261.00,49.748
1262.00,49.736
1263.00,49.732
1264.00,49.732
1265.00,49.730
1266.00,49.723
1267.00,49.734
1268.00,49.758
1269.00,49.742
1270.00,49.753
1271.00,49.769
1272.00,49.770
1273.00,49.791
1274.00,49.775
1275.00,49.791
1276.00,49.801
1277.00,49.790
1278.00,49.808
1279.00,49.796
1280.00,49.789
1281.00,49.800
1282.00,49.823
1283.00,49.804
1284.00,49.814
1285.00,49.813
1286.00,49.813
1287.00,49.822
1288.00,49.803
1289.00,49.835
1290.00,49.840
1291.00,49.836
1292.00,49.844
1293.00,49.851
1294.00,49.860
1295.00,49.857
1296.00,49.854
1297.00,49.864
1298.00,49.878
1299.00,49.860
1300.00,49.881
1301.00,49.887
1302.00,49.879
1303.00,49.889
1304.00,49.885
1305.00,49.889
1306.00,49.902
1307.00,49.906
1308.00,49.918
1309.00,49.928
1310.00,49.929
1311.00,49.927
1312.00,49.935
1313.00,49.924
1314.00,49.948
1315.00,49.958
1316.00,49.937
1317.00,49.975
1318.00,49.967
1319.00,49.971
1320.00,49.997
1321.00,50.123
1322.00,50.121
1323.00,50.108
1324.00,50.098
1325.00,50.081
1326.00,50.121
1327.00,50.112
1328.00,50.110
1329.00,50.126
1330.00,50.116
1331.00,50.122
1332.00,50.116
1333.00,50.129
1334.00,50.152
1335.00,50.174
1336.00,50.183
1337.00,50.227
1338.00,50.283
1339.00,50.328
1340.00,50.369
1341.00,50.432
1342.00,50.495
1343.00,50.540
1344.00,50.581
1345.00,50.640
1346.00,50.661
1347.00,50.685
1348.00,50.721
1349.00,50.727
1350.00,50.777
1351.00,50.808
1352.00,50.801
1353.00,50.817
1354.00,50.809
1355.00,50.776
1356.00,50.807
1357.00,50.798
1358.00,50.823
1359.00,50.864
1360.00,50.827
1361.00,50.802
1362.00,50.789
1363.00,50.899
1364.00,50.816
1365.00,50.855
1366.00,50.958
1367.00,50.803
1368.00,50.804
1369.00,50.820
1370.00,50.809
1371.00,50.782
1372.00,50.776
1373.00,50.780
1374.00,50.795
1375.00,50.781
1376.00,50.778
1377.00,50.727
1378.00,50.797
1379.00,50.781
1380.00,50.809
1381.00,50.966
1382.00,50.719
1383.00,50.772
1384.00,50.725
1385.00,50.752
1386.00,50.766
1387.00,50.742
1388.00,50.729
1389.00,50.775
1390.00,50.799
1391.00,50.741
1392.00,50.800
1393.00,50.801
1394.00,50.788
1395.00,50.740
1396.00,50.730
1397.00,50.762
1398.00,50.779
1399.00,50.745
1400.00,50.720
1401.00,50.781
1402.00,50.849
1403.00,50.768
1404.00,50.789
1405.00,50.837
1406.00,50.848
1407.00,50.848
1408.00,50.806
1409.00,50.813
1410.00,50.850
1411.00,50.872
1412.00,50.889
1413.00,50.801
1414.00,50.831
1415.00,50.897
1416.00,50.898
1417.00,50.921
1418.00,50.886
1419.00,50.898
1420.00,50.934
1421.00,50.964
1422.00,50.955
1423.00,50.962
1424.00,50.983
1425.00,50.993
1426.00,51.009
1427.00,51.018
1428.00,51.029
1429.00,51.047
1430.00,51.051
1431.00,51.058
1432.00,51.076
1433.00,51.081
1434.00,51.081
1435.00,51.123
1436.00,51.131
1437.00,51.117
1438.00,51.148
1439.00,51.180
1440.00,51.189
1441.00,51.215
1442.00,51.246
1443.00,51.256
1444.00,51.286
1445.00,51.256
1446.00,51.277
1447.00,51.313
1448.00,51.318
1449.00,51.324
1450.00,51.350
1451.00,51.355
1452.00,51.370
1453.00,51.383
1454.00,51.389
1455.00,51.418
1456.00,51.423
1457.00,51.431
1458.00,51.444
1459.00,51.453
1460.00,51.480
1461.00,51.478
1462.00,51.514
1463.00,51.520
1464.00,51.526
1465.00,51.544
1466.00,51.538
1467.00,51.562
1468.00,51.612
1469.00,51.606
1470.00,51.605
1471.00,51.631
1472.00,51.644
1473.00,51.654
1474.00,51.680
1475.00,51.701
1476.00,51.700
1477.00,51.691
1478.00,51.716
1479.00,51.736
1480.00,51.731
1481.00,51.745
1482.00,51.778
1483.00,51.788
1484.00,51.791
1485.00,51.822
1486.00,51.817
1487.00,51.832
1488.00,51.855
1489.00,51.848
1490.00,51.865
1491.00,51.861
1492.00,51.874
1493.00,51.857
1494.00,51.897
1495.00,51.911
1496.00,51.909
1497.00,51.925
1498.00,51.938
1499.00,51.964
1500.00,51.971
1501.00, 
1502.00, 
1503.00, 
1504.00, 
1505.00, 
1506.00, 
1507.00, 
1508.00, 
1509.00, 
1510.00, 
1511.00, 
1512.00, 
1513.00, 
1514.00, 
1515.00, 
1516.00, 
1517.00, 
1518.00, 
1519.00, 
1520.00, 
1521.00, 
1522.00, 
1523.00, 
1524.00, 
1525.00, 
1526.00, 
1527.00, 
1528.00, 
1529.00, 
1530.00, 
1531.00, 
1532.00, 
1533.00, 
1534.00, 
1535.00, 
1536.00, 
1537.00, 
1538.00, 
1539.00, 
1540.00, 
1541.00, 
1542.00, 
1543.00, 
1544.00, 
1545.00, 
1546.00, 
1547.00, 
1548.00, 
1549.00, 
1550.00, 
1551.00, 
1552.00, 
1553.00, 
1554.00, 
1555.00, 
1556.00, 
1557.00, 
1558.00, 
1559.00, 
1560.00, 
1561.00, 
1562.00, 
1563.00, 
1564.00, 
1565.00, 
1566.00, 
1567.00, 
1568.00, 
1569.00, 
1570.00, 
1571.00, 
1572.00, 
1573.00, 
1574.00, 
1575.00, 
1576.00, 
1577.00, 
1578.00, 
1579.00, 
1580.00, 
1581.00, 
1582.00, 
1583.00, 
1584.00, 
1585.00, 
1586.00, 
1587.00, 
1588.00, 
1589.00, 
1590.00, 
1591.00, 
1592.00, 
1593.00, 
1594.00, 
1595.00, 
1596.00, 
1597.00, 
1598.00, 
1599.00, 
1600.00, 
1601.00, 
1602.00, 
1603.00, 
1604.00, 
1605.00, 
1606.00, 
1607.00, 
1608.00, 
1609.00, 
1610.00, 
1611.00, 
1612.00, 
1613.00, 
1614.00, 
1615.00, 
1616.00, 
1617.00, 
1618.00, 
1619.00, 
1620.00, 
1621.00, 
1622.00, 
1623.00, 
1624.00, 
1625.00, 
1626.00, 
1627.00, 
1628.00, 
1629.00, 
1630.00, 
1631.00, 
1632.00, 
1633.00, 
1634.00, 
1635.00, 
1636.00, 
1637.00, 
1638.00, 
1639.00, 
1640.00, 
1641.00, 
1642.00, 
1643.00, 
1644.00, 
1645.00, 
1646.00, 
1647.00, 
1648.00, 
1649.00, 
1650.00, 
1651.00, 
1652.00, 
1653.00, 
1654.00, 
1655.00, 
1656.00, 
1657.00, 
1658.00, 
1659.00, 
1660.00, 
1661.00, 
1662.00, 
1663.00, 
1664.00, 
1665.00, 
1666.00, 
1667.00, 
1668.00, 
1669.00, 
1670.00, 
1671.00, 
1672.00, 
1673.00, 
1674.00, 
1675.00, 
1676.00, 
1677.00, 
1678.00, 
1679.00, 
1680.00, 
1681.00, 
1682.00, 
1683.00, 
1684.00, 
1685.00, 
1686.00, 
1687.00, 
1688.00, 
1689.00, 
1690.00, 
1691.00, 
1692.00, 
1693.00, 
1694.00, 
1695.00, 
1696.00, 
1697.00, 
1698.00, 
1699.00, 
1700.00, 
1701.00, 
1702.00, 
1703.00, 
1704.00, 
1705.00, 
1706.00, 
1707.00, 
1708.00, 
1709.00, 
1710.00, 
1711.00, 
1712.00, 
1713.00, 
1714.00, 
1715.00, 
1716.00, 
1717.00, 
1718.00, 
1719.00, 
1720.00, 
1721.00, 
1722.00, 
1723.00, 
1724.00, 
1725.00, 
1726.00, 
1727.00, 
1728.00, 
1729.00, 
1730.00, 
1731.00, 
1732.00, 
1733.00, 
1734.00, 
1735.00, 
1736.00, 
1737.00, 
1738.00, 
1739.00, 
1740.00, 
1741.00, 
1742.00, 
1743.00, 
1744.00, 
1745.00, 
1746.00, 
1747.00, 
1748.00, 
1749.00, 
1750.00, 
1751.00, 
1752.00, 
1753.00, 
1754.00, 
1755.00, 
1756.00, 
1757.00, 
1758.00, 
1759.00, 
1760.00, 
1761.00, 
1762.00, 
1763.00, 
1764.00, 
1765.00, 
1766.00, 
1767.00, 
1768.00, 
1769.00, 
1770.00, 
1771.00, 
1772.00, 
1773.00, 
1774.00, 
1775.00, 
1776.00, 
1777.00, 
1778.00, 
1779.00, 
1780.00, 
1781.00, 
1782.00, 
1783.00, 
1784.00, 
1785.00, 
1786.00, 
1787.00, 
1788.00, 
1789.00, 
1790.00, 
1791.00, 
1792.00, 
1793.00, 
1794.00, 
1795.00, 
1796.00, 
1797.00, 
1798.00, 
1799.00, 
1800.00, 
1801.00, 
1802.00, 
1803.00, 
1804.00, 
1805.00, 
1806.00, 
1807.00, 
1808.00, 
1809.00, 
1810.00, 
1811.00, 
1812.00, 
1813.00, 
1814.00, 
1815.00, 
1816.00, 
1817.00, 
1818.00, 
1819.00, 
1820.00, 
1821.00, 
1822.00, 
1823.00, 
1824.00, 
1825.00, 
1826.00, 
1827.00, 
1828.00, 
1829.00, 
1830.00, 
1831.00, 
1832.00, 
1833.00, 
1834.00, 
1835.00, 
1836.00, 
1837.00, 
1838.00, 
1839.00, 
1840.00, 
1841.00, 
1842.00, 
1843.00, 
1844.00, 
1845.00, 
1846.00, 
1847.00, 
1848.00, 
1849.00, 
1850.00, 
1851.00, 
1852.00, 
1853.00, 
1854.00, 
1855.00, 
1856.00, 
1857.00, 
1858.00, 
1859.00, 
1860.00, 
1861.00, 
1862.00, 
1863.00, 
1864.00, 
1865.00, 
1866.00, 
1867.00, 
1868.00, 
1869.00, 
1870.00, 
1871.00, 
1872.00, 
1873.00, 
1874.00, 
1875.00, 
1876.00, 
1877.00, 
1878.00, 
1879.00, 
1880.00, 
1881.00, 
1882.00, 
1883.00, 
1884.00, 
1885.00, 
1886.00, 
1887.00, 
1888.00, 
1889.00, 
1890.00, 
1891.00, 
1892.00, 
1893.00, 
1894.00, 
1895.00, 
1896.00, 
1897.00, 
1898.00, 
1899.00, 
1900.00, 
1901.00, 
1902.00, 
1903.00, 
1904.00, 
1905.00, 
1906.00, 
1907.00, 
1908.00, 
1909.00, 
1910.00, 
1911.00, 
1912.00, 
1913.00, 
1914.00, 
1915.00, 
1916.00, 
1917.00, 
1918.00, 
1919.00, 
1920.00, 
1921.00, 
1922.00, 
1923.00, 
1924.00, 
1925.00, 
1926.00, 
1927.00, 
1928.00, 
1929.00, 
1930.00, 
1931.00, 
1932.00, 
1933.00, 
1934.00, 
1935.00, 
1936.00, 
1937.00, 
1938.00, 
1939.00, 
1940.00, 
1941.00, 
1942.00, 
1943.00, 
1944.00, 
1945.00, 
1946.00, 
1947.00, 
1948.00, 
1949.00, 
1950.00, 
1951.00, 
1952.00, 
1953.00, 
1954.00, 
1955.00, 
1956.00, 
1957.00, 
1958.00, 
1959.00, 
1960.00, 
1961.00, 
1962.00, 
1963.00, 
1964.00, 
1965.00, 
1966.00, 
1967.00, 
1968.00, 
1969.00, 
1970.00, 
1971.00, 
1972.00, 
1973.00, 
1974.00, 
1975.00, 
1976.00, 
1977.00, 
1978.00, 
1979.00, 
1980.00, 
1981.00, 
1982.00, 
1983.00, 
1984.00, 
1985.00, 
1986.00, 
1987.00, 
1988.00, 
1989.00, 
1990.00, 
1991.00, 
1992.00, 
1993.00, 
1994.00, 
1995.00, 
1996.00, 
1997.00, 
1998.00, 
1999.00, 
2000.00, 
2001.00, 
2002.00, 
2003.00, 
2004.00, 
2005.00, 
2006.00, 
2007.00, 
2008.00, 
2009.00, 
2010.00, 
2011.00, 
2012.00, 
2013.00, 
2014.00, 
2015.00, 
2016.00, 
2017.00, 
2018.00, 
2019.00, 
2020.00, 
2021.00, 
2022.00, 
2023.00, 
2024.00, 
2025.00, 
2026.00, 
2027.00, 
2028.00, 
2029.00, 
2030.00, 
2031.00, 
2032.00, 
2033.00, 
2034.00, 
2035.00, 
2036.00, 
2037.00, 
2038.00, 
2039.00, 
2040.00, 
2041.00, 
2042.00, 
2043.00, 
2044.00, 
2045.00, 
2046.00, 
2047.00, 
2048.00, 
2049.00, 
2050.00, 
2051.00, 
2052.00, 
2053.00, 
2054.00, 
2055.00, 
2056.00, 
2057.00, 
2058.00, 
2059.00, 
2060.00, 
2061.00, 
2062.00, 
2063.00, 
2064.00, 
2065.00, 
2066.00, 
2067.00, 
2068.00, 
2069.00, 
2070.00, 
2071.00, 
2072.00, 
2073.00, 
2074.00, 
2075.00, 
2076.00, 
2077.00, 
2078.00, 
2079.00, 
2080.00, 
2081.00, 
2082.00, 
2083.00, 
2084.00, 
2085.00, 
2086.00, 
2087.00, 
2088.00, 
2089.00, 
2090.00, 
2091.00, 
2092.00, 
2093.00, 
2094.00, 
2095.00, 
2096.00, 
2097.00, 
2098.00, 
2099.00, 
2100.00, 
2101.00, 
2102.00, 
2103.00, 
2104.00, 
2105.00, 
2106.00, 
2107.00, 
2108.00, 
2109.00, 
2110.00, 
2111.00, 
2112.00, 
2113.00, 
2114.00, 
2115.00, 
2116.00, 
2117.00, 
2118.00, 
2119.00, 
2120.00, 
2121.00, 
2122.00, 
2123.00, 
2124.00, 
2125.00, 
2126.00, 
2127.00, 
2128.00, 
2129.00, 
2130.00, 
2131.00, 
2132.00, 
2133.00, 
2134.00, 
2135.00, 
2136.00, 
2137.00, 
2138.00, 
2139.00, 
2140.00, 
2141.00, 
2142.00, 
2143.00, 
2144.00, 
2145.00, 
2146.00, 
2147.00, 
2148.00, 
2149.00, 
2150.00, 
2151.00, 
2152.00, 
2153.00, 
2154.00, 
2155.00, 
2156.00, 
2157.00, 
2158.00, 
2159.00, 
2160.00, 
2161.00, 
2162.00, 
2163.00, 
2164.00, 
2165.00, 
2166.00, 
2167.00, 
2168.00, 
2169.00, 
2170.00, 
2171.00, 
2172.00, 
2173.00, 
2174.00, 
2175.00, 
2176.00, 
2177.00, 
2178.00, 
2179.00, 
2180.00, 
2181.00, 
2182.00, 
2183.00, 
2184.00, 
2185.00, 
2186.00, 
2187.00, 
2188.00, 
2189.00, 
2190.00, 
2191.00, 
2192.00, 
2193.00, 
2194.00, 
2195.00, 
2196.00, 
2197.00, 
2198.00, 
2199.00, 
2200.00, 
2201.00, 
2202.00, 
2203.00, 
2204.00, 
2205.00, 
2206.00, 
2207.00, 
2208.00, 
2209.00, 
2210.00, 
2211.00, 
2212.00, 
2213.00, 
2214.00, 
2215.00, 
2216.00, 
2217.00, 
2218.00, 
2219.00, 
2220.00, 
2221.00, 
2222.00, 
2223.00, 
2224.00, 
2225.00, 
2226.00, 
2227.00, 
2228.00, 
2229.00, 
2230.00, 
2231.00, 
2232.00, 
2233.00, 
2234.00, 
2235.00, 
2236.00, 
2237.00, 
2238.00, 
2239.00, 
2240.00, 
2241.00, 
2242.00, 
2243.00, 
2244.00, 
2245.00, 
2246.00, 
2247.00, 
2248.00, 
2249.00, 
2250.00, 
2251.00, 
2252.00, 
2253.00, 
2254.00, 
2255.00, 
2256.00, 
2257.00, 
2258.00, 
2259.00, 
2260.00, 
2261.00, 
2262.00, 
2263.00, 
2264.00, 
2265.00, 
2266.00, 
2267.00, 
2268.00, 
2269.00, 
2270.00, 
2271.00, 
2272.00, 
2273.00, 
2274.00, 
2275.00, 
2276.00, 
2277.00, 
2278.00, 
2279.00, 
2280.00, 
2281.00, 
2282.00, 
2283.00, 
2284.00, 
2285.00, 
2286.00, 
2287.00, 
2288.00, 
2289.00, 
2290.00, 
2291.00, 
2292.00, 
2293.00, 
2294.00, 
2295.00, 
2296.00, 
2297.00, 
2298.00, 
2299.00, 
2300.00, 
2301.00, 
2302.00, 
2303.00, 
2304.00, 
2305.00, 
2306.00, 
2307.00, 
2308.00, 
2309.00, 
2310.00, 
2311.00, 
2312.00, 
2313.00, 
2314.00, 
2315.00, 
2316.00, 
2317.00, 
2318.00, 
2319.00, 
2320.00, 
2321.00, 
2322.00, 
2323.00, 
2324.00, 
2325.00, 
2326.00, 
2327.00, 
2328.00, 
2329.00, 
2330.00, 
2331.00, 
2332.00, 
2333.00, 
2334.00, 
2335.00, 
2336.00, 
2337.00, 
2338.00, 
2339.00, 
2340.00, 
2341.00, 
2342.00, 
2343.00, 
2344.00, 
2345.00, 
2346.00, 
2347.00, 
2348.00, 
2349.00, 
2350.00, 
2351.00, 
2352.00, 
2353.00, 
2354.00, 
2355.00, 
2356.00, 
2357.00, 
2358.00, 
2359.00, 
2360.00, 
2361.00, 
2362.00, 
2363.00, 
2364.00, 
2365.00, 
2366.00, 
2367.00, 
2368.00, 
2369.00, 
2370.00, 
2371.00, 
2372.00, 
2373.00, 
2374.00, 
2375.00, 
2376.00, 
2377.00, 
2378.00, 
2379.00, 
2380.00, 
2381.00, 
2382.00, 
2383.00, 
2384.00, 
2385.00, 
2386.00, 
2387.00, 
2388.00, 
2389.00, 
2390.00, 
2391.00, 
2392.00, 
2393.00, 
2394.00, 
2395.00, 
2396.00, 
2397.00, 
2398.00, 
2399.00, 
2400.00, 
2401.00, 
2402.00, 
2403.00, 
2404.00, 
2405.00, 
2406.00, 
2407.00, 
2408.00, 
2409.00, 
2410.00, 
2411.00, 
2412.00, 
2413.00, 
2414.00, 
2415.00, 
2416.00, 
2417.00, 
2418.00, 
2419.00, 
2420.00, 
2421.00, 
2422.00, 
2423.00, 
2424.00, 
2425.00, 
2426.00, 
2427.00, 
2428.00, 
2429.00, 
2430.00, 
2431.00, 
2432.00, 
2433.00, 
2434.00, 
2435.00, 
2436.00, 
2437.00, 
2438.00, 
2439.00, 
2440.00, 
2441.00, 
2442.00, 
2443.00, 
2444.00, 
2445.00, 
2446.00, 
2447.00, 
2448.00, 
2449.00, 
2450.00, 
2451.00, 
2452.00, 
2453.00, 
2454.00, 
2455.00, 
2456.00, 
2457.00, 
2458.00, 
2459.00, 
2460.00, 
2461.00, 
2462.00, 
2463.00, 
2464.00, 
2465.00, 
2466.00, 
2467.00, 
2468.00, 
2469.00, 
2470.00, 
2471.00, 
2472.00, 
2473.00, 
2474.00, 
2475.00, 
2476.00, 
2477.00, 
2478.00, 
2479.00, 
2480.00, 
2481.00, 
2482.00, 
2483.00, 
2484.00, 
2485.00, 
2486.00, 
2487.00, 
2488.00, 
2489.00, 
2490.00, 
2491.00, 
2492.00, 
2493.00, 
2494.00, 
2495.00, 
2496.00, 
2497.00, 
2498.00, 
2499.00, 
2500.00, 
2501.00, 
2502.00, 
2503.00, 
2504.00, 
2505.00, 
2506.00, 
2507.00, 
2508.00, 
2509.00, 
2510.00, 
2511.00, 
2512.00, 
2513.00, 
2514.00, 
2515.00, 
2516.00, 
2517.00, 
2518.00, 
2519.00, 
2520.00, 
2521.00, 
2522.00, 
2523.00, 
2524.00, 
2525.00, 
2526.00, 
2527.00, 
2528.00, 
2529.00, 
2530.00, 
2531.00, 
2532.00, 
2533.00, 
2534.00, 
2535.00, 
2536.00, 
2537.00, 
2538.00, 
2539.00, 
2540.00, 
2541.00, 
2542.00, 
2543.00, 
2544.00, 
2545.00, 
2546.00, 
2547.00, 
2548.00, 
2549.00, 
2550.00, 
2551.00, 
2552.00, 
2553.00, 
2554.00, 
2555.00, 
2556.00, 
2557.00, 
2558.00, 
2559.00, 
2560.00, 
2561.00, 
2562.00, 
2563.00, 
2564.00, 
2565.00, 
2566.00, 
2567.00, 
2568.00, 
2569.00, 
2570.00, 
2571.00, 
2572.00, 
2573.00, 
2574.00, 
2575.00, 
2576.00, 
2577.00, 
2578.00, 
2579.00, 
2580.00, 
2581.00, 
2582.00, 
2583.00, 
2584.00, 
2585.00, 
2586.00, 
2587.00, 
2588.00, 
2589.00, 
2590.00, 
2591.00, 
2592.00, 
2593.00, 
2594.00, 
2595.00, 
2596.00, 
2597.00, 
2598.00, 
2599.00, 
2600.00, 
