"1aP2 - RawData"
"Wavelength nm.","T%"
200.00,0.002
201.00,0.006
202.00,0.004
203.00,-0.001
204.00,-0.000
205.00,0.003
206.00,0.002
207.00,0.001
208.00,0.003
209.00,0.000
210.00,0.000
211.00,0.002
212.00,0.000
213.00,0.002
214.00,0.002
215.00,0.002
216.00,0.002
217.00,0.001
218.00,0.002
219.00,0.004
220.00,0.003
221.00,0.003
222.00,-0.001
223.00,0.003
224.00,0.001
225.00,0.001
226.00,-0.001
227.00,-0.002
228.00,-0.001
229.00,0.000
230.00,-0.002
231.00,-0.001
232.00,0.000
233.00,0.001
234.00,0.002
235.00,0.000
236.00,0.001
237.00,0.002
238.00,0.001
239.00,-0.000
240.00,0.001
241.00,0.001
242.00,0.000
243.00,-0.002
244.00,-0.001
245.00,0.000
246.00,0.001
247.00,0.000
248.00,0.000
249.00,-0.000
250.00,0.000
251.00,0.000
252.00,-0.001
253.00,-0.000
254.00,0.000
255.00,0.001
256.00,0.001
257.00,-0.003
258.00,0.001
259.00,0.000
260.00,-0.001
261.00,-0.002
262.00,0.001
263.00,0.000
264.00,-0.000
265.00,0.001
266.00,0.000
267.00,0.001
268.00,0.001
269.00,-0.000
270.00,-0.001
271.00,-0.002
272.00,0.000
273.00,-0.001
274.00,0.001
275.00,0.001
276.00,-0.000
277.00,0.000
278.00,-0.000
279.00,-0.000
280.00,-0.000
281.00,0.001
282.00,0.001
283.00,0.001
284.00,-0.001
285.00,0.001
286.00,-0.000
287.00,-0.000
288.00,-0.000
289.00,-0.000
290.00,0.000
291.00,-0.002
292.00,0.001
293.00,-0.000
294.00,0.000
295.00,0.001
296.00,0.001
297.00,-0.001
298.00,0.001
299.00,0.002
300.00,0.002
301.00,0.006
302.00,0.007
303.00,0.010
304.00,0.015
305.00,0.027
306.00,0.040
307.00,0.058
308.00,0.087
309.00,0.131
310.00,0.185
311.00,0.245
312.00,0.337
313.00,0.458
314.00,0.589
315.00,0.762
316.00,0.970
317.00,1.190
318.00,1.459
319.00,1.770
320.00,2.138
321.00,2.544
322.00,2.999
323.00,3.493
324.00,4.036
325.00,4.549
326.00,5.013
327.00,5.685
328.00,6.298
329.00,6.916
330.00,7.571
331.00,8.187
332.00,8.839
333.00,9.509
334.00,10.127
335.00,10.790
336.00,11.424
337.00,12.087
338.00,12.664
339.00,13.254
340.00,13.801
341.00,14.421
342.00,14.825
343.00,15.365
344.00,15.891
345.00,16.275
346.00,16.696
347.00,17.095
348.00,17.444
349.00,17.798
350.00,18.084
351.00,18.351
352.00,18.575
353.00,18.885
354.00,19.138
355.00,19.346
356.00,19.557
357.00,19.727
358.00,19.873
359.00,20.097
360.00,20.220
361.00,20.259
362.00,20.398
363.00,20.532
364.00,20.592
365.00,20.686
366.00,20.730
367.00,20.742
368.00,20.797
369.00,20.786
370.00,20.819
371.00,20.840
372.00,20.787
373.00,20.793
374.00,20.774
375.00,20.703
376.00,20.643
377.00,20.571
378.00,20.488
379.00,20.438
380.00,20.378
381.00,20.363
382.00,20.336
383.00,20.296
384.00,20.334
385.00,20.320
386.00,20.311
387.00,20.332
388.00,20.356
389.00,20.375
390.00,20.326
391.00,20.364
392.00,20.276
393.00,20.346
394.00,20.375
395.00,20.349
396.00,20.329
397.00,20.345
398.00,20.331
399.00,20.327
400.00,20.296
401.00,20.292
402.00,20.284
403.00,20.321
404.00,20.307
405.00,20.281
406.00,20.270
407.00,20.184
408.00,20.208
409.00,20.165
410.00,20.102
411.00,20.121
412.00,20.060
413.00,20.088
414.00,20.074
415.00,20.099
416.00,20.109
417.00,20.148
418.00,20.124
419.00,20.211
420.00,20.226
421.00,20.201
422.00,20.204
423.00,20.241
424.00,20.267
425.00,20.312
426.00,20.350
427.00,20.370
428.00,20.409
429.00,20.439
430.00,20.506
431.00,20.546
432.00,20.574
433.00,20.664
434.00,20.709
435.00,20.749
436.00,20.775
437.00,20.890
438.00,20.950
439.00,21.029
440.00,21.088
441.00,21.186
442.00,21.248
443.00,21.310
444.00,21.398
445.00,21.504
446.00,21.604
447.00,21.692
448.00,21.742
449.00,21.818
450.00,22.016
451.00,22.111
452.00,22.201
453.00,22.315
454.00,22.433
455.00,22.564
456.00,22.673
457.00,22.783
458.00,22.893
459.00,23.021
460.00,23.136
461.00,23.277
462.00,23.397
463.00,23.501
464.00,23.662
465.00,23.806
466.00,23.902
467.00,24.064
468.00,24.163
469.00,24.323
470.00,24.394
471.00,24.486
472.00,24.641
473.00,24.736
474.00,24.860
475.00,24.999
476.00,25.090
477.00,25.255
478.00,25.372
479.00,25.548
480.00,25.680
481.00,25.783
482.00,26.015
483.00,26.174
484.00,26.264
485.00,26.460
486.00,26.612
487.00,26.770
488.00,26.912
489.00,27.080
490.00,27.230
491.00,27.369
492.00,27.528
493.00,27.764
494.00,27.884
495.00,27.896
496.00,28.065
497.00,28.183
498.00,28.328
499.00,28.486
500.00,28.600
501.00,28.745
502.00,28.871
503.00,29.049
504.00,29.098
505.00,29.247
506.00,29.417
507.00,29.510
508.00,29.633
509.00,29.784
510.00,29.898
511.00,30.042
512.00,30.158
513.00,30.334
514.00,30.425
515.00,30.563
516.00,30.730
517.00,30.748
518.00,30.961
519.00,31.040
520.00,31.114
521.00,31.192
522.00,31.268
523.00,31.331
524.00,31.502
525.00,31.632
526.00,31.759
527.00,31.858
528.00,31.932
529.00,32.094
530.00,32.178
531.00,32.276
532.00,32.361
533.00,32.491
534.00,32.596
535.00,32.667
536.00,32.671
537.00,32.824
538.00,32.950
539.00,33.009
540.00,33.040
541.00,33.092
542.00,33.168
543.00,33.228
544.00,33.325
545.00,33.369
546.00,33.459
547.00,33.542
548.00,33.635
549.00,33.707
550.00,33.763
551.00,33.864
552.00,33.939
553.00,34.016
554.00,34.098
555.00,34.153
556.00,34.233
557.00,34.234
558.00,34.298
559.00,34.430
560.00,34.430
561.00,34.512
562.00,34.607
563.00,34.598
564.00,34.686
565.00,34.714
566.00,34.680
567.00,34.806
568.00,34.824
569.00,34.930
570.00,34.911
571.00,34.972
572.00,35.038
573.00,35.054
574.00,35.101
575.00,35.101
576.00,35.109
577.00,35.168
578.00,35.251
579.00,35.307
580.00,35.346
581.00,35.434
582.00,35.553
583.00,35.618
584.00,35.711
585.00,35.738
586.00,35.800
587.00,35.863
588.00,35.847
589.00,35.864
590.00,35.919
591.00,35.933
592.00,35.956
593.00,36.013
594.00,36.119
595.00,36.074
596.00,36.209
597.00,36.163
598.00,36.317
599.00,36.380
600.00,36.468
601.00,36.532
602.00,36.498
603.00,36.638
604.00,36.607
605.00,36.686
606.00,36.779
607.00,36.832
608.00,36.800
609.00,36.852
610.00,36.994
611.00,36.921
612.00,36.995
613.00,37.014
614.00,37.049
615.00,37.152
616.00,37.262
617.00,37.329
618.00,37.342
619.00,37.391
620.00,37.440
621.00,37.490
622.00,37.569
623.00,37.614
624.00,37.727
625.00,37.799
626.00,37.809
627.00,37.889
628.00,37.916
629.00,37.982
630.00,38.049
631.00,38.120
632.00,38.163
633.00,38.268
634.00,38.390
635.00,38.465
636.00,38.573
637.00,38.634
638.00,38.733
639.00,38.845
640.00,38.883
641.00,38.881
642.00,38.993
643.00,39.096
644.00,39.220
645.00,39.262
646.00,39.435
647.00,39.462
648.00,39.546
649.00,39.675
650.00,39.660
651.00,39.774
652.00,39.854
653.00,40.037
654.00,40.056
655.00,40.115
656.00,40.321
657.00,40.450
658.00,40.509
659.00,40.522
660.00,40.627
661.00,40.714
662.00,41.090
663.00,40.963
664.00,41.143
665.00,41.283
666.00,41.313
667.00,41.495
668.00,41.521
669.00,41.802
670.00,41.891
671.00,41.882
672.00,41.981
673.00,42.134
674.00,42.255
675.00,42.316
676.00,42.520
677.00,42.521
678.00,42.543
679.00,42.691
680.00,42.814
681.00,42.944
682.00,43.036
683.00,43.173
684.00,43.325
685.00,43.488
686.00,43.463
687.00,43.530
688.00,43.720
689.00,43.737
690.00,43.843
691.00,44.056
692.00,44.087
693.00,43.781
694.00,44.095
695.00,44.589
696.00,44.492
697.00,44.543
698.00,44.636
699.00,44.867
700.00,44.862
701.00,44.957
702.00,45.203
703.00,45.297
704.00,45.534
705.00,45.472
706.00,45.435
707.00,45.634
708.00,45.538
709.00,45.749
710.00,46.090
711.00,45.930
712.00,45.890
713.00,46.017
714.00,46.097
715.00,46.162
716.00,46.252
717.00,46.347
718.00,46.482
719.00,46.483
720.00,46.635
721.00,50.929
722.00,50.875
723.00,51.011
724.00,51.060
725.00,51.073
726.00,51.132
727.00,51.132
728.00,51.205
729.00,51.302
730.00,51.284
731.00,51.364
732.00,51.348
733.00,51.452
734.00,51.508
735.00,51.601
736.00,51.582
737.00,51.683
738.00,51.743
739.00,51.826
740.00,51.861
741.00,51.983
742.00,51.946
743.00,51.949
744.00,52.020
745.00,52.022
746.00,52.011
747.00,52.093
748.00,52.091
749.00,52.053
750.00,52.113
751.00,52.149
752.00,52.236
753.00,52.111
754.00,52.184
755.00,52.230
756.00,52.193
757.00,52.243
758.00,52.315
759.00,52.362
760.00,52.290
761.00,52.397
762.00,52.429
763.00,52.430
764.00,52.458
765.00,52.535
766.00,52.461
767.00,52.536
768.00,52.522
769.00,52.488
770.00,52.619
771.00,52.526
772.00,52.667
773.00,52.572
774.00,52.713
775.00,52.733
776.00,52.689
777.00,52.728
778.00,52.746
779.00,52.803
780.00,52.838
781.00,52.765
782.00,52.837
783.00,52.769
784.00,52.834
785.00,52.710
786.00,52.846
787.00,52.826
788.00,52.817
789.00,52.909
790.00,52.756
791.00,52.871
792.00,52.783
793.00,52.870
794.00,52.818
795.00,52.848
796.00,52.847
797.00,52.737
798.00,52.911
799.00,52.824
800.00,52.854
801.00,52.785
802.00,52.751
803.00,52.800
804.00,52.748
805.00,52.840
806.00,52.740
807.00,52.805
808.00,52.805
809.00,52.798
810.00,52.767
811.00,52.726
812.00,52.800
813.00,52.712
814.00,52.770
815.00,52.661
816.00,52.704
817.00,52.733
818.00,52.596
819.00,52.695
820.00,52.606
821.00,52.677
822.00,52.634
823.00,52.611
824.00,52.648
825.00,52.532
826.00,52.618
827.00,52.626
828.00,52.671
829.00,52.594
830.00,52.599
831.00,55.299
832.00,55.342
833.00,55.271
834.00,55.290
835.00,55.263
836.00,55.254
837.00,55.227
838.00,55.226
839.00,55.225
840.00,55.148
841.00,55.192
842.00,55.140
843.00,55.168
844.00,55.216
845.00,55.132
846.00,55.163
847.00,55.129
848.00,55.162
849.00,55.048
850.00,55.039
851.00,54.984
852.00,55.044
853.00,54.974
854.00,54.987
855.00,54.904
856.00,54.924
857.00,54.908
858.00,54.879
859.00,54.891
860.00,54.891
861.00,54.878
862.00,54.839
863.00,54.871
864.00,54.813
865.00,54.862
866.00,54.830
867.00,54.830
868.00,54.846
869.00,54.768
870.00,54.853
871.00,54.807
872.00,54.802
873.00,54.828
874.00,54.841
875.00,54.768
876.00,54.802
877.00,54.743
878.00,54.781
879.00,54.721
880.00,54.705
881.00,54.691
882.00,54.780
883.00,54.711
884.00,54.647
885.00,54.684
886.00,54.676
887.00,54.629
888.00,54.566
889.00,54.754
890.00,54.626
891.00,54.588
892.00,54.578
893.00,54.554
894.00,54.565
895.00,54.505
896.00,54.495
897.00,54.489
898.00,54.472
899.00,54.508
900.00,54.437
901.00,54.435
902.00,54.456
903.00,54.412
904.00,54.408
905.00,54.430
906.00,54.403
907.00,54.375
908.00,54.309
909.00,54.320
910.00,54.278
911.00,54.280
912.00,54.268
913.00,54.218
914.00,54.327
915.00,54.191
916.00,54.239
917.00,54.219
918.00,54.221
919.00,54.200
920.00,54.122
921.00,54.151
922.00,54.134
923.00,54.093
924.00,54.049
925.00,54.076
926.00,54.041
927.00,54.067
928.00,54.016
929.00,54.055
930.00,54.021
931.00,54.004
932.00,53.940
933.00,53.993
934.00,53.973
935.00,53.926
936.00,53.900
937.00,53.901
938.00,53.894
939.00,53.898
940.00,53.857
941.00,53.877
942.00,53.819
943.00,53.820
944.00,53.898
945.00,53.780
946.00,53.776
947.00,53.712
948.00,53.721
949.00,53.709
950.00,53.689
951.00,53.662
952.00,53.663
953.00,53.601
954.00,53.592
955.00,53.555
956.00,53.554
957.00,53.518
958.00,53.544
959.00,53.501
960.00,53.483
961.00,53.478
962.00,53.478
963.00,53.431
964.00,53.413
965.00,53.441
966.00,53.415
967.00,53.406
968.00,53.390
969.00,53.424
970.00,53.379
971.00,53.422
972.00,53.361
973.00,53.399
974.00,53.439
975.00,53.384
976.00,53.411
977.00,53.404
978.00,53.442
979.00,53.406
980.00,53.423
981.00,53.438
982.00,53.364
983.00,53.411
984.00,53.402
985.00,53.437
986.00,53.379
987.00,53.406
988.00,53.379
989.00,53.332
990.00,53.351
991.00,53.348
992.00,53.347
993.00,53.310
994.00,53.295
995.00,53.299
996.00,53.291
997.00,53.272
998.00,53.231
999.00,53.279
1000.00,53.194
1001.00,53.195
1002.00,53.213
1003.00,53.192
1004.00,53.167
1005.00,53.155
1006.00,53.195
1007.00,53.176
1008.00,53.165
1009.00,53.148
1010.00,53.152
1011.00,53.105
1012.00,53.076
1013.00,53.113
1014.00,53.081
1015.00,53.102
1016.00,53.059
1017.00,53.048
1018.00,53.048
1019.00,53.004
1020.00,53.030
1021.00,52.990
1022.00,52.965
1023.00,52.915
1024.00,52.930
1025.00,52.897
1026.00,52.907
1027.00,52.872
1028.00,52.876
1029.00,52.883
1030.00,52.829
1031.00,52.862
1032.00,52.821
1033.00,52.811
1034.00,52.792
1035.00,52.778
1036.00,52.725
1037.00,52.719
1038.00,52.701
1039.00,52.669
1040.00,52.679
1041.00,52.630
1042.00,52.634
1043.00,52.617
1044.00,52.645
1045.00,52.633
1046.00,52.636
1047.00,52.653
1048.00,52.669
1049.00,52.688
1050.00,52.683
1051.00,52.732
1052.00,52.716
1053.00,52.723
1054.00,52.720
1055.00,52.731
1056.00,52.753
1057.00,52.759
1058.00,52.730
1059.00,52.723
1060.00,52.755
1061.00,52.736
1062.00,52.731
1063.00,52.733
1064.00,52.741
1065.00,52.721
1066.00,52.708
1067.00,52.711
1068.00,52.732
1069.00,52.677
1070.00,52.685
1071.00,52.669
1072.00,52.690
1073.00,52.670
1074.00,52.658
1075.00,52.648
1076.00,52.661
1077.00,52.619
1078.00,52.610
1079.00,52.631
1080.00,52.616
1081.00,52.591
1082.00,52.594
1083.00,52.590
1084.00,52.607
1085.00,52.620
1086.00,52.597
1087.00,52.602
1088.00,52.573
1089.00,52.578
1090.00,52.579
1091.00,52.570
1092.00,52.559
1093.00,52.537
1094.00,52.523
1095.00,52.524
1096.00,52.485
1097.00,52.492
1098.00,52.494
1099.00,52.474
1100.00,52.474
1101.00,52.477
1102.00,52.424
1103.00,52.453
1104.00,52.420
1105.00,52.400
1106.00,52.399
1107.00,52.384
1108.00,52.393
1109.00,52.400
1110.00,52.374
1111.00,52.372
1112.00,52.368
1113.00,52.358
1114.00,52.366
1115.00,52.372
1116.00,52.342
1117.00,52.333
1118.00,52.319
1119.00,52.332
1120.00,52.329
1121.00,52.332
1122.00,52.325
1123.00,52.311
1124.00,52.315
1125.00,52.311
1126.00,52.309
1127.00,52.331
1128.00,52.303
1129.00,52.284
1130.00,52.258
1131.00,52.265
1132.00,52.240
1133.00,52.250
1134.00,52.253
1135.00,52.228
1136.00,52.243
1137.00,52.231
1138.00,52.239
1139.00,52.253
1140.00,52.230
1141.00,52.236
1142.00,52.218
1143.00,52.226
1144.00,52.204
1145.00,52.205
1146.00,52.197
1147.00,52.198
1148.00,52.185
1149.00,52.200
1150.00,52.217
1151.00,52.208
1152.00,52.200
1153.00,52.214
1154.00,52.189
1155.00,52.205
1156.00,52.188
1157.00,52.191
1158.00,52.170
1159.00,52.171
1160.00,52.164
1161.00,52.191
1162.00,52.169
1163.00,52.176
1164.00,52.189
1165.00,52.167
1166.00,52.171
1167.00,52.173
1168.00,52.181
1169.00,52.163
1170.00,52.146
1171.00,52.151
1172.00,52.169
1173.00,52.152
1174.00,52.165
1175.00,52.169
1176.00,52.150
1177.00,52.143
1178.00,52.154
1179.00,52.152
1180.00,52.146
1181.00,52.162
1182.00,52.140
1183.00,52.156
1184.00,52.120
1185.00,52.161
1186.00,52.145
1187.00,52.140
1188.00,52.146
1189.00,52.157
1190.00,52.141
1191.00,52.136
1192.00,52.168
1193.00,52.165
1194.00,52.179
1195.00,52.160
1196.00,52.181
1197.00,52.174
1198.00,52.156
1199.00,52.155
1200.00,52.180
1201.00,52.165
1202.00,52.161
1203.00,52.154
1204.00,52.148
1205.00,52.171
1206.00,52.147
1207.00,52.157
1208.00,52.148
1209.00,52.162
1210.00,52.148
1211.00,52.175
1212.00,52.184
1213.00,52.124
1214.00,52.164
1215.00,52.124
1216.00,52.145
1217.00,52.148
1218.00,52.155
1219.00,52.171
1220.00,52.128
1221.00,52.170
1222.00,52.158
1223.00,52.174
1224.00,52.172
1225.00,52.167
1226.00,52.154
1227.00,52.163
1228.00,52.168
1229.00,52.167
1230.00,52.200
1231.00,52.173
1232.00,52.220
1233.00,52.201
1234.00,52.184
1235.00,52.202
1236.00,52.202
1237.00,52.199
1238.00,52.202
1239.00,52.191
1240.00,52.177
1241.00,52.208
1242.00,52.194
1243.00,52.211
1244.00,52.198
1245.00,52.222
1246.00,52.232
1247.00,52.238
1248.00,52.244
1249.00,52.245
1250.00,52.226
1251.00,52.225
1252.00,52.252
1253.00,52.229
1254.00,52.267
1255.00,52.255
1256.00,52.235
1257.00,52.239
1258.00,52.273
1259.00,52.263
1260.00,52.292
1261.00,52.280
1262.00,52.290
1263.00,52.293
1264.00,52.270
1265.00,52.309
1266.00,52.317
1267.00,52.298
1268.00,52.318
1269.00,52.312
1270.00,52.343
1271.00,52.346
1272.00,52.342
1273.00,52.356
1274.00,52.344
1275.00,52.335
1276.00,52.339
1277.00,52.350
1278.00,52.346
1279.00,52.371
1280.00,52.359
1281.00,52.379
1282.00,52.388
1283.00,52.373
1284.00,52.407
1285.00,52.398
1286.00,52.388
1287.00,52.384
1288.00,52.413
1289.00,52.386
1290.00,52.429
1291.00,52.423
1292.00,52.405
1293.00,52.446
1294.00,52.415
1295.00,52.443
1296.00,52.488
1297.00,52.442
1298.00,52.494
1299.00,52.468
1300.00,52.479
1301.00,52.485
1302.00,52.507
1303.00,52.506
1304.00,52.508
1305.00,52.520
1306.00,52.511
1307.00,52.527
1308.00,52.513
1309.00,52.529
1310.00,52.526
1311.00,52.497
1312.00,52.525
1313.00,52.521
1314.00,52.543
1315.00,52.567
1316.00,52.547
1317.00,52.585
1318.00,52.593
1319.00,52.580
1320.00,52.585
1321.00,52.765
1322.00,52.758
1323.00,52.729
1324.00,52.740
1325.00,52.709
1326.00,52.744
1327.00,52.723
1328.00,52.720
1329.00,52.718
1330.00,52.720
1331.00,52.741
1332.00,52.728
1333.00,52.723
1334.00,52.767
1335.00,52.784
1336.00,52.821
1337.00,52.840
1338.00,52.897
1339.00,52.948
1340.00,52.999
1341.00,53.075
1342.00,53.140
1343.00,53.180
1344.00,53.221
1345.00,53.277
1346.00,53.299
1347.00,53.325
1348.00,53.358
1349.00,53.364
1350.00,53.387
1351.00,53.402
1352.00,53.393
1353.00,53.409
1354.00,53.412
1355.00,53.368
1356.00,53.457
1357.00,53.426
1358.00,53.433
1359.00,53.476
1360.00,53.468
1361.00,53.492
1362.00,53.421
1363.00,53.476
1364.00,53.558
1365.00,53.453
1366.00,53.499
1367.00,53.476
1368.00,53.416
1369.00,53.456
1370.00,53.454
1371.00,53.380
1372.00,53.424
1373.00,53.441
1374.00,53.463
1375.00,53.445
1376.00,53.429
1377.00,53.403
1378.00,53.442
1379.00,53.425
1380.00,53.474
1381.00,53.483
1382.00,53.404
1383.00,53.466
1384.00,53.415
1385.00,53.421
1386.00,53.451
1387.00,53.443
1388.00,53.410
1389.00,53.412
1390.00,53.414
1391.00,53.469
1392.00,53.443
1393.00,53.383
1394.00,53.456
1395.00,53.434
1396.00,53.366
1397.00,53.395
1398.00,53.379
1399.00,53.407
1400.00,53.449
1401.00,53.421
1402.00,53.421
1403.00,53.460
1404.00,53.474
1405.00,53.486
1406.00,53.498
1407.00,53.498
1408.00,53.519
1409.00,53.499
1410.00,53.517
1411.00,53.494
1412.00,53.557
1413.00,53.513
1414.00,53.519
1415.00,53.507
1416.00,53.541
1417.00,53.555
1418.00,53.559
1419.00,53.565
1420.00,53.578
1421.00,53.607
1422.00,53.606
1423.00,53.637
1424.00,53.630
1425.00,53.678
1426.00,53.662
1427.00,53.687
1428.00,53.692
1429.00,53.673
1430.00,53.680
1431.00,53.713
1432.00,53.717
1433.00,53.767
1434.00,53.732
1435.00,53.780
1436.00,53.799
1437.00,53.809
1438.00,53.810
1439.00,53.847
1440.00,53.839
1441.00,53.869
1442.00,53.874
1443.00,53.883
1444.00,53.947
1445.00,53.908
1446.00,53.924
1447.00,53.939
1448.00,53.996
1449.00,53.981
1450.00,53.989
1451.00,54.007
1452.00,54.027
1453.00,54.025
1454.00,54.062
1455.00,54.083
1456.00,54.078
1457.00,54.073
1458.00,54.121
1459.00,54.135
1460.00,54.163
1461.00,54.146
1462.00,54.184
1463.00,54.188
1464.00,54.192
1465.00,54.223
1466.00,54.209
1467.00,54.218
1468.00,54.278
1469.00,54.257
1470.00,54.284
1471.00,54.297
1472.00,54.308
1473.00,54.322
1474.00,54.344
1475.00,54.362
1476.00,54.375
1477.00,54.349
1478.00,54.359
1479.00,54.377
1480.00,54.367
1481.00,54.389
1482.00,54.430
1483.00,54.426
1484.00,54.445
1485.00,54.463
1486.00,54.465
1487.00,54.488
1488.00,54.501
1489.00,54.502
1490.00,54.479
1491.00,54.525
1492.00,54.590
1493.00,54.519
1494.00,54.575
1495.00,54.562
1496.00,54.581
1497.00,54.571
1498.00,54.580
1499.00,54.608
1500.00,54.592
1501.00, 
1502.00, 
1503.00, 
1504.00, 
1505.00, 
1506.00, 
1507.00, 
1508.00, 
1509.00, 
1510.00, 
1511.00, 
1512.00, 
1513.00, 
1514.00, 
1515.00, 
1516.00, 
1517.00, 
1518.00, 
1519.00, 
1520.00, 
1521.00, 
1522.00, 
1523.00, 
1524.00, 
1525.00, 
1526.00, 
1527.00, 
1528.00, 
1529.00, 
1530.00, 
1531.00, 
1532.00, 
1533.00, 
1534.00, 
1535.00, 
1536.00, 
1537.00, 
1538.00, 
1539.00, 
1540.00, 
1541.00, 
1542.00, 
1543.00, 
1544.00, 
1545.00, 
1546.00, 
1547.00, 
1548.00, 
1549.00, 
1550.00, 
1551.00, 
1552.00, 
1553.00, 
1554.00, 
1555.00, 
1556.00, 
1557.00, 
1558.00, 
1559.00, 
1560.00, 
1561.00, 
1562.00, 
1563.00, 
1564.00, 
1565.00, 
1566.00, 
1567.00, 
1568.00, 
1569.00, 
1570.00, 
1571.00, 
1572.00, 
1573.00, 
1574.00, 
1575.00, 
1576.00, 
1577.00, 
1578.00, 
1579.00, 
1580.00, 
1581.00, 
1582.00, 
1583.00, 
1584.00, 
1585.00, 
1586.00, 
1587.00, 
1588.00, 
1589.00, 
1590.00, 
1591.00, 
1592.00, 
1593.00, 
1594.00, 
1595.00, 
1596.00, 
1597.00, 
1598.00, 
1599.00, 
1600.00, 
1601.00, 
1602.00, 
1603.00, 
1604.00, 
1605.00, 
1606.00, 
1607.00, 
1608.00, 
1609.00, 
1610.00, 
1611.00, 
1612.00, 
1613.00, 
1614.00, 
1615.00, 
1616.00, 
1617.00, 
1618.00, 
1619.00, 
1620.00, 
1621.00, 
1622.00, 
1623.00, 
1624.00, 
1625.00, 
1626.00, 
1627.00, 
1628.00, 
1629.00, 
1630.00, 
1631.00, 
1632.00, 
1633.00, 
1634.00, 
1635.00, 
1636.00, 
1637.00, 
1638.00, 
1639.00, 
1640.00, 
1641.00, 
1642.00, 
1643.00, 
1644.00, 
1645.00, 
1646.00, 
1647.00, 
1648.00, 
1649.00, 
1650.00, 
1651.00, 
1652.00, 
1653.00, 
1654.00, 
1655.00, 
1656.00, 
1657.00, 
1658.00, 
1659.00, 
1660.00, 
1661.00, 
1662.00, 
1663.00, 
1664.00, 
1665.00, 
1666.00, 
1667.00, 
1668.00, 
1669.00, 
1670.00, 
1671.00, 
1672.00, 
1673.00, 
1674.00, 
1675.00, 
1676.00, 
1677.00, 
1678.00, 
1679.00, 
1680.00, 
1681.00, 
1682.00, 
1683.00, 
1684.00, 
1685.00, 
1686.00, 
1687.00, 
1688.00, 
1689.00, 
1690.00, 
1691.00, 
1692.00, 
1693.00, 
1694.00, 
1695.00, 
1696.00, 
1697.00, 
1698.00, 
1699.00, 
1700.00, 
1701.00, 
1702.00, 
1703.00, 
1704.00, 
1705.00, 
1706.00, 
1707.00, 
1708.00, 
1709.00, 
1710.00, 
1711.00, 
1712.00, 
1713.00, 
1714.00, 
1715.00, 
1716.00, 
1717.00, 
1718.00, 
1719.00, 
1720.00, 
1721.00, 
1722.00, 
1723.00, 
1724.00, 
1725.00, 
1726.00, 
1727.00, 
1728.00, 
1729.00, 
1730.00, 
1731.00, 
1732.00, 
1733.00, 
1734.00, 
1735.00, 
1736.00, 
1737.00, 
1738.00, 
1739.00, 
1740.00, 
1741.00, 
1742.00, 
1743.00, 
1744.00, 
1745.00, 
1746.00, 
1747.00, 
1748.00, 
1749.00, 
1750.00, 
1751.00, 
1752.00, 
1753.00, 
1754.00, 
1755.00, 
1756.00, 
1757.00, 
1758.00, 
1759.00, 
1760.00, 
1761.00, 
1762.00, 
1763.00, 
1764.00, 
1765.00, 
1766.00, 
1767.00, 
1768.00, 
1769.00, 
1770.00, 
1771.00, 
1772.00, 
1773.00, 
1774.00, 
1775.00, 
1776.00, 
1777.00, 
1778.00, 
1779.00, 
1780.00, 
1781.00, 
1782.00, 
1783.00, 
1784.00, 
1785.00, 
1786.00, 
1787.00, 
1788.00, 
1789.00, 
1790.00, 
1791.00, 
1792.00, 
1793.00, 
1794.00, 
1795.00, 
1796.00, 
1797.00, 
1798.00, 
1799.00, 
1800.00, 
1801.00, 
1802.00, 
1803.00, 
1804.00, 
1805.00, 
1806.00, 
1807.00, 
1808.00, 
1809.00, 
1810.00, 
1811.00, 
1812.00, 
1813.00, 
1814.00, 
1815.00, 
1816.00, 
1817.00, 
1818.00, 
1819.00, 
1820.00, 
1821.00, 
1822.00, 
1823.00, 
1824.00, 
1825.00, 
1826.00, 
1827.00, 
1828.00, 
1829.00, 
1830.00, 
1831.00, 
1832.00, 
1833.00, 
1834.00, 
1835.00, 
1836.00, 
1837.00, 
1838.00, 
1839.00, 
1840.00, 
1841.00, 
1842.00, 
1843.00, 
1844.00, 
1845.00, 
1846.00, 
1847.00, 
1848.00, 
1849.00, 
1850.00, 
1851.00, 
1852.00, 
1853.00, 
1854.00, 
1855.00, 
1856.00, 
1857.00, 
1858.00, 
1859.00, 
1860.00, 
1861.00, 
1862.00, 
1863.00, 
1864.00, 
1865.00, 
1866.00, 
1867.00, 
1868.00, 
1869.00, 
1870.00, 
1871.00, 
1872.00, 
1873.00, 
1874.00, 
1875.00, 
1876.00, 
1877.00, 
1878.00, 
1879.00, 
1880.00, 
1881.00, 
1882.00, 
1883.00, 
1884.00, 
1885.00, 
1886.00, 
1887.00, 
1888.00, 
1889.00, 
1890.00, 
1891.00, 
1892.00, 
1893.00, 
1894.00, 
1895.00, 
1896.00, 
1897.00, 
1898.00, 
1899.00, 
1900.00, 
1901.00, 
1902.00, 
1903.00, 
1904.00, 
1905.00, 
1906.00, 
1907.00, 
1908.00, 
1909.00, 
1910.00, 
1911.00, 
1912.00, 
1913.00, 
1914.00, 
1915.00, 
1916.00, 
1917.00, 
1918.00, 
1919.00, 
1920.00, 
1921.00, 
1922.00, 
1923.00, 
1924.00, 
1925.00, 
1926.00, 
1927.00, 
1928.00, 
1929.00, 
1930.00, 
1931.00, 
1932.00, 
1933.00, 
1934.00, 
1935.00, 
1936.00, 
1937.00, 
1938.00, 
1939.00, 
1940.00, 
1941.00, 
1942.00, 
1943.00, 
1944.00, 
1945.00, 
1946.00, 
1947.00, 
1948.00, 
1949.00, 
1950.00, 
1951.00, 
1952.00, 
1953.00, 
1954.00, 
1955.00, 
1956.00, 
1957.00, 
1958.00, 
1959.00, 
1960.00, 
1961.00, 
1962.00, 
1963.00, 
1964.00, 
1965.00, 
1966.00, 
1967.00, 
1968.00, 
1969.00, 
1970.00, 
1971.00, 
1972.00, 
1973.00, 
1974.00, 
1975.00, 
1976.00, 
1977.00, 
1978.00, 
1979.00, 
1980.00, 
1981.00, 
1982.00, 
1983.00, 
1984.00, 
1985.00, 
1986.00, 
1987.00, 
1988.00, 
1989.00, 
1990.00, 
1991.00, 
1992.00, 
1993.00, 
1994.00, 
1995.00, 
1996.00, 
1997.00, 
1998.00, 
1999.00, 
2000.00, 
2001.00, 
2002.00, 
2003.00, 
2004.00, 
2005.00, 
2006.00, 
2007.00, 
2008.00, 
2009.00, 
2010.00, 
2011.00, 
2012.00, 
2013.00, 
2014.00, 
2015.00, 
2016.00, 
2017.00, 
2018.00, 
2019.00, 
2020.00, 
2021.00, 
2022.00, 
2023.00, 
2024.00, 
2025.00, 
2026.00, 
2027.00, 
2028.00, 
2029.00, 
2030.00, 
2031.00, 
2032.00, 
2033.00, 
2034.00, 
2035.00, 
2036.00, 
2037.00, 
2038.00, 
2039.00, 
2040.00, 
2041.00, 
2042.00, 
2043.00, 
2044.00, 
2045.00, 
2046.00, 
2047.00, 
2048.00, 
2049.00, 
2050.00, 
2051.00, 
2052.00, 
2053.00, 
2054.00, 
2055.00, 
2056.00, 
2057.00, 
2058.00, 
2059.00, 
2060.00, 
2061.00, 
2062.00, 
2063.00, 
2064.00, 
2065.00, 
2066.00, 
2067.00, 
2068.00, 
2069.00, 
2070.00, 
2071.00, 
2072.00, 
2073.00, 
2074.00, 
2075.00, 
2076.00, 
2077.00, 
2078.00, 
2079.00, 
2080.00, 
2081.00, 
2082.00, 
2083.00, 
2084.00, 
2085.00, 
2086.00, 
2087.00, 
2088.00, 
2089.00, 
2090.00, 
2091.00, 
2092.00, 
2093.00, 
2094.00, 
2095.00, 
2096.00, 
2097.00, 
2098.00, 
2099.00, 
2100.00, 
2101.00, 
2102.00, 
2103.00, 
2104.00, 
2105.00, 
2106.00, 
2107.00, 
2108.00, 
2109.00, 
2110.00, 
2111.00, 
2112.00, 
2113.00, 
2114.00, 
2115.00, 
2116.00, 
2117.00, 
2118.00, 
2119.00, 
2120.00, 
2121.00, 
2122.00, 
2123.00, 
2124.00, 
2125.00, 
2126.00, 
2127.00, 
2128.00, 
2129.00, 
2130.00, 
2131.00, 
2132.00, 
2133.00, 
2134.00, 
2135.00, 
2136.00, 
2137.00, 
2138.00, 
2139.00, 
2140.00, 
2141.00, 
2142.00, 
2143.00, 
2144.00, 
2145.00, 
2146.00, 
2147.00, 
2148.00, 
2149.00, 
2150.00, 
2151.00, 
2152.00, 
2153.00, 
2154.00, 
2155.00, 
2156.00, 
2157.00, 
2158.00, 
2159.00, 
2160.00, 
2161.00, 
2162.00, 
2163.00, 
2164.00, 
2165.00, 
2166.00, 
2167.00, 
2168.00, 
2169.00, 
2170.00, 
2171.00, 
2172.00, 
2173.00, 
2174.00, 
2175.00, 
2176.00, 
2177.00, 
2178.00, 
2179.00, 
2180.00, 
2181.00, 
2182.00, 
2183.00, 
2184.00, 
2185.00, 
2186.00, 
2187.00, 
2188.00, 
2189.00, 
2190.00, 
2191.00, 
2192.00, 
2193.00, 
2194.00, 
2195.00, 
2196.00, 
2197.00, 
2198.00, 
2199.00, 
2200.00, 
2201.00, 
2202.00, 
2203.00, 
2204.00, 
2205.00, 
2206.00, 
2207.00, 
2208.00, 
2209.00, 
2210.00, 
2211.00, 
2212.00, 
2213.00, 
2214.00, 
2215.00, 
2216.00, 
2217.00, 
2218.00, 
2219.00, 
2220.00, 
2221.00, 
2222.00, 
2223.00, 
2224.00, 
2225.00, 
2226.00, 
2227.00, 
2228.00, 
2229.00, 
2230.00, 
2231.00, 
2232.00, 
2233.00, 
2234.00, 
2235.00, 
2236.00, 
2237.00, 
2238.00, 
2239.00, 
2240.00, 
2241.00, 
2242.00, 
2243.00, 
2244.00, 
2245.00, 
2246.00, 
2247.00, 
2248.00, 
2249.00, 
2250.00, 
2251.00, 
2252.00, 
2253.00, 
2254.00, 
2255.00, 
2256.00, 
2257.00, 
2258.00, 
2259.00, 
2260.00, 
2261.00, 
2262.00, 
2263.00, 
2264.00, 
2265.00, 
2266.00, 
2267.00, 
2268.00, 
2269.00, 
2270.00, 
2271.00, 
2272.00, 
2273.00, 
2274.00, 
2275.00, 
2276.00, 
2277.00, 
2278.00, 
2279.00, 
2280.00, 
2281.00, 
2282.00, 
2283.00, 
2284.00, 
2285.00, 
2286.00, 
2287.00, 
2288.00, 
2289.00, 
2290.00, 
2291.00, 
2292.00, 
2293.00, 
2294.00, 
2295.00, 
2296.00, 
2297.00, 
2298.00, 
2299.00, 
2300.00, 
2301.00, 
2302.00, 
2303.00, 
2304.00, 
2305.00, 
2306.00, 
2307.00, 
2308.00, 
2309.00, 
2310.00, 
2311.00, 
2312.00, 
2313.00, 
2314.00, 
2315.00, 
2316.00, 
2317.00, 
2318.00, 
2319.00, 
2320.00, 
2321.00, 
2322.00, 
2323.00, 
2324.00, 
2325.00, 
2326.00, 
2327.00, 
2328.00, 
2329.00, 
2330.00, 
2331.00, 
2332.00, 
2333.00, 
2334.00, 
2335.00, 
2336.00, 
2337.00, 
2338.00, 
2339.00, 
2340.00, 
2341.00, 
2342.00, 
2343.00, 
2344.00, 
2345.00, 
2346.00, 
2347.00, 
2348.00, 
2349.00, 
2350.00, 
2351.00, 
2352.00, 
2353.00, 
2354.00, 
2355.00, 
2356.00, 
2357.00, 
2358.00, 
2359.00, 
2360.00, 
2361.00, 
2362.00, 
2363.00, 
2364.00, 
2365.00, 
2366.00, 
2367.00, 
2368.00, 
2369.00, 
2370.00, 
2371.00, 
2372.00, 
2373.00, 
2374.00, 
2375.00, 
2376.00, 
2377.00, 
2378.00, 
2379.00, 
2380.00, 
2381.00, 
2382.00, 
2383.00, 
2384.00, 
2385.00, 
2386.00, 
2387.00, 
2388.00, 
2389.00, 
2390.00, 
2391.00, 
2392.00, 
2393.00, 
2394.00, 
2395.00, 
2396.00, 
2397.00, 
2398.00, 
2399.00, 
2400.00, 
2401.00, 
2402.00, 
2403.00, 
2404.00, 
2405.00, 
2406.00, 
2407.00, 
2408.00, 
2409.00, 
2410.00, 
2411.00, 
2412.00, 
2413.00, 
2414.00, 
2415.00, 
2416.00, 
2417.00, 
2418.00, 
2419.00, 
2420.00, 
2421.00, 
2422.00, 
2423.00, 
2424.00, 
2425.00, 
2426.00, 
2427.00, 
2428.00, 
2429.00, 
2430.00, 
2431.00, 
2432.00, 
2433.00, 
2434.00, 
2435.00, 
2436.00, 
2437.00, 
2438.00, 
2439.00, 
2440.00, 
2441.00, 
2442.00, 
2443.00, 
2444.00, 
2445.00, 
2446.00, 
2447.00, 
2448.00, 
2449.00, 
2450.00, 
2451.00, 
2452.00, 
2453.00, 
2454.00, 
2455.00, 
2456.00, 
2457.00, 
2458.00, 
2459.00, 
2460.00, 
2461.00, 
2462.00, 
2463.00, 
2464.00, 
2465.00, 
2466.00, 
2467.00, 
2468.00, 
2469.00, 
2470.00, 
2471.00, 
2472.00, 
2473.00, 
2474.00, 
2475.00, 
2476.00, 
2477.00, 
2478.00, 
2479.00, 
2480.00, 
2481.00, 
2482.00, 
2483.00, 
2484.00, 
2485.00, 
2486.00, 
2487.00, 
2488.00, 
2489.00, 
2490.00, 
2491.00, 
2492.00, 
2493.00, 
2494.00, 
2495.00, 
2496.00, 
2497.00, 
2498.00, 
2499.00, 
2500.00, 
2501.00, 
2502.00, 
2503.00, 
2504.00, 
2505.00, 
2506.00, 
2507.00, 
2508.00, 
2509.00, 
2510.00, 
2511.00, 
2512.00, 
2513.00, 
2514.00, 
2515.00, 
2516.00, 
2517.00, 
2518.00, 
2519.00, 
2520.00, 
2521.00, 
2522.00, 
2523.00, 
2524.00, 
2525.00, 
2526.00, 
2527.00, 
2528.00, 
2529.00, 
2530.00, 
2531.00, 
2532.00, 
2533.00, 
2534.00, 
2535.00, 
2536.00, 
2537.00, 
2538.00, 
2539.00, 
2540.00, 
2541.00, 
2542.00, 
2543.00, 
2544.00, 
2545.00, 
2546.00, 
2547.00, 
2548.00, 
2549.00, 
2550.00, 
2551.00, 
2552.00, 
2553.00, 
2554.00, 
2555.00, 
2556.00, 
2557.00, 
2558.00, 
2559.00, 
2560.00, 
2561.00, 
2562.00, 
2563.00, 
2564.00, 
2565.00, 
2566.00, 
2567.00, 
2568.00, 
2569.00, 
2570.00, 
2571.00, 
2572.00, 
2573.00, 
2574.00, 
2575.00, 
2576.00, 
2577.00, 
2578.00, 
2579.00, 
2580.00, 
2581.00, 
2582.00, 
2583.00, 
2584.00, 
2585.00, 
2586.00, 
2587.00, 
2588.00, 
2589.00, 
2590.00, 
2591.00, 
2592.00, 
2593.00, 
2594.00, 
2595.00, 
2596.00, 
2597.00, 
2598.00, 
2599.00, 
2600.00, 
