"1cP1 - RawData"
"Wavelength nm.","T%"
200.00,0.000
201.00,0.002
202.00,0.002
203.00,-0.001
204.00,0.001
205.00,0.002
206.00,-0.001
207.00,-0.001
208.00,-0.004
209.00,0.001
210.00,0.001
211.00,0.002
212.00,0.001
213.00,0.001
214.00,0.000
215.00,0.002
216.00,0.004
217.00,0.000
218.00,0.001
219.00,0.002
220.00,0.003
221.00,0.000
222.00,-0.000
223.00,-0.001
224.00,0.003
225.00,-0.001
226.00,0.001
227.00,0.000
228.00,-0.001
229.00,0.001
230.00,0.001
231.00,-0.002
232.00,0.001
233.00,0.002
234.00,0.000
235.00,-0.000
236.00,-0.000
237.00,0.001
238.00,0.002
239.00,-0.001
240.00,0.000
241.00,0.000
242.00,0.001
243.00,0.002
244.00,0.002
245.00,0.001
246.00,-0.000
247.00,0.000
248.00,-0.001
249.00,0.002
250.00,-0.001
251.00,0.000
252.00,-0.001
253.00,-0.001
254.00,-0.001
255.00,0.001
256.00,-0.000
257.00,0.000
258.00,0.001
259.00,-0.001
260.00,0.001
261.00,-0.001
262.00,0.001
263.00,0.001
264.00,-0.000
265.00,0.000
266.00,0.000
267.00,0.000
268.00,-0.001
269.00,-0.001
270.00,-0.000
271.00,-0.000
272.00,0.001
273.00,0.000
274.00,0.000
275.00,0.001
276.00,0.001
277.00,-0.001
278.00,0.000
279.00,0.002
280.00,0.001
281.00,0.002
282.00,-0.002
283.00,-0.000
284.00,0.001
285.00,0.002
286.00,0.000
287.00,0.001
288.00,-0.002
289.00,-0.001
290.00,0.002
291.00,-0.000
292.00,-0.000
293.00,0.001
294.00,0.002
295.00,-0.000
296.00,0.001
297.00,0.001
298.00,0.001
299.00,0.000
300.00,-0.001
301.00,0.001
302.00,0.001
303.00,0.001
304.00,0.001
305.00,0.001
306.00,0.002
307.00,0.003
308.00,0.004
309.00,0.009
310.00,0.012
311.00,0.019
312.00,0.031
313.00,0.048
314.00,0.070
315.00,0.105
316.00,0.153
317.00,0.208
318.00,0.282
319.00,0.379
320.00,0.511
321.00,0.667
322.00,0.841
323.00,1.068
324.00,1.310
325.00,1.585
326.00,1.885
327.00,2.233
328.00,2.596
329.00,3.002
330.00,3.376
331.00,3.863
332.00,4.328
333.00,4.839
334.00,5.319
335.00,5.864
336.00,6.364
337.00,6.909
338.00,7.438
339.00,7.919
340.00,8.451
341.00,8.968
342.00,9.414
343.00,9.881
344.00,10.359
345.00,10.770
346.00,11.174
347.00,11.551
348.00,11.894
349.00,12.254
350.00,12.572
351.00,12.848
352.00,13.113
353.00,13.402
354.00,13.621
355.00,13.859
356.00,14.082
357.00,14.235
358.00,14.422
359.00,14.646
360.00,14.810
361.00,14.872
362.00,15.014
363.00,15.135
364.00,15.226
365.00,15.255
366.00,15.329
367.00,15.349
368.00,15.406
369.00,15.387
370.00,15.449
371.00,15.449
372.00,15.400
373.00,15.408
374.00,15.377
375.00,15.270
376.00,15.222
377.00,15.157
378.00,15.042
379.00,14.996
380.00,14.935
381.00,14.925
382.00,14.883
383.00,14.896
384.00,14.902
385.00,14.906
386.00,14.915
387.00,14.984
388.00,14.979
389.00,14.978
390.00,14.983
391.00,15.007
392.00,15.014
393.00,15.021
394.00,15.050
395.00,15.048
396.00,14.995
397.00,15.034
398.00,15.003
399.00,14.987
400.00,15.005
401.00,14.956
402.00,15.023
403.00,14.995
404.00,14.964
405.00,14.924
406.00,14.916
407.00,14.852
408.00,14.860
409.00,14.810
410.00,14.782
411.00,14.783
412.00,14.710
413.00,14.729
414.00,14.716
415.00,14.713
416.00,14.732
417.00,14.706
418.00,14.724
419.00,14.822
420.00,14.816
421.00,14.766
422.00,14.764
423.00,14.795
424.00,14.839
425.00,14.839
426.00,14.881
427.00,14.931
428.00,14.958
429.00,14.973
430.00,14.991
431.00,15.049
432.00,15.040
433.00,15.136
434.00,15.177
435.00,15.244
436.00,15.302
437.00,15.357
438.00,15.392
439.00,15.471
440.00,15.521
441.00,15.611
442.00,15.657
443.00,15.704
444.00,15.797
445.00,15.852
446.00,15.995
447.00,16.068
448.00,16.162
449.00,16.254
450.00,16.357
451.00,16.425
452.00,16.526
453.00,16.641
454.00,16.709
455.00,16.827
456.00,16.929
457.00,17.032
458.00,17.136
459.00,17.263
460.00,17.404
461.00,17.498
462.00,17.612
463.00,17.733
464.00,17.870
465.00,17.975
466.00,18.102
467.00,18.229
468.00,18.307
469.00,18.426
470.00,18.572
471.00,18.602
472.00,18.805
473.00,18.893
474.00,19.004
475.00,19.113
476.00,19.240
477.00,19.347
478.00,19.501
479.00,19.691
480.00,19.807
481.00,19.940
482.00,20.095
483.00,20.267
484.00,20.378
485.00,20.540
486.00,20.680
487.00,20.854
488.00,20.983
489.00,21.140
490.00,21.262
491.00,21.374
492.00,21.588
493.00,21.748
494.00,21.944
495.00,21.992
496.00,22.116
497.00,22.249
498.00,22.381
499.00,22.536
500.00,22.687
501.00,22.796
502.00,22.976
503.00,23.115
504.00,23.151
505.00,23.314
506.00,23.466
507.00,23.575
508.00,23.718
509.00,23.877
510.00,23.998
511.00,24.087
512.00,24.252
513.00,24.382
514.00,24.529
515.00,24.690
516.00,24.766
517.00,24.844
518.00,25.053
519.00,25.120
520.00,25.209
521.00,25.350
522.00,25.422
523.00,25.508
524.00,25.594
525.00,25.742
526.00,25.896
527.00,25.950
528.00,26.061
529.00,26.235
530.00,26.373
531.00,26.449
532.00,26.578
533.00,26.673
534.00,26.802
535.00,26.867
536.00,26.947
537.00,27.047
538.00,27.162
539.00,27.206
540.00,27.320
541.00,27.372
542.00,27.438
543.00,27.533
544.00,27.586
545.00,27.662
546.00,27.667
547.00,27.885
548.00,27.976
549.00,28.029
550.00,28.154
551.00,28.276
552.00,28.321
553.00,28.366
554.00,28.460
555.00,28.514
556.00,28.598
557.00,28.656
558.00,28.704
559.00,28.817
560.00,28.883
561.00,28.945
562.00,29.025
563.00,29.077
564.00,29.139
565.00,29.176
566.00,29.178
567.00,29.285
568.00,29.343
569.00,29.379
570.00,29.403
571.00,29.481
572.00,29.496
573.00,29.510
574.00,29.554
575.00,29.525
576.00,29.537
577.00,29.660
578.00,29.758
579.00,29.875
580.00,29.886
581.00,30.032
582.00,30.097
583.00,30.115
584.00,30.241
585.00,30.326
586.00,30.365
587.00,30.424
588.00,30.407
589.00,30.431
590.00,30.515
591.00,30.568
592.00,30.572
593.00,30.573
594.00,30.722
595.00,30.775
596.00,30.843
597.00,30.932
598.00,30.961
599.00,31.031
600.00,31.099
601.00,31.113
602.00,31.128
603.00,31.207
604.00,31.243
605.00,31.370
606.00,31.403
607.00,31.420
608.00,31.487
609.00,31.560
610.00,31.738
611.00,31.639
612.00,31.702
613.00,31.760
614.00,31.787
615.00,31.913
616.00,32.027
617.00,32.001
618.00,32.018
619.00,32.096
620.00,32.177
621.00,32.253
622.00,32.313
623.00,32.373
624.00,32.510
625.00,32.588
626.00,32.598
627.00,32.675
628.00,32.797
629.00,32.813
630.00,32.879
631.00,32.937
632.00,33.047
633.00,33.176
634.00,33.262
635.00,33.326
636.00,33.450
637.00,33.493
638.00,33.580
639.00,33.708
640.00,33.737
641.00,33.758
642.00,33.932
643.00,34.002
644.00,34.059
645.00,34.165
646.00,34.363
647.00,34.384
648.00,34.463
649.00,34.558
650.00,34.550
651.00,34.715
652.00,34.918
653.00,34.996
654.00,35.035
655.00,35.248
656.00,35.538
657.00,35.419
658.00,35.495
659.00,35.683
660.00,35.725
661.00,35.735
662.00,36.018
663.00,36.008
664.00,36.322
665.00,36.476
666.00,36.564
667.00,36.586
668.00,36.651
669.00,36.966
670.00,37.174
671.00,37.071
672.00,37.233
673.00,37.409
674.00,37.445
675.00,37.559
676.00,37.820
677.00,37.985
678.00,37.786
679.00,38.056
680.00,38.204
681.00,38.401
682.00,38.421
683.00,38.459
684.00,38.715
685.00,38.828
686.00,38.710
687.00,39.018
688.00,39.117
689.00,39.042
690.00,39.436
691.00,39.731
692.00,39.275
693.00,39.637
694.00,40.002
695.00,40.000
696.00,40.127
697.00,40.093
698.00,40.171
699.00,40.540
700.00,40.512
701.00,40.599
702.00,40.870
703.00,41.010
704.00,41.249
705.00,41.092
706.00,41.171
707.00,41.115
708.00,41.379
709.00,41.870
710.00,42.062
711.00,41.691
712.00,41.828
713.00,41.960
714.00,42.034
715.00,42.188
716.00,42.211
717.00,42.447
718.00,42.493
719.00,42.614
720.00,42.773
721.00,47.056
722.00,47.053
723.00,47.193
724.00,47.166
725.00,47.289
726.00,47.312
727.00,47.337
728.00,47.453
729.00,47.513
730.00,47.541
731.00,47.634
732.00,47.638
733.00,47.805
734.00,47.858
735.00,47.953
736.00,47.987
737.00,48.045
738.00,48.173
739.00,48.211
740.00,48.233
741.00,48.366
742.00,48.378
743.00,48.322
744.00,48.449
745.00,48.579
746.00,48.546
747.00,48.594
748.00,48.599
749.00,48.599
750.00,48.646
751.00,48.627
752.00,48.806
753.00,48.740
754.00,48.764
755.00,48.786
756.00,48.787
757.00,48.934
758.00,48.929
759.00,48.989
760.00,49.009
761.00,49.026
762.00,49.117
763.00,49.093
764.00,49.138
765.00,49.285
766.00,49.213
767.00,49.195
768.00,49.301
769.00,49.305
770.00,49.434
771.00,49.392
772.00,49.440
773.00,49.432
774.00,49.498
775.00,49.552
776.00,49.562
777.00,49.554
778.00,49.524
779.00,49.656
780.00,49.583
781.00,49.648
782.00,49.674
783.00,49.642
784.00,49.724
785.00,49.666
786.00,49.730
787.00,49.683
788.00,49.718
789.00,49.788
790.00,49.736
791.00,49.854
792.00,49.734
793.00,49.786
794.00,49.714
795.00,49.765
796.00,49.792
797.00,49.685
798.00,49.848
799.00,49.736
800.00,49.786
801.00,49.733
802.00,49.682
803.00,49.764
804.00,49.642
805.00,49.853
806.00,49.688
807.00,49.761
808.00,49.779
809.00,49.708
810.00,49.734
811.00,49.733
812.00,49.798
813.00,49.716
814.00,49.751
815.00,49.683
816.00,49.722
817.00,49.758
818.00,49.684
819.00,49.757
820.00,49.604
821.00,49.734
822.00,49.682
823.00,49.659
824.00,49.665
825.00,49.587
826.00,49.647
827.00,49.733
828.00,49.703
829.00,49.737
830.00,49.749
831.00,52.021
832.00,52.071
833.00,52.011
834.00,52.056
835.00,51.993
836.00,52.026
837.00,52.007
838.00,51.987
839.00,51.990
840.00,51.907
841.00,51.933
842.00,51.874
843.00,51.926
844.00,51.949
845.00,51.858
846.00,51.934
847.00,51.876
848.00,51.916
849.00,51.797
850.00,51.809
851.00,51.735
852.00,51.797
853.00,51.716
854.00,51.729
855.00,51.654
856.00,51.708
857.00,51.637
858.00,51.627
859.00,51.618
860.00,51.624
861.00,51.627
862.00,51.590
863.00,51.611
864.00,51.559
865.00,51.589
866.00,51.550
867.00,51.576
868.00,51.568
869.00,51.528
870.00,51.571
871.00,51.537
872.00,51.558
873.00,51.504
874.00,51.549
875.00,51.483
876.00,51.512
877.00,51.476
878.00,51.502
879.00,51.477
880.00,51.471
881.00,51.423
882.00,51.497
883.00,51.417
884.00,51.378
885.00,51.350
886.00,51.356
887.00,51.335
888.00,51.333
889.00,51.306
890.00,51.312
891.00,51.288
892.00,51.262
893.00,51.258
894.00,51.273
895.00,51.203
896.00,51.202
897.00,51.194
898.00,51.170
899.00,51.173
900.00,51.146
901.00,51.131
902.00,51.146
903.00,51.123
904.00,51.097
905.00,51.101
906.00,51.072
907.00,51.214
908.00,51.014
909.00,51.025
910.00,50.992
911.00,50.989
912.00,50.993
913.00,50.916
914.00,51.003
915.00,50.893
916.00,50.928
917.00,50.836
918.00,51.002
919.00,50.862
920.00,50.810
921.00,50.827
922.00,50.798
923.00,50.785
924.00,50.737
925.00,50.751
926.00,50.733
927.00,50.716
928.00,50.681
929.00,50.723
930.00,50.679
931.00,50.668
932.00,50.597
933.00,50.630
934.00,50.605
935.00,50.599
936.00,50.581
937.00,50.576
938.00,50.540
939.00,50.559
940.00,50.503
941.00,50.501
942.00,50.477
943.00,50.470
944.00,50.417
945.00,50.419
946.00,50.417
947.00,50.378
948.00,50.384
949.00,50.356
950.00,50.338
951.00,50.313
952.00,50.292
953.00,50.254
954.00,50.242
955.00,50.195
956.00,50.204
957.00,50.157
958.00,50.187
959.00,50.117
960.00,50.116
961.00,50.123
962.00,50.103
963.00,50.052
964.00,50.087
965.00,50.092
966.00,50.050
967.00,50.050
968.00,50.017
969.00,50.060
970.00,50.009
971.00,50.026
972.00,49.991
973.00,50.025
974.00,50.051
975.00,50.020
976.00,50.048
977.00,50.050
978.00,50.122
979.00,50.113
980.00,50.042
981.00,50.048
982.00,49.999
983.00,50.036
984.00,50.015
985.00,50.049
986.00,49.993
987.00,50.009
988.00,49.971
989.00,49.955
990.00,49.966
991.00,49.957
992.00,49.979
993.00,49.940
994.00,49.922
995.00,49.928
996.00,49.913
997.00,49.910
998.00,49.869
999.00,49.894
1000.00,49.827
1001.00,49.840
1002.00,49.847
1003.00,49.833
1004.00,49.813
1005.00,49.768
1006.00,49.816
1007.00,49.782
1008.00,49.771
1009.00,49.754
1010.00,49.747
1011.00,49.740
1012.00,49.700
1013.00,49.714
1014.00,49.676
1015.00,49.687
1016.00,49.636
1017.00,49.634
1018.00,49.635
1019.00,49.595
1020.00,49.596
1021.00,49.571
1022.00,49.574
1023.00,49.521
1024.00,49.541
1025.00,49.513
1026.00,49.500
1027.00,49.460
1028.00,49.468
1029.00,49.467
1030.00,49.424
1031.00,49.456
1032.00,49.403
1033.00,49.393
1034.00,49.375
1035.00,49.335
1036.00,49.318
1037.00,49.305
1038.00,49.300
1039.00,49.265
1040.00,49.269
1041.00,49.229
1042.00,49.228
1043.00,49.212
1044.00,49.240
1045.00,49.227
1046.00,49.207
1047.00,49.237
1048.00,49.231
1049.00,49.250
1050.00,49.249
1051.00,49.296
1052.00,49.300
1053.00,49.286
1054.00,49.273
1055.00,49.313
1056.00,49.320
1057.00,49.318
1058.00,49.302
1059.00,49.295
1060.00,49.318
1061.00,49.306
1062.00,49.301
1063.00,49.321
1064.00,49.322
1065.00,49.299
1066.00,49.282
1067.00,49.284
1068.00,49.293
1069.00,49.240
1070.00,49.236
1071.00,49.205
1072.00,49.237
1073.00,49.215
1074.00,49.211
1075.00,49.209
1076.00,49.211
1077.00,49.196
1078.00,49.175
1079.00,49.180
1080.00,49.174
1081.00,49.147
1082.00,49.153
1083.00,49.155
1084.00,49.153
1085.00,49.168
1086.00,49.167
1087.00,49.132
1088.00,49.105
1089.00,49.109
1090.00,49.101
1091.00,49.097
1092.00,49.086
1093.00,49.072
1094.00,49.064
1095.00,49.068
1096.00,49.041
1097.00,49.042
1098.00,49.036
1099.00,49.023
1100.00,49.009
1101.00,49.021
1102.00,48.992
1103.00,49.003
1104.00,48.979
1105.00,48.974
1106.00,48.955
1107.00,48.950
1108.00,48.939
1109.00,48.943
1110.00,48.923
1111.00,48.921
1112.00,48.918
1113.00,48.921
1114.00,48.899
1115.00,48.905
1116.00,48.887
1117.00,48.879
1118.00,48.865
1119.00,48.864
1120.00,48.848
1121.00,48.846
1122.00,48.836
1123.00,48.821
1124.00,48.811
1125.00,48.822
1126.00,48.803
1127.00,48.825
1128.00,48.826
1129.00,48.802
1130.00,48.780
1131.00,48.796
1132.00,48.763
1133.00,48.779
1134.00,48.772
1135.00,48.765
1136.00,48.766
1137.00,48.746
1138.00,48.749
1139.00,48.762
1140.00,48.751
1141.00,48.764
1142.00,48.752
1143.00,48.754
1144.00,48.716
1145.00,48.714
1146.00,48.717
1147.00,48.705
1148.00,48.699
1149.00,48.724
1150.00,48.729
1151.00,48.728
1152.00,48.724
1153.00,48.727
1154.00,48.712
1155.00,48.729
1156.00,48.704
1157.00,48.716
1158.00,48.693
1159.00,48.697
1160.00,48.697
1161.00,48.717
1162.00,48.706
1163.00,48.693
1164.00,48.702
1165.00,48.691
1166.00,48.701
1167.00,48.681
1168.00,48.700
1169.00,48.681
1170.00,48.674
1171.00,48.664
1172.00,48.669
1173.00,48.673
1174.00,48.677
1175.00,48.669
1176.00,48.657
1177.00,48.648
1178.00,48.659
1179.00,48.670
1180.00,48.660
1181.00,48.696
1182.00,48.682
1183.00,48.672
1184.00,48.662
1185.00,48.669
1186.00,48.649
1187.00,48.661
1188.00,48.668
1189.00,48.673
1190.00,48.654
1191.00,48.636
1192.00,48.662
1193.00,48.652
1194.00,48.668
1195.00,48.652
1196.00,48.683
1197.00,48.679
1198.00,48.644
1199.00,48.644
1200.00,48.662
1201.00,48.674
1202.00,48.654
1203.00,48.649
1204.00,48.653
1205.00,48.662
1206.00,48.641
1207.00,48.651
1208.00,48.652
1209.00,48.659
1210.00,48.668
1211.00,48.663
1212.00,48.676
1213.00,48.633
1214.00,48.670
1215.00,48.657
1216.00,48.669
1217.00,48.674
1218.00,48.665
1219.00,48.685
1220.00,48.665
1221.00,48.688
1222.00,48.674
1223.00,48.699
1224.00,48.686
1225.00,48.676
1226.00,48.680
1227.00,48.669
1228.00,48.686
1229.00,48.674
1230.00,48.716
1231.00,48.699
1232.00,48.732
1233.00,48.725
1234.00,48.719
1235.00,48.726
1236.00,48.711
1237.00,48.732
1238.00,48.732
1239.00,48.751
1240.00,48.734
1241.00,48.757
1242.00,48.751
1243.00,48.760
1244.00,48.740
1245.00,48.765
1246.00,48.765
1247.00,48.746
1248.00,48.748
1249.00,48.775
1250.00,48.791
1251.00,48.772
1252.00,48.789
1253.00,48.760
1254.00,48.791
1255.00,48.786
1256.00,48.754
1257.00,48.755
1258.00,48.835
1259.00,48.801
1260.00,48.837
1261.00,48.833
1262.00,48.818
1263.00,48.821
1264.00,48.825
1265.00,48.838
1266.00,48.833
1267.00,48.856
1268.00,48.854
1269.00,48.857
1270.00,48.890
1271.00,48.886
1272.00,48.875
1273.00,48.886
1274.00,48.893
1275.00,48.896
1276.00,48.885
1277.00,48.900
1278.00,48.907
1279.00,48.910
1280.00,48.902
1281.00,48.928
1282.00,48.938
1283.00,48.941
1284.00,48.971
1285.00,48.954
1286.00,48.953
1287.00,48.951
1288.00,48.963
1289.00,48.936
1290.00,48.976
1291.00,48.976
1292.00,48.971
1293.00,48.983
1294.00,49.001
1295.00,49.016
1296.00,49.006
1297.00,49.020
1298.00,49.075
1299.00,49.015
1300.00,49.026
1301.00,49.032
1302.00,49.061
1303.00,49.086
1304.00,49.081
1305.00,49.092
1306.00,49.083
1307.00,49.106
1308.00,49.108
1309.00,49.119
1310.00,49.110
1311.00,49.099
1312.00,49.113
1313.00,49.113
1314.00,49.133
1315.00,49.158
1316.00,49.151
1317.00,49.191
1318.00,49.180
1319.00,49.180
1320.00,49.195
1321.00,49.357
1322.00,49.362
1323.00,49.330
1324.00,49.322
1325.00,49.318
1326.00,49.336
1327.00,49.328
1328.00,49.318
1329.00,49.318
1330.00,49.334
1331.00,49.359
1332.00,49.343
1333.00,49.341
1334.00,49.373
1335.00,49.378
1336.00,49.425
1337.00,49.448
1338.00,49.506
1339.00,49.552
1340.00,49.610
1341.00,49.686
1342.00,49.747
1343.00,49.783
1344.00,49.846
1345.00,49.902
1346.00,49.915
1347.00,49.969
1348.00,49.993
1349.00,49.988
1350.00,50.027
1351.00,50.031
1352.00,50.048
1353.00,50.049
1354.00,50.055
1355.00,50.033
1356.00,50.089
1357.00,50.068
1358.00,50.100
1359.00,50.109
1360.00,50.088
1361.00,50.103
1362.00,50.078
1363.00,50.134
1364.00,50.218
1365.00,50.105
1366.00,50.160
1367.00,50.135
1368.00,50.073
1369.00,50.102
1370.00,50.106
1371.00,50.087
1372.00,50.116
1373.00,50.120
1374.00,50.150
1375.00,50.117
1376.00,50.105
1377.00,50.108
1378.00,50.149
1379.00,50.089
1380.00,50.124
1381.00,50.124
1382.00,50.069
1383.00,50.119
1384.00,50.083
1385.00,50.134
1386.00,50.118
1387.00,50.119
1388.00,50.088
1389.00,50.094
1390.00,50.116
1391.00,50.127
1392.00,50.114
1393.00,50.135
1394.00,50.099
1395.00,50.121
1396.00,50.069
1397.00,50.091
1398.00,50.116
1399.00,50.129
1400.00,50.110
1401.00,50.093
1402.00,50.112
1403.00,50.127
1404.00,50.142
1405.00,50.162
1406.00,50.174
1407.00,50.183
1408.00,50.188
1409.00,50.163
1410.00,50.205
1411.00,50.191
1412.00,50.221
1413.00,50.222
1414.00,50.233
1415.00,50.236
1416.00,50.255
1417.00,50.258
1418.00,50.276
1419.00,50.307
1420.00,50.304
1421.00,50.345
1422.00,50.322
1423.00,50.364
1424.00,50.352
1425.00,50.399
1426.00,50.365
1427.00,50.393
1428.00,50.393
1429.00,50.409
1430.00,50.415
1431.00,50.449
1432.00,50.461
1433.00,50.487
1434.00,50.473
1435.00,50.544
1436.00,50.566
1437.00,50.590
1438.00,50.604
1439.00,50.622
1440.00,50.621
1441.00,50.632
1442.00,50.640
1443.00,50.657
1444.00,50.717
1445.00,50.667
1446.00,50.725
1447.00,50.749
1448.00,50.792
1449.00,50.782
1450.00,50.782
1451.00,50.815
1452.00,50.838
1453.00,50.815
1454.00,50.868
1455.00,50.886
1456.00,50.873
1457.00,50.887
1458.00,50.923
1459.00,50.932
1460.00,50.973
1461.00,50.951
1462.00,51.009
1463.00,51.006
1464.00,50.996
1465.00,51.040
1466.00,51.039
1467.00,51.050
1468.00,51.124
1469.00,51.084
1470.00,51.124
1471.00,51.137
1472.00,51.151
1473.00,51.173
1474.00,51.200
1475.00,51.205
1476.00,51.231
1477.00,51.211
1478.00,51.222
1479.00,51.243
1480.00,51.234
1481.00,51.235
1482.00,51.275
1483.00,51.280
1484.00,51.307
1485.00,51.316
1486.00,51.324
1487.00,51.375
1488.00,51.401
1489.00,51.364
1490.00,51.410
1491.00,51.416
1492.00,51.433
1493.00,51.418
1494.00,51.464
1495.00,51.459
1496.00,51.485
1497.00,51.467
1498.00,51.497
1499.00,51.510
1500.00,51.508
1501.00, 
1502.00, 
1503.00, 
1504.00, 
1505.00, 
1506.00, 
1507.00, 
1508.00, 
1509.00, 
1510.00, 
1511.00, 
1512.00, 
1513.00, 
1514.00, 
1515.00, 
1516.00, 
1517.00, 
1518.00, 
1519.00, 
1520.00, 
1521.00, 
1522.00, 
1523.00, 
1524.00, 
1525.00, 
1526.00, 
1527.00, 
1528.00, 
1529.00, 
1530.00, 
1531.00, 
1532.00, 
1533.00, 
1534.00, 
1535.00, 
1536.00, 
1537.00, 
1538.00, 
1539.00, 
1540.00, 
1541.00, 
1542.00, 
1543.00, 
1544.00, 
1545.00, 
1546.00, 
1547.00, 
1548.00, 
1549.00, 
1550.00, 
1551.00, 
1552.00, 
1553.00, 
1554.00, 
1555.00, 
1556.00, 
1557.00, 
1558.00, 
1559.00, 
1560.00, 
1561.00, 
1562.00, 
1563.00, 
1564.00, 
1565.00, 
1566.00, 
1567.00, 
1568.00, 
1569.00, 
1570.00, 
1571.00, 
1572.00, 
1573.00, 
1574.00, 
1575.00, 
1576.00, 
1577.00, 
1578.00, 
1579.00, 
1580.00, 
1581.00, 
1582.00, 
1583.00, 
1584.00, 
1585.00, 
1586.00, 
1587.00, 
1588.00, 
1589.00, 
1590.00, 
1591.00, 
1592.00, 
1593.00, 
1594.00, 
1595.00, 
1596.00, 
1597.00, 
1598.00, 
1599.00, 
1600.00, 
1601.00, 
1602.00, 
1603.00, 
1604.00, 
1605.00, 
1606.00, 
1607.00, 
1608.00, 
1609.00, 
1610.00, 
1611.00, 
1612.00, 
1613.00, 
1614.00, 
1615.00, 
1616.00, 
1617.00, 
1618.00, 
1619.00, 
1620.00, 
1621.00, 
1622.00, 
1623.00, 
1624.00, 
1625.00, 
1626.00, 
1627.00, 
1628.00, 
1629.00, 
1630.00, 
1631.00, 
1632.00, 
1633.00, 
1634.00, 
1635.00, 
1636.00, 
1637.00, 
1638.00, 
1639.00, 
1640.00, 
1641.00, 
1642.00, 
1643.00, 
1644.00, 
1645.00, 
1646.00, 
1647.00, 
1648.00, 
1649.00, 
1650.00, 
1651.00, 
1652.00, 
1653.00, 
1654.00, 
1655.00, 
1656.00, 
1657.00, 
1658.00, 
1659.00, 
1660.00, 
1661.00, 
1662.00, 
1663.00, 
1664.00, 
1665.00, 
1666.00, 
1667.00, 
1668.00, 
1669.00, 
1670.00, 
1671.00, 
1672.00, 
1673.00, 
1674.00, 
1675.00, 
1676.00, 
1677.00, 
1678.00, 
1679.00, 
1680.00, 
1681.00, 
1682.00, 
1683.00, 
1684.00, 
1685.00, 
1686.00, 
1687.00, 
1688.00, 
1689.00, 
1690.00, 
1691.00, 
1692.00, 
1693.00, 
1694.00, 
1695.00, 
1696.00, 
1697.00, 
1698.00, 
1699.00, 
1700.00, 
1701.00, 
1702.00, 
1703.00, 
1704.00, 
1705.00, 
1706.00, 
1707.00, 
1708.00, 
1709.00, 
1710.00, 
1711.00, 
1712.00, 
1713.00, 
1714.00, 
1715.00, 
1716.00, 
1717.00, 
1718.00, 
1719.00, 
1720.00, 
1721.00, 
1722.00, 
1723.00, 
1724.00, 
1725.00, 
1726.00, 
1727.00, 
1728.00, 
1729.00, 
1730.00, 
1731.00, 
1732.00, 
1733.00, 
1734.00, 
1735.00, 
1736.00, 
1737.00, 
1738.00, 
1739.00, 
1740.00, 
1741.00, 
1742.00, 
1743.00, 
1744.00, 
1745.00, 
1746.00, 
1747.00, 
1748.00, 
1749.00, 
1750.00, 
1751.00, 
1752.00, 
1753.00, 
1754.00, 
1755.00, 
1756.00, 
1757.00, 
1758.00, 
1759.00, 
1760.00, 
1761.00, 
1762.00, 
1763.00, 
1764.00, 
1765.00, 
1766.00, 
1767.00, 
1768.00, 
1769.00, 
1770.00, 
1771.00, 
1772.00, 
1773.00, 
1774.00, 
1775.00, 
1776.00, 
1777.00, 
1778.00, 
1779.00, 
1780.00, 
1781.00, 
1782.00, 
1783.00, 
1784.00, 
1785.00, 
1786.00, 
1787.00, 
1788.00, 
1789.00, 
1790.00, 
1791.00, 
1792.00, 
1793.00, 
1794.00, 
1795.00, 
1796.00, 
1797.00, 
1798.00, 
1799.00, 
1800.00, 
1801.00, 
1802.00, 
1803.00, 
1804.00, 
1805.00, 
1806.00, 
1807.00, 
1808.00, 
1809.00, 
1810.00, 
1811.00, 
1812.00, 
1813.00, 
1814.00, 
1815.00, 
1816.00, 
1817.00, 
1818.00, 
1819.00, 
1820.00, 
1821.00, 
1822.00, 
1823.00, 
1824.00, 
1825.00, 
1826.00, 
1827.00, 
1828.00, 
1829.00, 
1830.00, 
1831.00, 
1832.00, 
1833.00, 
1834.00, 
1835.00, 
1836.00, 
1837.00, 
1838.00, 
1839.00, 
1840.00, 
1841.00, 
1842.00, 
1843.00, 
1844.00, 
1845.00, 
1846.00, 
1847.00, 
1848.00, 
1849.00, 
1850.00, 
1851.00, 
1852.00, 
1853.00, 
1854.00, 
1855.00, 
1856.00, 
1857.00, 
1858.00, 
1859.00, 
1860.00, 
1861.00, 
1862.00, 
1863.00, 
1864.00, 
1865.00, 
1866.00, 
1867.00, 
1868.00, 
1869.00, 
1870.00, 
1871.00, 
1872.00, 
1873.00, 
1874.00, 
1875.00, 
1876.00, 
1877.00, 
1878.00, 
1879.00, 
1880.00, 
1881.00, 
1882.00, 
1883.00, 
1884.00, 
1885.00, 
1886.00, 
1887.00, 
1888.00, 
1889.00, 
1890.00, 
1891.00, 
1892.00, 
1893.00, 
1894.00, 
1895.00, 
1896.00, 
1897.00, 
1898.00, 
1899.00, 
1900.00, 
1901.00, 
1902.00, 
1903.00, 
1904.00, 
1905.00, 
1906.00, 
1907.00, 
1908.00, 
1909.00, 
1910.00, 
1911.00, 
1912.00, 
1913.00, 
1914.00, 
1915.00, 
1916.00, 
1917.00, 
1918.00, 
1919.00, 
1920.00, 
1921.00, 
1922.00, 
1923.00, 
1924.00, 
1925.00, 
1926.00, 
1927.00, 
1928.00, 
1929.00, 
1930.00, 
1931.00, 
1932.00, 
1933.00, 
1934.00, 
1935.00, 
1936.00, 
1937.00, 
1938.00, 
1939.00, 
1940.00, 
1941.00, 
1942.00, 
1943.00, 
1944.00, 
1945.00, 
1946.00, 
1947.00, 
1948.00, 
1949.00, 
1950.00, 
1951.00, 
1952.00, 
1953.00, 
1954.00, 
1955.00, 
1956.00, 
1957.00, 
1958.00, 
1959.00, 
1960.00, 
1961.00, 
1962.00, 
1963.00, 
1964.00, 
1965.00, 
1966.00, 
1967.00, 
1968.00, 
1969.00, 
1970.00, 
1971.00, 
1972.00, 
1973.00, 
1974.00, 
1975.00, 
1976.00, 
1977.00, 
1978.00, 
1979.00, 
1980.00, 
1981.00, 
1982.00, 
1983.00, 
1984.00, 
1985.00, 
1986.00, 
1987.00, 
1988.00, 
1989.00, 
1990.00, 
1991.00, 
1992.00, 
1993.00, 
1994.00, 
1995.00, 
1996.00, 
1997.00, 
1998.00, 
1999.00, 
2000.00, 
2001.00, 
2002.00, 
2003.00, 
2004.00, 
2005.00, 
2006.00, 
2007.00, 
2008.00, 
2009.00, 
2010.00, 
2011.00, 
2012.00, 
2013.00, 
2014.00, 
2015.00, 
2016.00, 
2017.00, 
2018.00, 
2019.00, 
2020.00, 
2021.00, 
2022.00, 
2023.00, 
2024.00, 
2025.00, 
2026.00, 
2027.00, 
2028.00, 
2029.00, 
2030.00, 
2031.00, 
2032.00, 
2033.00, 
2034.00, 
2035.00, 
2036.00, 
2037.00, 
2038.00, 
2039.00, 
2040.00, 
2041.00, 
2042.00, 
2043.00, 
2044.00, 
2045.00, 
2046.00, 
2047.00, 
2048.00, 
2049.00, 
2050.00, 
2051.00, 
2052.00, 
2053.00, 
2054.00, 
2055.00, 
2056.00, 
2057.00, 
2058.00, 
2059.00, 
2060.00, 
2061.00, 
2062.00, 
2063.00, 
2064.00, 
2065.00, 
2066.00, 
2067.00, 
2068.00, 
2069.00, 
2070.00, 
2071.00, 
2072.00, 
2073.00, 
2074.00, 
2075.00, 
2076.00, 
2077.00, 
2078.00, 
2079.00, 
2080.00, 
2081.00, 
2082.00, 
2083.00, 
2084.00, 
2085.00, 
2086.00, 
2087.00, 
2088.00, 
2089.00, 
2090.00, 
2091.00, 
2092.00, 
2093.00, 
2094.00, 
2095.00, 
2096.00, 
2097.00, 
2098.00, 
2099.00, 
2100.00, 
2101.00, 
2102.00, 
2103.00, 
2104.00, 
2105.00, 
2106.00, 
2107.00, 
2108.00, 
2109.00, 
2110.00, 
2111.00, 
2112.00, 
2113.00, 
2114.00, 
2115.00, 
2116.00, 
2117.00, 
2118.00, 
2119.00, 
2120.00, 
2121.00, 
2122.00, 
2123.00, 
2124.00, 
2125.00, 
2126.00, 
2127.00, 
2128.00, 
2129.00, 
2130.00, 
2131.00, 
2132.00, 
2133.00, 
2134.00, 
2135.00, 
2136.00, 
2137.00, 
2138.00, 
2139.00, 
2140.00, 
2141.00, 
2142.00, 
2143.00, 
2144.00, 
2145.00, 
2146.00, 
2147.00, 
2148.00, 
2149.00, 
2150.00, 
2151.00, 
2152.00, 
2153.00, 
2154.00, 
2155.00, 
2156.00, 
2157.00, 
2158.00, 
2159.00, 
2160.00, 
2161.00, 
2162.00, 
2163.00, 
2164.00, 
2165.00, 
2166.00, 
2167.00, 
2168.00, 
2169.00, 
2170.00, 
2171.00, 
2172.00, 
2173.00, 
2174.00, 
2175.00, 
2176.00, 
2177.00, 
2178.00, 
2179.00, 
2180.00, 
2181.00, 
2182.00, 
2183.00, 
2184.00, 
2185.00, 
2186.00, 
2187.00, 
2188.00, 
2189.00, 
2190.00, 
2191.00, 
2192.00, 
2193.00, 
2194.00, 
2195.00, 
2196.00, 
2197.00, 
2198.00, 
2199.00, 
2200.00, 
2201.00, 
2202.00, 
2203.00, 
2204.00, 
2205.00, 
2206.00, 
2207.00, 
2208.00, 
2209.00, 
2210.00, 
2211.00, 
2212.00, 
2213.00, 
2214.00, 
2215.00, 
2216.00, 
2217.00, 
2218.00, 
2219.00, 
2220.00, 
2221.00, 
2222.00, 
2223.00, 
2224.00, 
2225.00, 
2226.00, 
2227.00, 
2228.00, 
2229.00, 
2230.00, 
2231.00, 
2232.00, 
2233.00, 
2234.00, 
2235.00, 
2236.00, 
2237.00, 
2238.00, 
2239.00, 
2240.00, 
2241.00, 
2242.00, 
2243.00, 
2244.00, 
2245.00, 
2246.00, 
2247.00, 
2248.00, 
2249.00, 
2250.00, 
2251.00, 
2252.00, 
2253.00, 
2254.00, 
2255.00, 
2256.00, 
2257.00, 
2258.00, 
2259.00, 
2260.00, 
2261.00, 
2262.00, 
2263.00, 
2264.00, 
2265.00, 
2266.00, 
2267.00, 
2268.00, 
2269.00, 
2270.00, 
2271.00, 
2272.00, 
2273.00, 
2274.00, 
2275.00, 
2276.00, 
2277.00, 
2278.00, 
2279.00, 
2280.00, 
2281.00, 
2282.00, 
2283.00, 
2284.00, 
2285.00, 
2286.00, 
2287.00, 
2288.00, 
2289.00, 
2290.00, 
2291.00, 
2292.00, 
2293.00, 
2294.00, 
2295.00, 
2296.00, 
2297.00, 
2298.00, 
2299.00, 
2300.00, 
2301.00, 
2302.00, 
2303.00, 
2304.00, 
2305.00, 
2306.00, 
2307.00, 
2308.00, 
2309.00, 
2310.00, 
2311.00, 
2312.00, 
2313.00, 
2314.00, 
2315.00, 
2316.00, 
2317.00, 
2318.00, 
2319.00, 
2320.00, 
2321.00, 
2322.00, 
2323.00, 
2324.00, 
2325.00, 
2326.00, 
2327.00, 
2328.00, 
2329.00, 
2330.00, 
2331.00, 
2332.00, 
2333.00, 
2334.00, 
2335.00, 
2336.00, 
2337.00, 
2338.00, 
2339.00, 
2340.00, 
2341.00, 
2342.00, 
2343.00, 
2344.00, 
2345.00, 
2346.00, 
2347.00, 
2348.00, 
2349.00, 
2350.00, 
2351.00, 
2352.00, 
2353.00, 
2354.00, 
2355.00, 
2356.00, 
2357.00, 
2358.00, 
2359.00, 
2360.00, 
2361.00, 
2362.00, 
2363.00, 
2364.00, 
2365.00, 
2366.00, 
2367.00, 
2368.00, 
2369.00, 
2370.00, 
2371.00, 
2372.00, 
2373.00, 
2374.00, 
2375.00, 
2376.00, 
2377.00, 
2378.00, 
2379.00, 
2380.00, 
2381.00, 
2382.00, 
2383.00, 
2384.00, 
2385.00, 
2386.00, 
2387.00, 
2388.00, 
2389.00, 
2390.00, 
2391.00, 
2392.00, 
2393.00, 
2394.00, 
2395.00, 
2396.00, 
2397.00, 
2398.00, 
2399.00, 
2400.00, 
2401.00, 
2402.00, 
2403.00, 
2404.00, 
2405.00, 
2406.00, 
2407.00, 
2408.00, 
2409.00, 
2410.00, 
2411.00, 
2412.00, 
2413.00, 
2414.00, 
2415.00, 
2416.00, 
2417.00, 
2418.00, 
2419.00, 
2420.00, 
2421.00, 
2422.00, 
2423.00, 
2424.00, 
2425.00, 
2426.00, 
2427.00, 
2428.00, 
2429.00, 
2430.00, 
2431.00, 
2432.00, 
2433.00, 
2434.00, 
2435.00, 
2436.00, 
2437.00, 
2438.00, 
2439.00, 
2440.00, 
2441.00, 
2442.00, 
2443.00, 
2444.00, 
2445.00, 
2446.00, 
2447.00, 
2448.00, 
2449.00, 
2450.00, 
2451.00, 
2452.00, 
2453.00, 
2454.00, 
2455.00, 
2456.00, 
2457.00, 
2458.00, 
2459.00, 
2460.00, 
2461.00, 
2462.00, 
2463.00, 
2464.00, 
2465.00, 
2466.00, 
2467.00, 
2468.00, 
2469.00, 
2470.00, 
2471.00, 
2472.00, 
2473.00, 
2474.00, 
2475.00, 
2476.00, 
2477.00, 
2478.00, 
2479.00, 
2480.00, 
2481.00, 
2482.00, 
2483.00, 
2484.00, 
2485.00, 
2486.00, 
2487.00, 
2488.00, 
2489.00, 
2490.00, 
2491.00, 
2492.00, 
2493.00, 
2494.00, 
2495.00, 
2496.00, 
2497.00, 
2498.00, 
2499.00, 
2500.00, 
2501.00, 
2502.00, 
2503.00, 
2504.00, 
2505.00, 
2506.00, 
2507.00, 
2508.00, 
2509.00, 
2510.00, 
2511.00, 
2512.00, 
2513.00, 
2514.00, 
2515.00, 
2516.00, 
2517.00, 
2518.00, 
2519.00, 
2520.00, 
2521.00, 
2522.00, 
2523.00, 
2524.00, 
2525.00, 
2526.00, 
2527.00, 
2528.00, 
2529.00, 
2530.00, 
2531.00, 
2532.00, 
2533.00, 
2534.00, 
2535.00, 
2536.00, 
2537.00, 
2538.00, 
2539.00, 
2540.00, 
2541.00, 
2542.00, 
2543.00, 
2544.00, 
2545.00, 
2546.00, 
2547.00, 
2548.00, 
2549.00, 
2550.00, 
2551.00, 
2552.00, 
2553.00, 
2554.00, 
2555.00, 
2556.00, 
2557.00, 
2558.00, 
2559.00, 
2560.00, 
2561.00, 
2562.00, 
2563.00, 
2564.00, 
2565.00, 
2566.00, 
2567.00, 
2568.00, 
2569.00, 
2570.00, 
2571.00, 
2572.00, 
2573.00, 
2574.00, 
2575.00, 
2576.00, 
2577.00, 
2578.00, 
2579.00, 
2580.00, 
2581.00, 
2582.00, 
2583.00, 
2584.00, 
2585.00, 
2586.00, 
2587.00, 
2588.00, 
2589.00, 
2590.00, 
2591.00, 
2592.00, 
2593.00, 
2594.00, 
2595.00, 
2596.00, 
2597.00, 
2598.00, 
2599.00, 
2600.00, 
