"1cP3 - RawData"
"Wavelength nm.","T%"
200.00,0.001
201.00,-0.001
202.00,0.002
203.00,-0.002
204.00,-0.000
205.00,0.000
206.00,-0.000
207.00,-0.001
208.00,0.002
209.00,-0.001
210.00,0.001
211.00,-0.000
212.00,-0.001
213.00,0.001
214.00,0.001
215.00,0.001
216.00,0.003
217.00,0.001
218.00,0.000
219.00,0.002
220.00,-0.000
221.00,0.003
222.00,0.000
223.00,-0.002
224.00,-0.001
225.00,0.001
226.00,0.001
227.00,-0.001
228.00,-0.001
229.00,0.001
230.00,0.001
231.00,0.000
232.00,0.000
233.00,0.000
234.00,0.001
235.00,0.000
236.00,-0.000
237.00,-0.001
238.00,0.002
239.00,-0.001
240.00,-0.001
241.00,-0.001
242.00,0.000
243.00,-0.000
244.00,-0.001
245.00,0.001
246.00,0.001
247.00,0.001
248.00,0.001
249.00,0.001
250.00,0.002
251.00,0.000
252.00,0.002
253.00,0.001
254.00,-0.001
255.00,0.001
256.00,0.001
257.00,0.001
258.00,0.001
259.00,0.000
260.00,-0.001
261.00,-0.000
262.00,0.000
263.00,-0.001
264.00,0.001
265.00,0.000
266.00,0.001
267.00,-0.001
268.00,0.002
269.00,0.001
270.00,0.000
271.00,0.001
272.00,-0.000
273.00,0.001
274.00,0.001
275.00,0.000
276.00,0.001
277.00,0.001
278.00,0.001
279.00,-0.001
280.00,0.000
281.00,0.002
282.00,0.001
283.00,-0.002
284.00,-0.000
285.00,0.001
286.00,0.003
287.00,-0.001
288.00,0.001
289.00,-0.000
290.00,0.001
291.00,0.002
292.00,0.002
293.00,-0.001
294.00,0.001
295.00,0.002
296.00,0.000
297.00,-0.000
298.00,0.001
299.00,0.001
300.00,0.001
301.00,0.001
302.00,0.001
303.00,0.001
304.00,0.001
305.00,0.001
306.00,0.001
307.00,0.003
308.00,0.003
309.00,0.008
310.00,0.016
311.00,0.020
312.00,0.033
313.00,0.052
314.00,0.078
315.00,0.114
316.00,0.167
317.00,0.227
318.00,0.310
319.00,0.420
320.00,0.554
321.00,0.714
322.00,0.921
323.00,1.161
324.00,1.416
325.00,1.712
326.00,2.029
327.00,2.420
328.00,2.807
329.00,3.247
330.00,3.709
331.00,4.201
332.00,4.705
333.00,5.278
334.00,5.796
335.00,6.349
336.00,6.886
337.00,7.442
338.00,8.067
339.00,8.619
340.00,9.172
341.00,9.759
342.00,10.234
343.00,10.758
344.00,11.306
345.00,11.760
346.00,12.177
347.00,12.604
348.00,12.999
349.00,13.380
350.00,13.736
351.00,14.054
352.00,14.354
353.00,14.661
354.00,14.933
355.00,15.197
356.00,15.417
357.00,15.658
358.00,15.812
359.00,16.080
360.00,16.262
361.00,16.367
362.00,16.519
363.00,16.659
364.00,16.719
365.00,16.781
366.00,16.881
367.00,16.929
368.00,16.987
369.00,17.010
370.00,17.071
371.00,17.071
372.00,17.015
373.00,17.053
374.00,17.012
375.00,16.905
376.00,16.860
377.00,16.778
378.00,16.691
379.00,16.622
380.00,16.592
381.00,16.547
382.00,16.534
383.00,16.547
384.00,16.585
385.00,16.591
386.00,16.599
387.00,16.664
388.00,16.720
389.00,16.697
390.00,16.715
391.00,16.748
392.00,16.739
393.00,16.768
394.00,16.780
395.00,16.793
396.00,16.750
397.00,16.766
398.00,16.775
399.00,16.758
400.00,16.771
401.00,16.723
402.00,16.806
403.00,16.776
404.00,16.697
405.00,16.688
406.00,16.661
407.00,16.614
408.00,16.613
409.00,16.564
410.00,16.531
411.00,16.470
412.00,16.495
413.00,16.490
414.00,16.459
415.00,16.450
416.00,16.475
417.00,16.484
418.00,16.493
419.00,16.558
420.00,16.582
421.00,16.509
422.00,16.541
423.00,16.560
424.00,16.577
425.00,16.600
426.00,16.619
427.00,16.679
428.00,16.710
429.00,16.723
430.00,16.765
431.00,16.828
432.00,16.824
433.00,16.878
434.00,16.921
435.00,16.979
436.00,17.044
437.00,17.085
438.00,17.140
439.00,17.187
440.00,17.270
441.00,17.282
442.00,17.406
443.00,17.466
444.00,17.530
445.00,17.613
446.00,17.719
447.00,17.761
448.00,17.891
449.00,17.976
450.00,18.061
451.00,18.132
452.00,18.228
453.00,18.341
454.00,18.410
455.00,18.550
456.00,18.657
457.00,18.742
458.00,18.819
459.00,18.962
460.00,19.109
461.00,19.204
462.00,19.319
463.00,19.435
464.00,19.560
465.00,19.676
466.00,19.792
467.00,19.926
468.00,20.013
469.00,20.144
470.00,20.216
471.00,20.336
472.00,20.475
473.00,20.572
474.00,20.688
475.00,20.806
476.00,20.911
477.00,21.026
478.00,21.160
479.00,21.349
480.00,21.474
481.00,21.612
482.00,21.755
483.00,21.948
484.00,22.023
485.00,22.182
486.00,22.321
487.00,22.466
488.00,22.626
489.00,22.774
490.00,22.934
491.00,23.045
492.00,23.221
493.00,23.469
494.00,23.600
495.00,23.592
496.00,23.714
497.00,23.841
498.00,23.969
499.00,24.119
500.00,24.276
501.00,24.370
502.00,24.520
503.00,24.672
504.00,24.734
505.00,24.879
506.00,25.022
507.00,25.145
508.00,25.269
509.00,25.438
510.00,25.557
511.00,25.639
512.00,25.811
513.00,25.987
514.00,26.082
515.00,26.213
516.00,26.349
517.00,26.448
518.00,26.634
519.00,26.673
520.00,26.741
521.00,26.868
522.00,26.975
523.00,27.050
524.00,27.160
525.00,27.322
526.00,27.452
527.00,27.536
528.00,27.632
529.00,27.849
530.00,28.000
531.00,27.978
532.00,28.062
533.00,28.204
534.00,28.306
535.00,28.433
536.00,28.542
537.00,28.609
538.00,28.714
539.00,28.772
540.00,28.896
541.00,28.935
542.00,28.992
543.00,29.072
544.00,29.135
545.00,29.229
546.00,29.286
547.00,29.442
548.00,29.526
549.00,29.556
550.00,29.635
551.00,29.781
552.00,29.868
553.00,29.922
554.00,29.993
555.00,30.050
556.00,30.083
557.00,30.132
558.00,30.297
559.00,30.401
560.00,30.433
561.00,30.515
562.00,30.613
563.00,30.622
564.00,30.713
565.00,30.773
566.00,30.759
567.00,30.861
568.00,30.930
569.00,30.910
570.00,30.955
571.00,31.103
572.00,31.024
573.00,31.129
574.00,31.208
575.00,31.201
576.00,31.234
577.00,31.272
578.00,31.367
579.00,31.504
580.00,31.517
581.00,31.691
582.00,31.781
583.00,31.758
584.00,31.850
585.00,31.930
586.00,31.960
587.00,32.056
588.00,32.083
589.00,32.033
590.00,32.025
591.00,32.131
592.00,32.198
593.00,32.251
594.00,32.367
595.00,32.414
596.00,32.455
597.00,32.527
598.00,32.561
599.00,32.617
600.00,32.714
601.00,32.758
602.00,32.757
603.00,32.883
604.00,32.954
605.00,32.982
606.00,33.107
607.00,33.143
608.00,33.150
609.00,33.280
610.00,33.459
611.00,33.316
612.00,33.278
613.00,33.333
614.00,33.401
615.00,33.503
616.00,33.635
617.00,33.583
618.00,33.573
619.00,33.640
620.00,33.793
621.00,33.933
622.00,33.940
623.00,34.000
624.00,34.148
625.00,34.234
626.00,34.250
627.00,34.355
628.00,34.387
629.00,34.426
630.00,34.494
631.00,34.576
632.00,34.667
633.00,34.743
634.00,34.872
635.00,34.957
636.00,35.040
637.00,35.099
638.00,35.204
639.00,35.328
640.00,35.354
641.00,35.410
642.00,35.519
643.00,35.582
644.00,35.689
645.00,35.767
646.00,35.946
647.00,36.014
648.00,36.070
649.00,36.110
650.00,36.181
651.00,36.352
652.00,36.413
653.00,36.476
654.00,36.539
655.00,36.670
656.00,36.981
657.00,36.848
658.00,37.013
659.00,37.064
660.00,37.172
661.00,37.279
662.00,37.625
663.00,37.486
664.00,37.868
665.00,38.008
666.00,37.926
667.00,38.013
668.00,37.984
669.00,38.455
670.00,38.634
671.00,38.462
672.00,38.561
673.00,38.764
674.00,38.794
675.00,38.951
676.00,39.227
677.00,39.331
678.00,39.114
679.00,39.264
680.00,39.333
681.00,39.655
682.00,39.622
683.00,39.705
684.00,40.013
685.00,40.106
686.00,39.976
687.00,40.159
688.00,40.283
689.00,40.357
690.00,40.643
691.00,40.862
692.00,40.635
693.00,40.653
694.00,40.823
695.00,41.053
696.00,41.142
697.00,41.127
698.00,41.275
699.00,41.555
700.00,41.555
701.00,41.584
702.00,41.793
703.00,42.022
704.00,42.239
705.00,42.173
706.00,42.272
707.00,42.256
708.00,42.195
709.00,42.563
710.00,42.989
711.00,42.493
712.00,42.644
713.00,42.766
714.00,42.877
715.00,42.994
716.00,42.968
717.00,43.105
718.00,43.053
719.00,43.329
720.00,43.531
721.00,47.936
722.00,47.994
723.00,48.039
724.00,48.092
725.00,48.120
726.00,48.175
727.00,48.243
728.00,48.329
729.00,48.364
730.00,48.418
731.00,48.485
732.00,48.516
733.00,48.611
734.00,48.613
735.00,48.737
736.00,48.784
737.00,48.814
738.00,48.869
739.00,48.890
740.00,48.966
741.00,49.071
742.00,49.120
743.00,49.085
744.00,49.179
745.00,49.194
746.00,49.228
747.00,49.197
748.00,49.263
749.00,49.185
750.00,49.264
751.00,49.320
752.00,49.410
753.00,49.374
754.00,49.392
755.00,49.447
756.00,49.403
757.00,49.439
758.00,49.444
759.00,49.567
760.00,49.522
761.00,49.638
762.00,49.601
763.00,49.638
764.00,49.699
765.00,49.771
766.00,49.741
767.00,49.746
768.00,49.794
769.00,49.743
770.00,49.867
771.00,49.870
772.00,49.969
773.00,49.866
774.00,49.972
775.00,50.005
776.00,49.942
777.00,50.040
778.00,50.044
779.00,50.128
780.00,50.067
781.00,50.029
782.00,50.066
783.00,50.042
784.00,50.135
785.00,49.985
786.00,50.184
787.00,50.052
788.00,50.119
789.00,50.120
790.00,50.052
791.00,50.176
792.00,50.095
793.00,50.140
794.00,50.064
795.00,50.112
796.00,50.069
797.00,50.021
798.00,50.184
799.00,50.060
800.00,50.109
801.00,50.037
802.00,50.070
803.00,50.055
804.00,50.046
805.00,50.107
806.00,49.977
807.00,50.059
808.00,50.092
809.00,50.005
810.00,50.064
811.00,50.020
812.00,50.117
813.00,50.001
814.00,50.051
815.00,49.925
816.00,49.980
817.00,50.017
818.00,49.965
819.00,50.008
820.00,49.862
821.00,50.013
822.00,49.931
823.00,49.934
824.00,49.962
825.00,49.851
826.00,49.871
827.00,49.948
828.00,49.938
829.00,49.902
830.00,49.922
831.00,52.357
832.00,52.387
833.00,52.340
834.00,52.319
835.00,52.355
836.00,52.342
837.00,52.320
838.00,52.293
839.00,52.254
840.00,52.203
841.00,52.239
842.00,52.199
843.00,52.218
844.00,52.235
845.00,52.170
846.00,52.213
847.00,52.152
848.00,52.221
849.00,52.090
850.00,52.102
851.00,51.991
852.00,52.191
853.00,52.009
854.00,52.012
855.00,51.948
856.00,52.008
857.00,51.926
858.00,51.904
859.00,51.907
860.00,51.911
861.00,51.912
862.00,51.849
863.00,51.856
864.00,51.818
865.00,51.870
866.00,51.843
867.00,51.826
868.00,51.842
869.00,51.797
870.00,51.860
871.00,51.789
872.00,51.833
873.00,51.802
874.00,51.836
875.00,51.747
876.00,51.832
877.00,51.739
878.00,51.786
879.00,51.729
880.00,51.723
881.00,51.653
882.00,51.870
883.00,51.707
884.00,51.647
885.00,51.643
886.00,51.628
887.00,51.596
888.00,51.593
889.00,51.579
890.00,51.590
891.00,51.562
892.00,51.530
893.00,51.524
894.00,51.515
895.00,51.484
896.00,51.460
897.00,51.453
898.00,51.437
899.00,51.428
900.00,51.413
901.00,51.378
902.00,51.394
903.00,51.393
904.00,51.349
905.00,51.394
906.00,51.362
907.00,51.352
908.00,51.226
909.00,51.350
910.00,51.237
911.00,51.237
912.00,51.251
913.00,51.187
914.00,51.239
915.00,51.106
916.00,51.141
917.00,51.115
918.00,51.127
919.00,51.109
920.00,51.045
921.00,51.067
922.00,51.030
923.00,51.009
924.00,50.974
925.00,50.988
926.00,50.967
927.00,50.962
928.00,50.902
929.00,50.930
930.00,50.894
931.00,50.882
932.00,50.806
933.00,50.866
934.00,50.853
935.00,50.816
936.00,50.749
937.00,50.779
938.00,50.776
939.00,50.775
940.00,50.720
941.00,50.736
942.00,50.703
943.00,50.695
944.00,50.655
945.00,50.650
946.00,50.659
947.00,50.594
948.00,50.591
949.00,50.578
950.00,50.547
951.00,50.496
952.00,50.515
953.00,50.458
954.00,50.441
955.00,50.404
956.00,50.401
957.00,50.384
958.00,50.403
959.00,50.330
960.00,50.341
961.00,50.322
962.00,50.318
963.00,50.277
964.00,50.255
965.00,50.295
966.00,50.248
967.00,50.250
968.00,50.227
969.00,50.271
970.00,50.226
971.00,50.251
972.00,50.202
973.00,50.239
974.00,50.266
975.00,50.202
976.00,50.239
977.00,50.214
978.00,50.256
979.00,50.223
980.00,50.253
981.00,50.266
982.00,50.202
983.00,50.221
984.00,50.198
985.00,50.225
986.00,50.189
987.00,50.208
988.00,50.173
989.00,50.137
990.00,50.164
991.00,50.137
992.00,50.166
993.00,50.141
994.00,50.114
995.00,50.124
996.00,50.091
997.00,50.075
998.00,50.092
999.00,50.069
1000.00,50.007
1001.00,50.000
1002.00,50.003
1003.00,49.987
1004.00,49.984
1005.00,49.937
1006.00,49.994
1007.00,49.960
1008.00,49.936
1009.00,49.927
1010.00,49.922
1011.00,49.914
1012.00,49.885
1013.00,49.901
1014.00,49.867
1015.00,49.880
1016.00,49.839
1017.00,49.839
1018.00,49.846
1019.00,49.794
1020.00,49.808
1021.00,49.783
1022.00,49.772
1023.00,49.734
1024.00,49.731
1025.00,49.699
1026.00,49.695
1027.00,49.660
1028.00,49.678
1029.00,49.678
1030.00,49.625
1031.00,49.657
1032.00,49.606
1033.00,49.593
1034.00,49.578
1035.00,49.527
1036.00,49.497
1037.00,49.496
1038.00,49.470
1039.00,49.445
1040.00,49.445
1041.00,49.394
1042.00,49.410
1043.00,49.397
1044.00,49.419
1045.00,49.403
1046.00,49.398
1047.00,49.424
1048.00,49.428
1049.00,49.430
1050.00,49.434
1051.00,49.480
1052.00,49.465
1053.00,49.478
1054.00,49.482
1055.00,49.494
1056.00,49.511
1057.00,49.503
1058.00,49.484
1059.00,49.490
1060.00,49.502
1061.00,49.487
1062.00,49.468
1063.00,49.470
1064.00,49.486
1065.00,49.458
1066.00,49.446
1067.00,49.454
1068.00,49.480
1069.00,49.425
1070.00,49.419
1071.00,49.404
1072.00,49.429
1073.00,49.398
1074.00,49.383
1075.00,49.398
1076.00,49.401
1077.00,49.371
1078.00,49.362
1079.00,49.367
1080.00,49.350
1081.00,49.330
1082.00,49.329
1083.00,49.325
1084.00,49.336
1085.00,49.333
1086.00,49.322
1087.00,49.325
1088.00,49.299
1089.00,49.309
1090.00,49.291
1091.00,49.285
1092.00,49.269
1093.00,49.251
1094.00,49.234
1095.00,49.249
1096.00,49.223
1097.00,49.240
1098.00,49.226
1099.00,49.208
1100.00,49.208
1101.00,49.199
1102.00,49.177
1103.00,49.220
1104.00,49.155
1105.00,49.159
1106.00,49.149
1107.00,49.129
1108.00,49.130
1109.00,49.132
1110.00,49.113
1111.00,49.114
1112.00,49.099
1113.00,49.091
1114.00,49.084
1115.00,49.087
1116.00,49.074
1117.00,49.069
1118.00,49.046
1119.00,49.054
1120.00,49.039
1121.00,49.035
1122.00,49.041
1123.00,49.032
1124.00,49.023
1125.00,49.031
1126.00,49.002
1127.00,49.006
1128.00,48.995
1129.00,48.983
1130.00,48.974
1131.00,48.976
1132.00,48.945
1133.00,48.955
1134.00,48.941
1135.00,48.928
1136.00,48.928
1137.00,48.919
1138.00,48.934
1139.00,48.944
1140.00,48.926
1141.00,48.943
1142.00,48.923
1143.00,48.925
1144.00,48.910
1145.00,48.909
1146.00,48.894
1147.00,48.897
1148.00,48.885
1149.00,48.911
1150.00,48.909
1151.00,48.896
1152.00,48.894
1153.00,48.901
1154.00,48.872
1155.00,48.900
1156.00,48.883
1157.00,48.890
1158.00,48.876
1159.00,48.883
1160.00,48.873
1161.00,48.900
1162.00,48.884
1163.00,48.869
1164.00,48.885
1165.00,48.863
1166.00,48.867
1167.00,48.852
1168.00,48.859
1169.00,48.846
1170.00,48.839
1171.00,48.837
1172.00,48.847
1173.00,48.831
1174.00,48.859
1175.00,48.846
1176.00,48.842
1177.00,48.855
1178.00,48.841
1179.00,48.844
1180.00,48.834
1181.00,48.851
1182.00,48.843
1183.00,48.851
1184.00,48.825
1185.00,48.845
1186.00,48.835
1187.00,48.836
1188.00,48.857
1189.00,48.874
1190.00,48.854
1191.00,48.858
1192.00,48.878
1193.00,48.846
1194.00,48.849
1195.00,48.813
1196.00,48.849
1197.00,48.850
1198.00,48.824
1199.00,48.838
1200.00,48.850
1201.00,48.861
1202.00,48.849
1203.00,48.834
1204.00,48.827
1205.00,48.848
1206.00,48.829
1207.00,48.831
1208.00,48.823
1209.00,48.830
1210.00,48.848
1211.00,48.834
1212.00,48.851
1213.00,48.834
1214.00,48.850
1215.00,48.828
1216.00,48.854
1217.00,48.840
1218.00,48.835
1219.00,48.849
1220.00,48.833
1221.00,48.866
1222.00,48.857
1223.00,48.889
1224.00,48.865
1225.00,48.841
1226.00,48.849
1227.00,48.850
1228.00,48.855
1229.00,48.856
1230.00,48.882
1231.00,48.858
1232.00,48.896
1233.00,48.902
1234.00,48.889
1235.00,48.889
1236.00,48.872
1237.00,48.906
1238.00,48.919
1239.00,48.925
1240.00,48.919
1241.00,48.941
1242.00,48.922
1243.00,48.945
1244.00,48.925
1245.00,48.941
1246.00,48.954
1247.00,48.930
1248.00,48.941
1249.00,48.953
1250.00,48.955
1251.00,48.959
1252.00,48.975
1253.00,48.959
1254.00,49.001
1255.00,48.977
1256.00,48.958
1257.00,48.959
1258.00,48.994
1259.00,48.977
1260.00,49.011
1261.00,48.991
1262.00,48.993
1263.00,48.993
1264.00,48.997
1265.00,49.015
1266.00,49.013
1267.00,49.018
1268.00,49.022
1269.00,49.023
1270.00,49.064
1271.00,49.066
1272.00,49.053
1273.00,49.076
1274.00,49.068
1275.00,49.064
1276.00,49.061
1277.00,49.077
1278.00,49.083
1279.00,49.089
1280.00,49.065
1281.00,49.102
1282.00,49.115
1283.00,49.087
1284.00,49.121
1285.00,49.109
1286.00,49.115
1287.00,49.129
1288.00,49.135
1289.00,49.111
1290.00,49.143
1291.00,49.152
1292.00,49.129
1293.00,49.161
1294.00,49.183
1295.00,49.188
1296.00,49.201
1297.00,49.181
1298.00,49.239
1299.00,49.208
1300.00,49.227
1301.00,49.212
1302.00,49.227
1303.00,49.231
1304.00,49.218
1305.00,49.237
1306.00,49.245
1307.00,49.258
1308.00,49.244
1309.00,49.287
1310.00,49.275
1311.00,49.256
1312.00,49.279
1313.00,49.285
1314.00,49.307
1315.00,49.328
1316.00,49.315
1317.00,49.372
1318.00,49.361
1319.00,49.349
1320.00,49.366
1321.00,49.497
1322.00,49.490
1323.00,49.476
1324.00,49.452
1325.00,49.483
1326.00,49.501
1327.00,49.505
1328.00,49.530
1329.00,49.497
1330.00,49.508
1331.00,49.520
1332.00,49.513
1333.00,49.517
1334.00,49.568
1335.00,49.558
1336.00,49.598
1337.00,49.631
1338.00,49.672
1339.00,49.719
1340.00,49.778
1341.00,49.853
1342.00,49.932
1343.00,49.963
1344.00,50.014
1345.00,50.090
1346.00,50.099
1347.00,50.126
1348.00,50.175
1349.00,50.160
1350.00,50.187
1351.00,50.190
1352.00,50.198
1353.00,50.217
1354.00,50.218
1355.00,50.208
1356.00,50.251
1357.00,50.216
1358.00,50.275
1359.00,50.282
1360.00,50.266
1361.00,50.303
1362.00,50.261
1363.00,50.293
1364.00,50.352
1365.00,50.259
1366.00,50.330
1367.00,50.309
1368.00,50.240
1369.00,50.288
1370.00,50.267
1371.00,50.216
1372.00,50.250
1373.00,50.267
1374.00,50.275
1375.00,50.251
1376.00,50.246
1377.00,50.211
1378.00,50.312
1379.00,50.235
1380.00,50.272
1381.00,50.290
1382.00,50.209
1383.00,50.274
1384.00,50.217
1385.00,50.233
1386.00,50.246
1387.00,50.180
1388.00,50.269
1389.00,50.286
1390.00,50.242
1391.00,50.255
1392.00,50.239
1393.00,50.189
1394.00,50.266
1395.00,50.246
1396.00,50.212
1397.00,50.257
1398.00,50.237
1399.00,50.246
1400.00,50.243
1401.00,50.252
1402.00,50.255
1403.00,50.278
1404.00,50.288
1405.00,50.289
1406.00,50.335
1407.00,50.319
1408.00,50.353
1409.00,50.332
1410.00,50.376
1411.00,50.359
1412.00,50.407
1413.00,50.390
1414.00,50.409
1415.00,50.380
1416.00,50.415
1417.00,50.429
1418.00,50.425
1419.00,50.452
1420.00,50.439
1421.00,50.480
1422.00,50.487
1423.00,50.527
1424.00,50.521
1425.00,50.565
1426.00,50.540
1427.00,50.599
1428.00,50.591
1429.00,50.600
1430.00,50.613
1431.00,50.635
1432.00,50.644
1433.00,50.690
1434.00,50.660
1435.00,50.702
1436.00,50.716
1437.00,50.724
1438.00,50.738
1439.00,50.781
1440.00,50.780
1441.00,50.812
1442.00,50.821
1443.00,50.839
1444.00,50.909
1445.00,50.848
1446.00,50.888
1447.00,50.932
1448.00,50.964
1449.00,50.953
1450.00,50.962
1451.00,50.992
1452.00,51.024
1453.00,51.015
1454.00,51.044
1455.00,51.072
1456.00,51.072
1457.00,51.076
1458.00,51.119
1459.00,51.113
1460.00,51.158
1461.00,51.149
1462.00,51.172
1463.00,51.182
1464.00,51.188
1465.00,51.220
1466.00,51.229
1467.00,51.237
1468.00,51.300
1469.00,51.268
1470.00,51.293
1471.00,51.320
1472.00,51.328
1473.00,51.335
1474.00,51.388
1475.00,51.386
1476.00,51.390
1477.00,51.384
1478.00,51.409
1479.00,51.433
1480.00,51.436
1481.00,51.439
1482.00,51.482
1483.00,51.483
1484.00,51.497
1485.00,51.522
1486.00,51.510
1487.00,51.547
1488.00,51.581
1489.00,51.548
1490.00,51.575
1491.00,51.594
1492.00,51.616
1493.00,51.600
1494.00,51.647
1495.00,51.633
1496.00,51.668
1497.00,51.641
1498.00,51.673
1499.00,51.693
1500.00,51.685
1501.00, 
1502.00, 
1503.00, 
1504.00, 
1505.00, 
1506.00, 
1507.00, 
1508.00, 
1509.00, 
1510.00, 
1511.00, 
1512.00, 
1513.00, 
1514.00, 
1515.00, 
1516.00, 
1517.00, 
1518.00, 
1519.00, 
1520.00, 
1521.00, 
1522.00, 
1523.00, 
1524.00, 
1525.00, 
1526.00, 
1527.00, 
1528.00, 
1529.00, 
1530.00, 
1531.00, 
1532.00, 
1533.00, 
1534.00, 
1535.00, 
1536.00, 
1537.00, 
1538.00, 
1539.00, 
1540.00, 
1541.00, 
1542.00, 
1543.00, 
1544.00, 
1545.00, 
1546.00, 
1547.00, 
1548.00, 
1549.00, 
1550.00, 
1551.00, 
1552.00, 
1553.00, 
1554.00, 
1555.00, 
1556.00, 
1557.00, 
1558.00, 
1559.00, 
1560.00, 
1561.00, 
1562.00, 
1563.00, 
1564.00, 
1565.00, 
1566.00, 
1567.00, 
1568.00, 
1569.00, 
1570.00, 
1571.00, 
1572.00, 
1573.00, 
1574.00, 
1575.00, 
1576.00, 
1577.00, 
1578.00, 
1579.00, 
1580.00, 
1581.00, 
1582.00, 
1583.00, 
1584.00, 
1585.00, 
1586.00, 
1587.00, 
1588.00, 
1589.00, 
1590.00, 
1591.00, 
1592.00, 
1593.00, 
1594.00, 
1595.00, 
1596.00, 
1597.00, 
1598.00, 
1599.00, 
1600.00, 
1601.00, 
1602.00, 
1603.00, 
1604.00, 
1605.00, 
1606.00, 
1607.00, 
1608.00, 
1609.00, 
1610.00, 
1611.00, 
1612.00, 
1613.00, 
1614.00, 
1615.00, 
1616.00, 
1617.00, 
1618.00, 
1619.00, 
1620.00, 
1621.00, 
1622.00, 
1623.00, 
1624.00, 
1625.00, 
1626.00, 
1627.00, 
1628.00, 
1629.00, 
1630.00, 
1631.00, 
1632.00, 
1633.00, 
1634.00, 
1635.00, 
1636.00, 
1637.00, 
1638.00, 
1639.00, 
1640.00, 
1641.00, 
1642.00, 
1643.00, 
1644.00, 
1645.00, 
1646.00, 
1647.00, 
1648.00, 
1649.00, 
1650.00, 
1651.00, 
1652.00, 
1653.00, 
1654.00, 
1655.00, 
1656.00, 
1657.00, 
1658.00, 
1659.00, 
1660.00, 
1661.00, 
1662.00, 
1663.00, 
1664.00, 
1665.00, 
1666.00, 
1667.00, 
1668.00, 
1669.00, 
1670.00, 
1671.00, 
1672.00, 
1673.00, 
1674.00, 
1675.00, 
1676.00, 
1677.00, 
1678.00, 
1679.00, 
1680.00, 
1681.00, 
1682.00, 
1683.00, 
1684.00, 
1685.00, 
1686.00, 
1687.00, 
1688.00, 
1689.00, 
1690.00, 
1691.00, 
1692.00, 
1693.00, 
1694.00, 
1695.00, 
1696.00, 
1697.00, 
1698.00, 
1699.00, 
1700.00, 
1701.00, 
1702.00, 
1703.00, 
1704.00, 
1705.00, 
1706.00, 
1707.00, 
1708.00, 
1709.00, 
1710.00, 
1711.00, 
1712.00, 
1713.00, 
1714.00, 
1715.00, 
1716.00, 
1717.00, 
1718.00, 
1719.00, 
1720.00, 
1721.00, 
1722.00, 
1723.00, 
1724.00, 
1725.00, 
1726.00, 
1727.00, 
1728.00, 
1729.00, 
1730.00, 
1731.00, 
1732.00, 
1733.00, 
1734.00, 
1735.00, 
1736.00, 
1737.00, 
1738.00, 
1739.00, 
1740.00, 
1741.00, 
1742.00, 
1743.00, 
1744.00, 
1745.00, 
1746.00, 
1747.00, 
1748.00, 
1749.00, 
1750.00, 
1751.00, 
1752.00, 
1753.00, 
1754.00, 
1755.00, 
1756.00, 
1757.00, 
1758.00, 
1759.00, 
1760.00, 
1761.00, 
1762.00, 
1763.00, 
1764.00, 
1765.00, 
1766.00, 
1767.00, 
1768.00, 
1769.00, 
1770.00, 
1771.00, 
1772.00, 
1773.00, 
1774.00, 
1775.00, 
1776.00, 
1777.00, 
1778.00, 
1779.00, 
1780.00, 
1781.00, 
1782.00, 
1783.00, 
1784.00, 
1785.00, 
1786.00, 
1787.00, 
1788.00, 
1789.00, 
1790.00, 
1791.00, 
1792.00, 
1793.00, 
1794.00, 
1795.00, 
1796.00, 
1797.00, 
1798.00, 
1799.00, 
1800.00, 
1801.00, 
1802.00, 
1803.00, 
1804.00, 
1805.00, 
1806.00, 
1807.00, 
1808.00, 
1809.00, 
1810.00, 
1811.00, 
1812.00, 
1813.00, 
1814.00, 
1815.00, 
1816.00, 
1817.00, 
1818.00, 
1819.00, 
1820.00, 
1821.00, 
1822.00, 
1823.00, 
1824.00, 
1825.00, 
1826.00, 
1827.00, 
1828.00, 
1829.00, 
1830.00, 
1831.00, 
1832.00, 
1833.00, 
1834.00, 
1835.00, 
1836.00, 
1837.00, 
1838.00, 
1839.00, 
1840.00, 
1841.00, 
1842.00, 
1843.00, 
1844.00, 
1845.00, 
1846.00, 
1847.00, 
1848.00, 
1849.00, 
1850.00, 
1851.00, 
1852.00, 
1853.00, 
1854.00, 
1855.00, 
1856.00, 
1857.00, 
1858.00, 
1859.00, 
1860.00, 
1861.00, 
1862.00, 
1863.00, 
1864.00, 
1865.00, 
1866.00, 
1867.00, 
1868.00, 
1869.00, 
1870.00, 
1871.00, 
1872.00, 
1873.00, 
1874.00, 
1875.00, 
1876.00, 
1877.00, 
1878.00, 
1879.00, 
1880.00, 
1881.00, 
1882.00, 
1883.00, 
1884.00, 
1885.00, 
1886.00, 
1887.00, 
1888.00, 
1889.00, 
1890.00, 
1891.00, 
1892.00, 
1893.00, 
1894.00, 
1895.00, 
1896.00, 
1897.00, 
1898.00, 
1899.00, 
1900.00, 
1901.00, 
1902.00, 
1903.00, 
1904.00, 
1905.00, 
1906.00, 
1907.00, 
1908.00, 
1909.00, 
1910.00, 
1911.00, 
1912.00, 
1913.00, 
1914.00, 
1915.00, 
1916.00, 
1917.00, 
1918.00, 
1919.00, 
1920.00, 
1921.00, 
1922.00, 
1923.00, 
1924.00, 
1925.00, 
1926.00, 
1927.00, 
1928.00, 
1929.00, 
1930.00, 
1931.00, 
1932.00, 
1933.00, 
1934.00, 
1935.00, 
1936.00, 
1937.00, 
1938.00, 
1939.00, 
1940.00, 
1941.00, 
1942.00, 
1943.00, 
1944.00, 
1945.00, 
1946.00, 
1947.00, 
1948.00, 
1949.00, 
1950.00, 
1951.00, 
1952.00, 
1953.00, 
1954.00, 
1955.00, 
1956.00, 
1957.00, 
1958.00, 
1959.00, 
1960.00, 
1961.00, 
1962.00, 
1963.00, 
1964.00, 
1965.00, 
1966.00, 
1967.00, 
1968.00, 
1969.00, 
1970.00, 
1971.00, 
1972.00, 
1973.00, 
1974.00, 
1975.00, 
1976.00, 
1977.00, 
1978.00, 
1979.00, 
1980.00, 
1981.00, 
1982.00, 
1983.00, 
1984.00, 
1985.00, 
1986.00, 
1987.00, 
1988.00, 
1989.00, 
1990.00, 
1991.00, 
1992.00, 
1993.00, 
1994.00, 
1995.00, 
1996.00, 
1997.00, 
1998.00, 
1999.00, 
2000.00, 
2001.00, 
2002.00, 
2003.00, 
2004.00, 
2005.00, 
2006.00, 
2007.00, 
2008.00, 
2009.00, 
2010.00, 
2011.00, 
2012.00, 
2013.00, 
2014.00, 
2015.00, 
2016.00, 
2017.00, 
2018.00, 
2019.00, 
2020.00, 
2021.00, 
2022.00, 
2023.00, 
2024.00, 
2025.00, 
2026.00, 
2027.00, 
2028.00, 
2029.00, 
2030.00, 
2031.00, 
2032.00, 
2033.00, 
2034.00, 
2035.00, 
2036.00, 
2037.00, 
2038.00, 
2039.00, 
2040.00, 
2041.00, 
2042.00, 
2043.00, 
2044.00, 
2045.00, 
2046.00, 
2047.00, 
2048.00, 
2049.00, 
2050.00, 
2051.00, 
2052.00, 
2053.00, 
2054.00, 
2055.00, 
2056.00, 
2057.00, 
2058.00, 
2059.00, 
2060.00, 
2061.00, 
2062.00, 
2063.00, 
2064.00, 
2065.00, 
2066.00, 
2067.00, 
2068.00, 
2069.00, 
2070.00, 
2071.00, 
2072.00, 
2073.00, 
2074.00, 
2075.00, 
2076.00, 
2077.00, 
2078.00, 
2079.00, 
2080.00, 
2081.00, 
2082.00, 
2083.00, 
2084.00, 
2085.00, 
2086.00, 
2087.00, 
2088.00, 
2089.00, 
2090.00, 
2091.00, 
2092.00, 
2093.00, 
2094.00, 
2095.00, 
2096.00, 
2097.00, 
2098.00, 
2099.00, 
2100.00, 
2101.00, 
2102.00, 
2103.00, 
2104.00, 
2105.00, 
2106.00, 
2107.00, 
2108.00, 
2109.00, 
2110.00, 
2111.00, 
2112.00, 
2113.00, 
2114.00, 
2115.00, 
2116.00, 
2117.00, 
2118.00, 
2119.00, 
2120.00, 
2121.00, 
2122.00, 
2123.00, 
2124.00, 
2125.00, 
2126.00, 
2127.00, 
2128.00, 
2129.00, 
2130.00, 
2131.00, 
2132.00, 
2133.00, 
2134.00, 
2135.00, 
2136.00, 
2137.00, 
2138.00, 
2139.00, 
2140.00, 
2141.00, 
2142.00, 
2143.00, 
2144.00, 
2145.00, 
2146.00, 
2147.00, 
2148.00, 
2149.00, 
2150.00, 
2151.00, 
2152.00, 
2153.00, 
2154.00, 
2155.00, 
2156.00, 
2157.00, 
2158.00, 
2159.00, 
2160.00, 
2161.00, 
2162.00, 
2163.00, 
2164.00, 
2165.00, 
2166.00, 
2167.00, 
2168.00, 
2169.00, 
2170.00, 
2171.00, 
2172.00, 
2173.00, 
2174.00, 
2175.00, 
2176.00, 
2177.00, 
2178.00, 
2179.00, 
2180.00, 
2181.00, 
2182.00, 
2183.00, 
2184.00, 
2185.00, 
2186.00, 
2187.00, 
2188.00, 
2189.00, 
2190.00, 
2191.00, 
2192.00, 
2193.00, 
2194.00, 
2195.00, 
2196.00, 
2197.00, 
2198.00, 
2199.00, 
2200.00, 
2201.00, 
2202.00, 
2203.00, 
2204.00, 
2205.00, 
2206.00, 
2207.00, 
2208.00, 
2209.00, 
2210.00, 
2211.00, 
2212.00, 
2213.00, 
2214.00, 
2215.00, 
2216.00, 
2217.00, 
2218.00, 
2219.00, 
2220.00, 
2221.00, 
2222.00, 
2223.00, 
2224.00, 
2225.00, 
2226.00, 
2227.00, 
2228.00, 
2229.00, 
2230.00, 
2231.00, 
2232.00, 
2233.00, 
2234.00, 
2235.00, 
2236.00, 
2237.00, 
2238.00, 
2239.00, 
2240.00, 
2241.00, 
2242.00, 
2243.00, 
2244.00, 
2245.00, 
2246.00, 
2247.00, 
2248.00, 
2249.00, 
2250.00, 
2251.00, 
2252.00, 
2253.00, 
2254.00, 
2255.00, 
2256.00, 
2257.00, 
2258.00, 
2259.00, 
2260.00, 
2261.00, 
2262.00, 
2263.00, 
2264.00, 
2265.00, 
2266.00, 
2267.00, 
2268.00, 
2269.00, 
2270.00, 
2271.00, 
2272.00, 
2273.00, 
2274.00, 
2275.00, 
2276.00, 
2277.00, 
2278.00, 
2279.00, 
2280.00, 
2281.00, 
2282.00, 
2283.00, 
2284.00, 
2285.00, 
2286.00, 
2287.00, 
2288.00, 
2289.00, 
2290.00, 
2291.00, 
2292.00, 
2293.00, 
2294.00, 
2295.00, 
2296.00, 
2297.00, 
2298.00, 
2299.00, 
2300.00, 
2301.00, 
2302.00, 
2303.00, 
2304.00, 
2305.00, 
2306.00, 
2307.00, 
2308.00, 
2309.00, 
2310.00, 
2311.00, 
2312.00, 
2313.00, 
2314.00, 
2315.00, 
2316.00, 
2317.00, 
2318.00, 
2319.00, 
2320.00, 
2321.00, 
2322.00, 
2323.00, 
2324.00, 
2325.00, 
2326.00, 
2327.00, 
2328.00, 
2329.00, 
2330.00, 
2331.00, 
2332.00, 
2333.00, 
2334.00, 
2335.00, 
2336.00, 
2337.00, 
2338.00, 
2339.00, 
2340.00, 
2341.00, 
2342.00, 
2343.00, 
2344.00, 
2345.00, 
2346.00, 
2347.00, 
2348.00, 
2349.00, 
2350.00, 
2351.00, 
2352.00, 
2353.00, 
2354.00, 
2355.00, 
2356.00, 
2357.00, 
2358.00, 
2359.00, 
2360.00, 
2361.00, 
2362.00, 
2363.00, 
2364.00, 
2365.00, 
2366.00, 
2367.00, 
2368.00, 
2369.00, 
2370.00, 
2371.00, 
2372.00, 
2373.00, 
2374.00, 
2375.00, 
2376.00, 
2377.00, 
2378.00, 
2379.00, 
2380.00, 
2381.00, 
2382.00, 
2383.00, 
2384.00, 
2385.00, 
2386.00, 
2387.00, 
2388.00, 
2389.00, 
2390.00, 
2391.00, 
2392.00, 
2393.00, 
2394.00, 
2395.00, 
2396.00, 
2397.00, 
2398.00, 
2399.00, 
2400.00, 
2401.00, 
2402.00, 
2403.00, 
2404.00, 
2405.00, 
2406.00, 
2407.00, 
2408.00, 
2409.00, 
2410.00, 
2411.00, 
2412.00, 
2413.00, 
2414.00, 
2415.00, 
2416.00, 
2417.00, 
2418.00, 
2419.00, 
2420.00, 
2421.00, 
2422.00, 
2423.00, 
2424.00, 
2425.00, 
2426.00, 
2427.00, 
2428.00, 
2429.00, 
2430.00, 
2431.00, 
2432.00, 
2433.00, 
2434.00, 
2435.00, 
2436.00, 
2437.00, 
2438.00, 
2439.00, 
2440.00, 
2441.00, 
2442.00, 
2443.00, 
2444.00, 
2445.00, 
2446.00, 
2447.00, 
2448.00, 
2449.00, 
2450.00, 
2451.00, 
2452.00, 
2453.00, 
2454.00, 
2455.00, 
2456.00, 
2457.00, 
2458.00, 
2459.00, 
2460.00, 
2461.00, 
2462.00, 
2463.00, 
2464.00, 
2465.00, 
2466.00, 
2467.00, 
2468.00, 
2469.00, 
2470.00, 
2471.00, 
2472.00, 
2473.00, 
2474.00, 
2475.00, 
2476.00, 
2477.00, 
2478.00, 
2479.00, 
2480.00, 
2481.00, 
2482.00, 
2483.00, 
2484.00, 
2485.00, 
2486.00, 
2487.00, 
2488.00, 
2489.00, 
2490.00, 
2491.00, 
2492.00, 
2493.00, 
2494.00, 
2495.00, 
2496.00, 
2497.00, 
2498.00, 
2499.00, 
2500.00, 
2501.00, 
2502.00, 
2503.00, 
2504.00, 
2505.00, 
2506.00, 
2507.00, 
2508.00, 
2509.00, 
2510.00, 
2511.00, 
2512.00, 
2513.00, 
2514.00, 
2515.00, 
2516.00, 
2517.00, 
2518.00, 
2519.00, 
2520.00, 
2521.00, 
2522.00, 
2523.00, 
2524.00, 
2525.00, 
2526.00, 
2527.00, 
2528.00, 
2529.00, 
2530.00, 
2531.00, 
2532.00, 
2533.00, 
2534.00, 
2535.00, 
2536.00, 
2537.00, 
2538.00, 
2539.00, 
2540.00, 
2541.00, 
2542.00, 
2543.00, 
2544.00, 
2545.00, 
2546.00, 
2547.00, 
2548.00, 
2549.00, 
2550.00, 
2551.00, 
2552.00, 
2553.00, 
2554.00, 
2555.00, 
2556.00, 
2557.00, 
2558.00, 
2559.00, 
2560.00, 
2561.00, 
2562.00, 
2563.00, 
2564.00, 
2565.00, 
2566.00, 
2567.00, 
2568.00, 
2569.00, 
2570.00, 
2571.00, 
2572.00, 
2573.00, 
2574.00, 
2575.00, 
2576.00, 
2577.00, 
2578.00, 
2579.00, 
2580.00, 
2581.00, 
2582.00, 
2583.00, 
2584.00, 
2585.00, 
2586.00, 
2587.00, 
2588.00, 
2589.00, 
2590.00, 
2591.00, 
2592.00, 
2593.00, 
2594.00, 
2595.00, 
2596.00, 
2597.00, 
2598.00, 
2599.00, 
2600.00, 
