"1cP4 - RawData"
"Wavelength nm.","T%"
200.00,0.001
201.00,0.001
202.00,-0.000
203.00,0.001
204.00,0.001
205.00,-0.000
206.00,0.003
207.00,-0.001
208.00,0.003
209.00,0.003
210.00,0.001
211.00,-0.001
212.00,0.002
213.00,0.003
214.00,0.000
215.00,-0.001
216.00,-0.003
217.00,0.000
218.00,0.003
219.00,0.002
220.00,-0.000
221.00,-0.000
222.00,-0.001
223.00,-0.000
224.00,-0.003
225.00,0.002
226.00,0.001
227.00,0.002
228.00,0.003
229.00,0.003
230.00,-0.001
231.00,-0.002
232.00,0.001
233.00,0.001
234.00,0.001
235.00,0.002
236.00,0.001
237.00,-0.001
238.00,-0.001
239.00,0.001
240.00,0.003
241.00,0.001
242.00,0.000
243.00,0.001
244.00,0.000
245.00,0.001
246.00,-0.000
247.00,0.002
248.00,-0.001
249.00,-0.001
250.00,0.001
251.00,0.001
252.00,0.000
253.00,0.001
254.00,0.001
255.00,-0.001
256.00,0.001
257.00,0.001
258.00,0.001
259.00,-0.002
260.00,0.001
261.00,0.002
262.00,0.002
263.00,-0.002
264.00,0.002
265.00,0.002
266.00,0.000
267.00,0.003
268.00,0.000
269.00,-0.001
270.00,0.001
271.00,-0.001
272.00,-0.001
273.00,0.000
274.00,-0.000
275.00,0.001
276.00,0.000
277.00,0.000
278.00,-0.001
279.00,0.001
280.00,-0.001
281.00,-0.002
282.00,0.000
283.00,0.000
284.00,0.001
285.00,-0.000
286.00,0.000
287.00,-0.001
288.00,0.002
289.00,-0.000
290.00,0.001
291.00,0.002
292.00,-0.000
293.00,-0.001
294.00,0.001
295.00,-0.000
296.00,-0.000
297.00,-0.001
298.00,0.001
299.00,0.000
300.00,0.000
301.00,-0.000
302.00,0.000
303.00,-0.000
304.00,0.001
305.00,0.001
306.00,0.001
307.00,0.003
308.00,0.004
309.00,0.008
310.00,0.014
311.00,0.020
312.00,0.032
313.00,0.046
314.00,0.069
315.00,0.102
316.00,0.152
317.00,0.209
318.00,0.289
319.00,0.386
320.00,0.519
321.00,0.641
322.00,0.837
323.00,1.058
324.00,1.302
325.00,1.566
326.00,1.867
327.00,2.226
328.00,2.581
329.00,2.972
330.00,3.391
331.00,3.815
332.00,4.277
333.00,4.790
334.00,5.285
335.00,5.790
336.00,6.308
337.00,6.827
338.00,7.351
339.00,7.825
340.00,8.312
341.00,8.860
342.00,9.286
343.00,9.747
344.00,10.222
345.00,10.621
346.00,10.992
347.00,11.367
348.00,11.723
349.00,12.057
350.00,12.375
351.00,12.660
352.00,12.902
353.00,13.168
354.00,13.422
355.00,13.643
356.00,13.831
357.00,14.006
358.00,14.220
359.00,14.398
360.00,14.540
361.00,14.597
362.00,14.738
363.00,14.857
364.00,14.893
365.00,14.970
366.00,15.014
367.00,15.055
368.00,15.088
369.00,15.102
370.00,15.128
371.00,15.125
372.00,15.070
373.00,15.105
374.00,15.069
375.00,14.958
376.00,14.895
377.00,14.824
378.00,14.700
379.00,14.654
380.00,14.633
381.00,14.587
382.00,14.554
383.00,14.558
384.00,14.584
385.00,14.571
386.00,14.569
387.00,14.617
388.00,14.685
389.00,14.666
390.00,14.666
391.00,14.683
392.00,14.675
393.00,14.667
394.00,14.695
395.00,14.702
396.00,14.655
397.00,14.675
398.00,14.663
399.00,14.660
400.00,14.649
401.00,14.596
402.00,14.659
403.00,14.648
404.00,14.600
405.00,14.571
406.00,14.574
407.00,14.494
408.00,14.507
409.00,14.458
410.00,14.416
411.00,14.426
412.00,14.336
413.00,14.406
414.00,14.352
415.00,14.363
416.00,14.396
417.00,14.368
418.00,14.410
419.00,14.460
420.00,14.491
421.00,14.427
422.00,14.472
423.00,14.515
424.00,14.510
425.00,14.517
426.00,14.555
427.00,14.591
428.00,14.613
429.00,14.668
430.00,14.704
431.00,14.758
432.00,14.778
433.00,14.841
434.00,14.869
435.00,14.931
436.00,15.005
437.00,15.035
438.00,15.122
439.00,15.172
440.00,15.234
441.00,15.289
442.00,15.393
443.00,15.413
444.00,15.533
445.00,15.637
446.00,15.727
447.00,15.804
448.00,15.890
449.00,16.023
450.00,16.104
451.00,16.186
452.00,16.273
453.00,16.404
454.00,16.477
455.00,16.597
456.00,16.705
457.00,16.795
458.00,16.890
459.00,17.029
460.00,17.168
461.00,17.280
462.00,17.396
463.00,17.522
464.00,17.638
465.00,17.759
466.00,17.879
467.00,18.027
468.00,18.117
469.00,18.219
470.00,18.290
471.00,18.463
472.00,18.604
473.00,18.674
474.00,18.856
475.00,18.989
476.00,19.074
477.00,19.225
478.00,19.342
479.00,19.538
480.00,19.662
481.00,19.820
482.00,19.988
483.00,20.150
484.00,20.253
485.00,20.404
486.00,20.545
487.00,20.720
488.00,20.857
489.00,21.024
490.00,21.176
491.00,21.316
492.00,21.443
493.00,21.688
494.00,21.836
495.00,21.848
496.00,21.991
497.00,22.120
498.00,22.238
499.00,22.370
500.00,22.572
501.00,22.683
502.00,22.828
503.00,22.994
504.00,23.061
505.00,23.239
506.00,23.371
507.00,23.471
508.00,23.577
509.00,23.771
510.00,23.906
511.00,24.018
512.00,24.147
513.00,24.317
514.00,24.423
515.00,24.586
516.00,24.715
517.00,24.799
518.00,24.949
519.00,25.041
520.00,25.130
521.00,25.234
522.00,25.369
523.00,25.424
524.00,25.540
525.00,25.670
526.00,25.812
527.00,25.880
528.00,25.972
529.00,26.170
530.00,26.304
531.00,26.398
532.00,26.468
533.00,26.571
534.00,26.683
535.00,26.784
536.00,26.884
537.00,26.960
538.00,27.055
539.00,27.103
540.00,27.209
541.00,27.291
542.00,27.319
543.00,27.394
544.00,27.482
545.00,27.574
546.00,27.610
547.00,27.772
548.00,27.856
549.00,27.859
550.00,27.991
551.00,28.116
552.00,28.170
553.00,28.248
554.00,28.307
555.00,28.309
556.00,28.398
557.00,28.469
558.00,28.555
559.00,28.680
560.00,28.746
561.00,28.804
562.00,28.899
563.00,28.936
564.00,28.974
565.00,29.019
566.00,29.036
567.00,29.108
568.00,29.148
569.00,29.257
570.00,29.262
571.00,29.326
572.00,29.362
573.00,29.360
574.00,29.426
575.00,29.430
576.00,29.439
577.00,29.521
578.00,29.606
579.00,29.702
580.00,29.718
581.00,29.851
582.00,29.956
583.00,29.952
584.00,30.038
585.00,30.097
586.00,30.141
587.00,30.204
588.00,30.261
589.00,30.236
590.00,30.313
591.00,30.343
592.00,30.347
593.00,30.400
594.00,30.524
595.00,30.585
596.00,30.656
597.00,30.728
598.00,30.774
599.00,30.785
600.00,30.861
601.00,30.900
602.00,30.915
603.00,31.052
604.00,31.070
605.00,31.121
606.00,31.214
607.00,31.240
608.00,31.283
609.00,31.387
610.00,31.573
611.00,31.412
612.00,31.461
613.00,31.588
614.00,31.571
615.00,31.723
616.00,31.814
617.00,31.817
618.00,31.814
619.00,31.896
620.00,31.984
621.00,32.067
622.00,32.084
623.00,32.217
624.00,32.283
625.00,32.380
626.00,32.401
627.00,32.469
628.00,32.560
629.00,32.651
630.00,32.664
631.00,32.761
632.00,32.850
633.00,32.950
634.00,33.123
635.00,33.216
636.00,33.278
637.00,33.326
638.00,33.467
639.00,33.555
640.00,33.611
641.00,33.651
642.00,33.769
643.00,33.877
644.00,33.960
645.00,34.012
646.00,34.258
647.00,34.337
648.00,34.399
649.00,34.456
650.00,34.527
651.00,34.725
652.00,34.790
653.00,34.826
654.00,34.925
655.00,35.131
656.00,35.429
657.00,35.304
658.00,35.478
659.00,35.569
660.00,35.683
661.00,35.752
662.00,36.017
663.00,36.000
664.00,36.371
665.00,36.468
666.00,36.430
667.00,36.575
668.00,36.452
669.00,36.947
670.00,37.216
671.00,37.154
672.00,37.259
673.00,37.368
674.00,37.468
675.00,37.631
676.00,37.914
677.00,38.045
678.00,37.916
679.00,38.148
680.00,38.284
681.00,38.405
682.00,38.506
683.00,38.582
684.00,38.839
685.00,39.001
686.00,38.928
687.00,39.073
688.00,39.196
689.00,39.292
690.00,39.640
691.00,39.866
692.00,39.681
693.00,39.668
694.00,39.861
695.00,40.055
696.00,40.211
697.00,40.310
698.00,40.350
699.00,40.651
700.00,40.513
701.00,40.807
702.00,41.177
703.00,41.167
704.00,41.444
705.00,41.374
706.00,41.478
707.00,41.580
708.00,41.510
709.00,41.841
710.00,42.354
711.00,41.890
712.00,42.013
713.00,42.302
714.00,42.415
715.00,42.531
716.00,42.486
717.00,42.675
718.00,42.789
719.00,42.867
720.00,42.954
721.00,47.212
722.00,47.207
723.00,47.345
724.00,47.367
725.00,47.455
726.00,47.506
727.00,47.568
728.00,47.682
729.00,47.727
730.00,47.788
731.00,47.866
732.00,47.884
733.00,48.052
734.00,48.045
735.00,48.123
736.00,48.172
737.00,48.301
738.00,48.324
739.00,48.453
740.00,48.515
741.00,48.638
742.00,48.664
743.00,48.645
744.00,48.775
745.00,48.815
746.00,48.866
747.00,48.864
748.00,48.858
749.00,48.900
750.00,48.960
751.00,48.961
752.00,49.091
753.00,49.139
754.00,49.126
755.00,49.162
756.00,49.179
757.00,49.277
758.00,49.185
759.00,49.403
760.00,49.293
761.00,49.433
762.00,49.450
763.00,49.485
764.00,49.557
765.00,49.638
766.00,49.599
767.00,49.564
768.00,49.723
769.00,49.664
770.00,49.789
771.00,49.756
772.00,49.831
773.00,49.872
774.00,49.903
775.00,49.897
776.00,49.888
777.00,49.986
778.00,49.931
779.00,50.081
780.00,50.028
781.00,50.046
782.00,50.068
783.00,50.029
784.00,50.153
785.00,50.056
786.00,50.169
787.00,50.076
788.00,50.165
789.00,50.157
790.00,50.131
791.00,50.264
792.00,50.151
793.00,50.168
794.00,50.168
795.00,50.279
796.00,50.230
797.00,50.105
798.00,50.292
799.00,50.151
800.00,50.196
801.00,50.150
802.00,50.156
803.00,50.174
804.00,50.115
805.00,50.262
806.00,50.147
807.00,50.262
808.00,50.195
809.00,50.187
810.00,50.176
811.00,50.151
812.00,50.261
813.00,50.205
814.00,50.227
815.00,50.132
816.00,50.143
817.00,50.163
818.00,50.110
819.00,50.257
820.00,50.088
821.00,50.153
822.00,50.228
823.00,50.167
824.00,50.175
825.00,50.095
826.00,50.150
827.00,50.203
828.00,50.165
829.00,50.166
830.00,50.174
831.00,52.528
832.00,52.583
833.00,52.544
834.00,52.562
835.00,52.532
836.00,52.543
837.00,52.529
838.00,52.495
839.00,52.511
840.00,52.449
841.00,52.489
842.00,52.417
843.00,52.447
844.00,52.559
845.00,52.421
846.00,52.450
847.00,52.413
848.00,52.456
849.00,52.346
850.00,52.354
851.00,52.297
852.00,52.335
853.00,52.263
854.00,52.282
855.00,52.206
856.00,52.244
857.00,52.184
858.00,52.160
859.00,52.155
860.00,52.168
861.00,52.161
862.00,52.140
863.00,52.124
864.00,52.097
865.00,52.123
866.00,52.091
867.00,52.094
868.00,52.121
869.00,52.036
870.00,52.131
871.00,52.077
872.00,52.101
873.00,52.070
874.00,52.112
875.00,52.059
876.00,52.097
877.00,52.088
878.00,52.085
879.00,52.003
880.00,52.057
881.00,51.989
882.00,52.063
883.00,52.016
884.00,51.951
885.00,51.915
886.00,52.064
887.00,51.913
888.00,51.915
889.00,51.891
890.00,51.893
891.00,51.875
892.00,51.857
893.00,51.836
894.00,51.842
895.00,51.810
896.00,51.801
897.00,51.782
898.00,51.779
899.00,51.790
900.00,51.733
901.00,51.736
902.00,51.757
903.00,51.704
904.00,51.683
905.00,51.704
906.00,51.695
907.00,51.648
908.00,51.594
909.00,51.618
910.00,51.584
911.00,51.588
912.00,51.589
913.00,51.500
914.00,51.592
915.00,51.446
916.00,51.510
917.00,51.492
918.00,51.496
919.00,51.467
920.00,51.396
921.00,51.413
922.00,51.430
923.00,51.382
924.00,51.288
925.00,51.397
926.00,51.368
927.00,51.335
928.00,51.279
929.00,51.318
930.00,51.294
931.00,51.259
932.00,51.199
933.00,51.261
934.00,51.219
935.00,51.170
936.00,51.149
937.00,51.157
938.00,51.142
939.00,51.142
940.00,51.131
941.00,51.111
942.00,51.084
943.00,51.075
944.00,51.030
945.00,51.038
946.00,51.041
947.00,50.977
948.00,50.970
949.00,50.957
950.00,50.958
951.00,50.916
952.00,50.904
953.00,50.862
954.00,50.837
955.00,50.798
956.00,50.804
957.00,50.764
958.00,50.790
959.00,50.715
960.00,50.723
961.00,50.719
962.00,50.712
963.00,50.676
964.00,50.665
965.00,50.744
966.00,50.653
967.00,50.649
968.00,50.620
969.00,50.666
970.00,50.626
971.00,50.641
972.00,50.602
973.00,50.644
974.00,50.667
975.00,50.616
976.00,50.632
977.00,50.621
978.00,50.662
979.00,50.626
980.00,50.648
981.00,50.662
982.00,50.616
983.00,50.665
984.00,50.630
985.00,50.651
986.00,50.605
987.00,50.631
988.00,50.593
989.00,50.565
990.00,50.567
991.00,50.546
992.00,50.565
993.00,50.525
994.00,50.520
995.00,50.511
996.00,50.497
997.00,50.501
998.00,50.459
999.00,50.481
1000.00,50.424
1001.00,50.421
1002.00,50.427
1003.00,50.412
1004.00,50.401
1005.00,50.368
1006.00,50.411
1007.00,50.379
1008.00,50.365
1009.00,50.345
1010.00,50.354
1011.00,50.340
1012.00,50.311
1013.00,50.330
1014.00,50.302
1015.00,50.297
1016.00,50.250
1017.00,50.247
1018.00,50.247
1019.00,50.191
1020.00,50.198
1021.00,50.170
1022.00,50.169
1023.00,50.119
1024.00,50.133
1025.00,50.111
1026.00,50.110
1027.00,50.091
1028.00,50.093
1029.00,50.080
1030.00,50.016
1031.00,50.054
1032.00,50.014
1033.00,50.015
1034.00,50.000
1035.00,49.973
1036.00,49.945
1037.00,49.930
1038.00,49.920
1039.00,49.875
1040.00,49.873
1041.00,49.839
1042.00,49.844
1043.00,49.832
1044.00,49.857
1045.00,49.837
1046.00,49.825
1047.00,49.847
1048.00,49.846
1049.00,49.859
1050.00,49.850
1051.00,49.903
1052.00,49.899
1053.00,49.896
1054.00,49.906
1055.00,49.925
1056.00,49.925
1057.00,49.935
1058.00,49.911
1059.00,49.916
1060.00,49.938
1061.00,49.905
1062.00,49.891
1063.00,49.901
1064.00,49.904
1065.00,49.888
1066.00,49.878
1067.00,49.888
1068.00,49.912
1069.00,49.858
1070.00,49.853
1071.00,49.841
1072.00,49.863
1073.00,49.838
1074.00,49.832
1075.00,49.817
1076.00,49.826
1077.00,49.802
1078.00,49.773
1079.00,49.804
1080.00,49.807
1081.00,49.773
1082.00,49.775
1083.00,49.761
1084.00,49.764
1085.00,49.777
1086.00,49.748
1087.00,49.773
1088.00,49.743
1089.00,49.740
1090.00,49.721
1091.00,49.715
1092.00,49.712
1093.00,49.694
1094.00,49.666
1095.00,49.698
1096.00,49.659
1097.00,49.656
1098.00,49.649
1099.00,49.627
1100.00,49.624
1101.00,49.636
1102.00,49.600
1103.00,49.612
1104.00,49.587
1105.00,49.579
1106.00,49.565
1107.00,49.566
1108.00,49.555
1109.00,49.558
1110.00,49.537
1111.00,49.540
1112.00,49.541
1113.00,49.534
1114.00,49.518
1115.00,49.528
1116.00,49.500
1117.00,49.483
1118.00,49.468
1119.00,49.472
1120.00,49.472
1121.00,49.477
1122.00,49.471
1123.00,49.471
1124.00,49.456
1125.00,49.466
1126.00,49.453
1127.00,49.453
1128.00,49.439
1129.00,49.426
1130.00,49.395
1131.00,49.401
1132.00,49.377
1133.00,49.382
1134.00,49.383
1135.00,49.372
1136.00,49.375
1137.00,49.375
1138.00,49.376
1139.00,49.390
1140.00,49.377
1141.00,49.376
1142.00,49.356
1143.00,49.370
1144.00,49.351
1145.00,49.362
1146.00,49.360
1147.00,49.351
1148.00,49.345
1149.00,49.354
1150.00,49.360
1151.00,49.363
1152.00,49.348
1153.00,49.351
1154.00,49.331
1155.00,49.346
1156.00,49.346
1157.00,49.331
1158.00,49.311
1159.00,49.315
1160.00,49.309
1161.00,49.326
1162.00,49.306
1163.00,49.300
1164.00,49.321
1165.00,49.309
1166.00,49.317
1167.00,49.304
1168.00,49.323
1169.00,49.314
1170.00,49.314
1171.00,49.309
1172.00,49.304
1173.00,49.292
1174.00,49.310
1175.00,49.312
1176.00,49.295
1177.00,49.293
1178.00,49.303
1179.00,49.306
1180.00,49.302
1181.00,49.326
1182.00,49.296
1183.00,49.297
1184.00,49.281
1185.00,49.295
1186.00,49.282
1187.00,49.283
1188.00,49.287
1189.00,49.294
1190.00,49.282
1191.00,49.269
1192.00,49.305
1193.00,49.285
1194.00,49.294
1195.00,49.265
1196.00,49.285
1197.00,49.291
1198.00,49.271
1199.00,49.271
1200.00,49.297
1201.00,49.297
1202.00,49.289
1203.00,49.287
1204.00,49.269
1205.00,49.287
1206.00,49.273
1207.00,49.278
1208.00,49.274
1209.00,49.285
1210.00,49.292
1211.00,49.298
1212.00,49.307
1213.00,49.279
1214.00,49.311
1215.00,49.279
1216.00,49.295
1217.00,49.295
1218.00,49.282
1219.00,49.308
1220.00,49.280
1221.00,49.321
1222.00,49.310
1223.00,49.331
1224.00,49.318
1225.00,49.302
1226.00,49.303
1227.00,49.299
1228.00,49.315
1229.00,49.302
1230.00,49.352
1231.00,49.330
1232.00,49.368
1233.00,49.384
1234.00,49.364
1235.00,49.371
1236.00,49.361
1237.00,49.368
1238.00,49.359
1239.00,49.355
1240.00,49.331
1241.00,49.355
1242.00,49.354
1243.00,49.382
1244.00,49.370
1245.00,49.399
1246.00,49.406
1247.00,49.393
1248.00,49.390
1249.00,49.416
1250.00,49.417
1251.00,49.405
1252.00,49.426
1253.00,49.401
1254.00,49.437
1255.00,49.427
1256.00,49.404
1257.00,49.407
1258.00,49.451
1259.00,49.434
1260.00,49.469
1261.00,49.462
1262.00,49.448
1263.00,49.454
1264.00,49.450
1265.00,49.464
1266.00,49.477
1267.00,49.489
1268.00,49.488
1269.00,49.489
1270.00,49.523
1271.00,49.519
1272.00,49.515
1273.00,49.532
1274.00,49.535
1275.00,49.530
1276.00,49.522
1277.00,49.539
1278.00,49.541
1279.00,49.542
1280.00,49.530
1281.00,49.547
1282.00,49.559
1283.00,49.548
1284.00,49.582
1285.00,49.571
1286.00,49.578
1287.00,49.585
1288.00,49.603
1289.00,49.579
1290.00,49.616
1291.00,49.626
1292.00,49.605
1293.00,49.632
1294.00,49.655
1295.00,49.640
1296.00,49.658
1297.00,49.645
1298.00,49.691
1299.00,49.667
1300.00,49.682
1301.00,49.677
1302.00,49.714
1303.00,49.712
1304.00,49.697
1305.00,49.714
1306.00,49.712
1307.00,49.722
1308.00,49.707
1309.00,49.741
1310.00,49.751
1311.00,49.724
1312.00,49.745
1313.00,49.760
1314.00,49.780
1315.00,49.798
1316.00,49.788
1317.00,49.831
1318.00,49.823
1319.00,49.814
1320.00,49.827
1321.00,49.970
1322.00,49.974
1323.00,49.959
1324.00,49.945
1325.00,49.947
1326.00,49.973
1327.00,49.951
1328.00,49.959
1329.00,49.931
1330.00,49.943
1331.00,49.965
1332.00,49.963
1333.00,49.965
1334.00,50.007
1335.00,50.011
1336.00,50.051
1337.00,50.064
1338.00,50.130
1339.00,50.181
1340.00,50.233
1341.00,50.295
1342.00,50.375
1343.00,50.401
1344.00,50.459
1345.00,50.511
1346.00,50.530
1347.00,50.584
1348.00,50.642
1349.00,50.641
1350.00,50.662
1351.00,50.650
1352.00,50.666
1353.00,50.659
1354.00,50.688
1355.00,50.677
1356.00,50.741
1357.00,50.680
1358.00,50.710
1359.00,50.714
1360.00,50.723
1361.00,50.823
1362.00,50.765
1363.00,50.703
1364.00,50.906
1365.00,50.720
1366.00,50.728
1367.00,50.777
1368.00,50.716
1369.00,50.731
1370.00,50.784
1371.00,50.757
1372.00,50.770
1373.00,50.755
1374.00,50.769
1375.00,50.745
1376.00,50.744
1377.00,50.711
1378.00,50.690
1379.00,50.719
1380.00,50.755
1381.00,50.816
1382.00,50.766
1383.00,50.766
1384.00,50.715
1385.00,50.730
1386.00,50.750
1387.00,50.774
1388.00,50.728
1389.00,50.695
1390.00,50.700
1391.00,50.798
1392.00,50.721
1393.00,50.652
1394.00,50.770
1395.00,50.818
1396.00,50.710
1397.00,50.682
1398.00,50.690
1399.00,50.759
1400.00,50.762
1401.00,50.737
1402.00,50.754
1403.00,50.781
1404.00,50.785
1405.00,50.805
1406.00,50.836
1407.00,50.805
1408.00,50.851
1409.00,50.806
1410.00,50.856
1411.00,50.837
1412.00,50.879
1413.00,50.859
1414.00,50.879
1415.00,50.868
1416.00,50.910
1417.00,50.910
1418.00,50.903
1419.00,50.928
1420.00,50.929
1421.00,50.979
1422.00,50.972
1423.00,50.999
1424.00,51.001
1425.00,51.041
1426.00,51.011
1427.00,51.068
1428.00,51.050
1429.00,51.087
1430.00,51.088
1431.00,51.109
1432.00,51.109
1433.00,51.131
1434.00,51.120
1435.00,51.183
1436.00,51.199
1437.00,51.209
1438.00,51.227
1439.00,51.249
1440.00,51.245
1441.00,51.272
1442.00,51.286
1443.00,51.308
1444.00,51.394
1445.00,51.358
1446.00,51.390
1447.00,51.406
1448.00,51.427
1449.00,51.452
1450.00,51.458
1451.00,51.470
1452.00,51.495
1453.00,51.473
1454.00,51.522
1455.00,51.552
1456.00,51.546
1457.00,51.545
1458.00,51.582
1459.00,51.578
1460.00,51.632
1461.00,51.604
1462.00,51.645
1463.00,51.666
1464.00,51.677
1465.00,51.705
1466.00,51.707
1467.00,51.728
1468.00,51.807
1469.00,51.765
1470.00,51.796
1471.00,51.814
1472.00,51.820
1473.00,51.825
1474.00,51.868
1475.00,51.866
1476.00,51.880
1477.00,51.864
1478.00,51.882
1479.00,51.906
1480.00,51.901
1481.00,51.911
1482.00,51.969
1483.00,51.960
1484.00,51.975
1485.00,51.990
1486.00,51.974
1487.00,52.013
1488.00,52.050
1489.00,52.006
1490.00,52.061
1491.00,52.056
1492.00,52.087
1493.00,52.094
1494.00,52.140
1495.00,52.123
1496.00,52.154
1497.00,52.124
1498.00,52.158
1499.00,52.186
1500.00,52.182
1501.00, 
1502.00, 
1503.00, 
1504.00, 
1505.00, 
1506.00, 
1507.00, 
1508.00, 
1509.00, 
1510.00, 
1511.00, 
1512.00, 
1513.00, 
1514.00, 
1515.00, 
1516.00, 
1517.00, 
1518.00, 
1519.00, 
1520.00, 
1521.00, 
1522.00, 
1523.00, 
1524.00, 
1525.00, 
1526.00, 
1527.00, 
1528.00, 
1529.00, 
1530.00, 
1531.00, 
1532.00, 
1533.00, 
1534.00, 
1535.00, 
1536.00, 
1537.00, 
1538.00, 
1539.00, 
1540.00, 
1541.00, 
1542.00, 
1543.00, 
1544.00, 
1545.00, 
1546.00, 
1547.00, 
1548.00, 
1549.00, 
1550.00, 
1551.00, 
1552.00, 
1553.00, 
1554.00, 
1555.00, 
1556.00, 
1557.00, 
1558.00, 
1559.00, 
1560.00, 
1561.00, 
1562.00, 
1563.00, 
1564.00, 
1565.00, 
1566.00, 
1567.00, 
1568.00, 
1569.00, 
1570.00, 
1571.00, 
1572.00, 
1573.00, 
1574.00, 
1575.00, 
1576.00, 
1577.00, 
1578.00, 
1579.00, 
1580.00, 
1581.00, 
1582.00, 
1583.00, 
1584.00, 
1585.00, 
1586.00, 
1587.00, 
1588.00, 
1589.00, 
1590.00, 
1591.00, 
1592.00, 
1593.00, 
1594.00, 
1595.00, 
1596.00, 
1597.00, 
1598.00, 
1599.00, 
1600.00, 
1601.00, 
1602.00, 
1603.00, 
1604.00, 
1605.00, 
1606.00, 
1607.00, 
1608.00, 
1609.00, 
1610.00, 
1611.00, 
1612.00, 
1613.00, 
1614.00, 
1615.00, 
1616.00, 
1617.00, 
1618.00, 
1619.00, 
1620.00, 
1621.00, 
1622.00, 
1623.00, 
1624.00, 
1625.00, 
1626.00, 
1627.00, 
1628.00, 
1629.00, 
1630.00, 
1631.00, 
1632.00, 
1633.00, 
1634.00, 
1635.00, 
1636.00, 
1637.00, 
1638.00, 
1639.00, 
1640.00, 
1641.00, 
1642.00, 
1643.00, 
1644.00, 
1645.00, 
1646.00, 
1647.00, 
1648.00, 
1649.00, 
1650.00, 
1651.00, 
1652.00, 
1653.00, 
1654.00, 
1655.00, 
1656.00, 
1657.00, 
1658.00, 
1659.00, 
1660.00, 
1661.00, 
1662.00, 
1663.00, 
1664.00, 
1665.00, 
1666.00, 
1667.00, 
1668.00, 
1669.00, 
1670.00, 
1671.00, 
1672.00, 
1673.00, 
1674.00, 
1675.00, 
1676.00, 
1677.00, 
1678.00, 
1679.00, 
1680.00, 
1681.00, 
1682.00, 
1683.00, 
1684.00, 
1685.00, 
1686.00, 
1687.00, 
1688.00, 
1689.00, 
1690.00, 
1691.00, 
1692.00, 
1693.00, 
1694.00, 
1695.00, 
1696.00, 
1697.00, 
1698.00, 
1699.00, 
1700.00, 
1701.00, 
1702.00, 
1703.00, 
1704.00, 
1705.00, 
1706.00, 
1707.00, 
1708.00, 
1709.00, 
1710.00, 
1711.00, 
1712.00, 
1713.00, 
1714.00, 
1715.00, 
1716.00, 
1717.00, 
1718.00, 
1719.00, 
1720.00, 
1721.00, 
1722.00, 
1723.00, 
1724.00, 
1725.00, 
1726.00, 
1727.00, 
1728.00, 
1729.00, 
1730.00, 
1731.00, 
1732.00, 
1733.00, 
1734.00, 
1735.00, 
1736.00, 
1737.00, 
1738.00, 
1739.00, 
1740.00, 
1741.00, 
1742.00, 
1743.00, 
1744.00, 
1745.00, 
1746.00, 
1747.00, 
1748.00, 
1749.00, 
1750.00, 
1751.00, 
1752.00, 
1753.00, 
1754.00, 
1755.00, 
1756.00, 
1757.00, 
1758.00, 
1759.00, 
1760.00, 
1761.00, 
1762.00, 
1763.00, 
1764.00, 
1765.00, 
1766.00, 
1767.00, 
1768.00, 
1769.00, 
1770.00, 
1771.00, 
1772.00, 
1773.00, 
1774.00, 
1775.00, 
1776.00, 
1777.00, 
1778.00, 
1779.00, 
1780.00, 
1781.00, 
1782.00, 
1783.00, 
1784.00, 
1785.00, 
1786.00, 
1787.00, 
1788.00, 
1789.00, 
1790.00, 
1791.00, 
1792.00, 
1793.00, 
1794.00, 
1795.00, 
1796.00, 
1797.00, 
1798.00, 
1799.00, 
1800.00, 
1801.00, 
1802.00, 
1803.00, 
1804.00, 
1805.00, 
1806.00, 
1807.00, 
1808.00, 
1809.00, 
1810.00, 
1811.00, 
1812.00, 
1813.00, 
1814.00, 
1815.00, 
1816.00, 
1817.00, 
1818.00, 
1819.00, 
1820.00, 
1821.00, 
1822.00, 
1823.00, 
1824.00, 
1825.00, 
1826.00, 
1827.00, 
1828.00, 
1829.00, 
1830.00, 
1831.00, 
1832.00, 
1833.00, 
1834.00, 
1835.00, 
1836.00, 
1837.00, 
1838.00, 
1839.00, 
1840.00, 
1841.00, 
1842.00, 
1843.00, 
1844.00, 
1845.00, 
1846.00, 
1847.00, 
1848.00, 
1849.00, 
1850.00, 
1851.00, 
1852.00, 
1853.00, 
1854.00, 
1855.00, 
1856.00, 
1857.00, 
1858.00, 
1859.00, 
1860.00, 
1861.00, 
1862.00, 
1863.00, 
1864.00, 
1865.00, 
1866.00, 
1867.00, 
1868.00, 
1869.00, 
1870.00, 
1871.00, 
1872.00, 
1873.00, 
1874.00, 
1875.00, 
1876.00, 
1877.00, 
1878.00, 
1879.00, 
1880.00, 
1881.00, 
1882.00, 
1883.00, 
1884.00, 
1885.00, 
1886.00, 
1887.00, 
1888.00, 
1889.00, 
1890.00, 
1891.00, 
1892.00, 
1893.00, 
1894.00, 
1895.00, 
1896.00, 
1897.00, 
1898.00, 
1899.00, 
1900.00, 
1901.00, 
1902.00, 
1903.00, 
1904.00, 
1905.00, 
1906.00, 
1907.00, 
1908.00, 
1909.00, 
1910.00, 
1911.00, 
1912.00, 
1913.00, 
1914.00, 
1915.00, 
1916.00, 
1917.00, 
1918.00, 
1919.00, 
1920.00, 
1921.00, 
1922.00, 
1923.00, 
1924.00, 
1925.00, 
1926.00, 
1927.00, 
1928.00, 
1929.00, 
1930.00, 
1931.00, 
1932.00, 
1933.00, 
1934.00, 
1935.00, 
1936.00, 
1937.00, 
1938.00, 
1939.00, 
1940.00, 
1941.00, 
1942.00, 
1943.00, 
1944.00, 
1945.00, 
1946.00, 
1947.00, 
1948.00, 
1949.00, 
1950.00, 
1951.00, 
1952.00, 
1953.00, 
1954.00, 
1955.00, 
1956.00, 
1957.00, 
1958.00, 
1959.00, 
1960.00, 
1961.00, 
1962.00, 
1963.00, 
1964.00, 
1965.00, 
1966.00, 
1967.00, 
1968.00, 
1969.00, 
1970.00, 
1971.00, 
1972.00, 
1973.00, 
1974.00, 
1975.00, 
1976.00, 
1977.00, 
1978.00, 
1979.00, 
1980.00, 
1981.00, 
1982.00, 
1983.00, 
1984.00, 
1985.00, 
1986.00, 
1987.00, 
1988.00, 
1989.00, 
1990.00, 
1991.00, 
1992.00, 
1993.00, 
1994.00, 
1995.00, 
1996.00, 
1997.00, 
1998.00, 
1999.00, 
2000.00, 
2001.00, 
2002.00, 
2003.00, 
2004.00, 
2005.00, 
2006.00, 
2007.00, 
2008.00, 
2009.00, 
2010.00, 
2011.00, 
2012.00, 
2013.00, 
2014.00, 
2015.00, 
2016.00, 
2017.00, 
2018.00, 
2019.00, 
2020.00, 
2021.00, 
2022.00, 
2023.00, 
2024.00, 
2025.00, 
2026.00, 
2027.00, 
2028.00, 
2029.00, 
2030.00, 
2031.00, 
2032.00, 
2033.00, 
2034.00, 
2035.00, 
2036.00, 
2037.00, 
2038.00, 
2039.00, 
2040.00, 
2041.00, 
2042.00, 
2043.00, 
2044.00, 
2045.00, 
2046.00, 
2047.00, 
2048.00, 
2049.00, 
2050.00, 
2051.00, 
2052.00, 
2053.00, 
2054.00, 
2055.00, 
2056.00, 
2057.00, 
2058.00, 
2059.00, 
2060.00, 
2061.00, 
2062.00, 
2063.00, 
2064.00, 
2065.00, 
2066.00, 
2067.00, 
2068.00, 
2069.00, 
2070.00, 
2071.00, 
2072.00, 
2073.00, 
2074.00, 
2075.00, 
2076.00, 
2077.00, 
2078.00, 
2079.00, 
2080.00, 
2081.00, 
2082.00, 
2083.00, 
2084.00, 
2085.00, 
2086.00, 
2087.00, 
2088.00, 
2089.00, 
2090.00, 
2091.00, 
2092.00, 
2093.00, 
2094.00, 
2095.00, 
2096.00, 
2097.00, 
2098.00, 
2099.00, 
2100.00, 
2101.00, 
2102.00, 
2103.00, 
2104.00, 
2105.00, 
2106.00, 
2107.00, 
2108.00, 
2109.00, 
2110.00, 
2111.00, 
2112.00, 
2113.00, 
2114.00, 
2115.00, 
2116.00, 
2117.00, 
2118.00, 
2119.00, 
2120.00, 
2121.00, 
2122.00, 
2123.00, 
2124.00, 
2125.00, 
2126.00, 
2127.00, 
2128.00, 
2129.00, 
2130.00, 
2131.00, 
2132.00, 
2133.00, 
2134.00, 
2135.00, 
2136.00, 
2137.00, 
2138.00, 
2139.00, 
2140.00, 
2141.00, 
2142.00, 
2143.00, 
2144.00, 
2145.00, 
2146.00, 
2147.00, 
2148.00, 
2149.00, 
2150.00, 
2151.00, 
2152.00, 
2153.00, 
2154.00, 
2155.00, 
2156.00, 
2157.00, 
2158.00, 
2159.00, 
2160.00, 
2161.00, 
2162.00, 
2163.00, 
2164.00, 
2165.00, 
2166.00, 
2167.00, 
2168.00, 
2169.00, 
2170.00, 
2171.00, 
2172.00, 
2173.00, 
2174.00, 
2175.00, 
2176.00, 
2177.00, 
2178.00, 
2179.00, 
2180.00, 
2181.00, 
2182.00, 
2183.00, 
2184.00, 
2185.00, 
2186.00, 
2187.00, 
2188.00, 
2189.00, 
2190.00, 
2191.00, 
2192.00, 
2193.00, 
2194.00, 
2195.00, 
2196.00, 
2197.00, 
2198.00, 
2199.00, 
2200.00, 
2201.00, 
2202.00, 
2203.00, 
2204.00, 
2205.00, 
2206.00, 
2207.00, 
2208.00, 
2209.00, 
2210.00, 
2211.00, 
2212.00, 
2213.00, 
2214.00, 
2215.00, 
2216.00, 
2217.00, 
2218.00, 
2219.00, 
2220.00, 
2221.00, 
2222.00, 
2223.00, 
2224.00, 
2225.00, 
2226.00, 
2227.00, 
2228.00, 
2229.00, 
2230.00, 
2231.00, 
2232.00, 
2233.00, 
2234.00, 
2235.00, 
2236.00, 
2237.00, 
2238.00, 
2239.00, 
2240.00, 
2241.00, 
2242.00, 
2243.00, 
2244.00, 
2245.00, 
2246.00, 
2247.00, 
2248.00, 
2249.00, 
2250.00, 
2251.00, 
2252.00, 
2253.00, 
2254.00, 
2255.00, 
2256.00, 
2257.00, 
2258.00, 
2259.00, 
2260.00, 
2261.00, 
2262.00, 
2263.00, 
2264.00, 
2265.00, 
2266.00, 
2267.00, 
2268.00, 
2269.00, 
2270.00, 
2271.00, 
2272.00, 
2273.00, 
2274.00, 
2275.00, 
2276.00, 
2277.00, 
2278.00, 
2279.00, 
2280.00, 
2281.00, 
2282.00, 
2283.00, 
2284.00, 
2285.00, 
2286.00, 
2287.00, 
2288.00, 
2289.00, 
2290.00, 
2291.00, 
2292.00, 
2293.00, 
2294.00, 
2295.00, 
2296.00, 
2297.00, 
2298.00, 
2299.00, 
2300.00, 
2301.00, 
2302.00, 
2303.00, 
2304.00, 
2305.00, 
2306.00, 
2307.00, 
2308.00, 
2309.00, 
2310.00, 
2311.00, 
2312.00, 
2313.00, 
2314.00, 
2315.00, 
2316.00, 
2317.00, 
2318.00, 
2319.00, 
2320.00, 
2321.00, 
2322.00, 
2323.00, 
2324.00, 
2325.00, 
2326.00, 
2327.00, 
2328.00, 
2329.00, 
2330.00, 
2331.00, 
2332.00, 
2333.00, 
2334.00, 
2335.00, 
2336.00, 
2337.00, 
2338.00, 
2339.00, 
2340.00, 
2341.00, 
2342.00, 
2343.00, 
2344.00, 
2345.00, 
2346.00, 
2347.00, 
2348.00, 
2349.00, 
2350.00, 
2351.00, 
2352.00, 
2353.00, 
2354.00, 
2355.00, 
2356.00, 
2357.00, 
2358.00, 
2359.00, 
2360.00, 
2361.00, 
2362.00, 
2363.00, 
2364.00, 
2365.00, 
2366.00, 
2367.00, 
2368.00, 
2369.00, 
2370.00, 
2371.00, 
2372.00, 
2373.00, 
2374.00, 
2375.00, 
2376.00, 
2377.00, 
2378.00, 
2379.00, 
2380.00, 
2381.00, 
2382.00, 
2383.00, 
2384.00, 
2385.00, 
2386.00, 
2387.00, 
2388.00, 
2389.00, 
2390.00, 
2391.00, 
2392.00, 
2393.00, 
2394.00, 
2395.00, 
2396.00, 
2397.00, 
2398.00, 
2399.00, 
2400.00, 
2401.00, 
2402.00, 
2403.00, 
2404.00, 
2405.00, 
2406.00, 
2407.00, 
2408.00, 
2409.00, 
2410.00, 
2411.00, 
2412.00, 
2413.00, 
2414.00, 
2415.00, 
2416.00, 
2417.00, 
2418.00, 
2419.00, 
2420.00, 
2421.00, 
2422.00, 
2423.00, 
2424.00, 
2425.00, 
2426.00, 
2427.00, 
2428.00, 
2429.00, 
2430.00, 
2431.00, 
2432.00, 
2433.00, 
2434.00, 
2435.00, 
2436.00, 
2437.00, 
2438.00, 
2439.00, 
2440.00, 
2441.00, 
2442.00, 
2443.00, 
2444.00, 
2445.00, 
2446.00, 
2447.00, 
2448.00, 
2449.00, 
2450.00, 
2451.00, 
2452.00, 
2453.00, 
2454.00, 
2455.00, 
2456.00, 
2457.00, 
2458.00, 
2459.00, 
2460.00, 
2461.00, 
2462.00, 
2463.00, 
2464.00, 
2465.00, 
2466.00, 
2467.00, 
2468.00, 
2469.00, 
2470.00, 
2471.00, 
2472.00, 
2473.00, 
2474.00, 
2475.00, 
2476.00, 
2477.00, 
2478.00, 
2479.00, 
2480.00, 
2481.00, 
2482.00, 
2483.00, 
2484.00, 
2485.00, 
2486.00, 
2487.00, 
2488.00, 
2489.00, 
2490.00, 
2491.00, 
2492.00, 
2493.00, 
2494.00, 
2495.00, 
2496.00, 
2497.00, 
2498.00, 
2499.00, 
2500.00, 
2501.00, 
2502.00, 
2503.00, 
2504.00, 
2505.00, 
2506.00, 
2507.00, 
2508.00, 
2509.00, 
2510.00, 
2511.00, 
2512.00, 
2513.00, 
2514.00, 
2515.00, 
2516.00, 
2517.00, 
2518.00, 
2519.00, 
2520.00, 
2521.00, 
2522.00, 
2523.00, 
2524.00, 
2525.00, 
2526.00, 
2527.00, 
2528.00, 
2529.00, 
2530.00, 
2531.00, 
2532.00, 
2533.00, 
2534.00, 
2535.00, 
2536.00, 
2537.00, 
2538.00, 
2539.00, 
2540.00, 
2541.00, 
2542.00, 
2543.00, 
2544.00, 
2545.00, 
2546.00, 
2547.00, 
2548.00, 
2549.00, 
2550.00, 
2551.00, 
2552.00, 
2553.00, 
2554.00, 
2555.00, 
2556.00, 
2557.00, 
2558.00, 
2559.00, 
2560.00, 
2561.00, 
2562.00, 
2563.00, 
2564.00, 
2565.00, 
2566.00, 
2567.00, 
2568.00, 
2569.00, 
2570.00, 
2571.00, 
2572.00, 
2573.00, 
2574.00, 
2575.00, 
2576.00, 
2577.00, 
2578.00, 
2579.00, 
2580.00, 
2581.00, 
2582.00, 
2583.00, 
2584.00, 
2585.00, 
2586.00, 
2587.00, 
2588.00, 
2589.00, 
2590.00, 
2591.00, 
2592.00, 
2593.00, 
2594.00, 
2595.00, 
2596.00, 
2597.00, 
2598.00, 
2599.00, 
2600.00, 
