"1cP5 - RawData"
"Wavelength nm.","T%"
200.00,-0.002
201.00,0.003
202.00,0.003
203.00,0.002
204.00,0.000
205.00,-0.000
206.00,-0.000
207.00,0.001
208.00,0.003
209.00,0.002
210.00,0.002
211.00,0.003
212.00,0.003
213.00,-0.000
214.00,-0.001
215.00,0.002
216.00,0.000
217.00,-0.001
218.00,-0.002
219.00,0.000
220.00,0.004
221.00,-0.000
222.00,-0.000
223.00,0.001
224.00,0.002
225.00,0.001
226.00,0.003
227.00,-0.001
228.00,-0.001
229.00,0.002
230.00,0.002
231.00,0.001
232.00,0.001
233.00,0.002
234.00,-0.000
235.00,-0.000
236.00,0.001
237.00,0.001
238.00,0.001
239.00,-0.000
240.00,0.001
241.00,0.003
242.00,0.000
243.00,0.001
244.00,-0.000
245.00,-0.000
246.00,-0.000
247.00,0.000
248.00,0.002
249.00,0.001
250.00,-0.001
251.00,-0.000
252.00,0.000
253.00,0.000
254.00,-0.001
255.00,0.002
256.00,-0.000
257.00,0.002
258.00,-0.000
259.00,0.001
260.00,-0.001
261.00,-0.000
262.00,0.002
263.00,-0.001
264.00,-0.001
265.00,-0.000
266.00,-0.001
267.00,-0.000
268.00,0.000
269.00,0.000
270.00,0.001
271.00,0.002
272.00,0.001
273.00,0.000
274.00,-0.000
275.00,-0.001
276.00,0.000
277.00,0.000
278.00,-0.001
279.00,0.000
280.00,0.000
281.00,0.001
282.00,-0.000
283.00,-0.000
284.00,-0.001
285.00,-0.001
286.00,0.000
287.00,0.002
288.00,0.000
289.00,-0.001
290.00,-0.000
291.00,-0.000
292.00,-0.001
293.00,0.001
294.00,0.001
295.00,-0.001
296.00,-0.001
297.00,-0.001
298.00,0.000
299.00,-0.000
300.00,-0.001
301.00,-0.001
302.00,-0.001
303.00,0.000
304.00,0.001
305.00,0.003
306.00,0.002
307.00,0.002
308.00,0.004
309.00,0.007
310.00,0.013
311.00,0.020
312.00,0.031
313.00,0.047
314.00,0.070
315.00,0.096
316.00,0.143
317.00,0.202
318.00,0.280
319.00,0.373
320.00,0.485
321.00,0.638
322.00,0.813
323.00,1.027
324.00,1.259
325.00,1.527
326.00,1.773
327.00,2.142
328.00,2.508
329.00,2.871
330.00,3.287
331.00,3.715
332.00,4.160
333.00,4.648
334.00,5.098
335.00,5.607
336.00,6.115
337.00,6.623
338.00,7.124
339.00,7.595
340.00,8.077
341.00,8.578
342.00,9.020
343.00,9.453
344.00,9.905
345.00,10.302
346.00,10.660
347.00,11.019
348.00,11.351
349.00,11.677
350.00,11.988
351.00,12.247
352.00,12.480
353.00,12.673
354.00,13.024
355.00,13.227
356.00,13.421
357.00,13.576
358.00,13.754
359.00,13.919
360.00,14.071
361.00,14.140
362.00,14.271
363.00,14.374
364.00,14.425
365.00,14.473
366.00,14.550
367.00,14.599
368.00,14.623
369.00,14.626
370.00,14.642
371.00,14.626
372.00,14.585
373.00,14.602
374.00,14.566
375.00,14.457
376.00,14.397
377.00,14.316
378.00,14.236
379.00,14.160
380.00,14.133
381.00,14.123
382.00,14.073
383.00,14.064
384.00,14.098
385.00,14.088
386.00,14.090
387.00,14.123
388.00,14.163
389.00,14.142
390.00,14.122
391.00,14.160
392.00,14.155
393.00,14.165
394.00,14.188
395.00,14.181
396.00,14.131
397.00,14.143
398.00,14.124
399.00,14.128
400.00,14.103
401.00,14.084
402.00,14.128
403.00,14.104
404.00,14.041
405.00,14.034
406.00,14.018
407.00,13.974
408.00,13.984
409.00,13.929
410.00,13.897
411.00,13.890
412.00,13.837
413.00,13.860
414.00,13.848
415.00,13.842
416.00,13.856
417.00,13.863
418.00,13.856
419.00,13.913
420.00,13.964
421.00,13.901
422.00,13.920
423.00,13.949
424.00,13.983
425.00,14.016
426.00,14.017
427.00,14.087
428.00,14.094
429.00,14.120
430.00,14.154
431.00,14.215
432.00,14.239
433.00,14.291
434.00,14.342
435.00,14.403
436.00,14.465
437.00,14.510
438.00,14.563
439.00,14.628
440.00,14.680
441.00,14.751
442.00,14.826
443.00,14.909
444.00,15.001
445.00,15.054
446.00,15.149
447.00,15.194
448.00,15.355
449.00,15.435
450.00,15.535
451.00,15.596
452.00,15.710
453.00,15.830
454.00,15.914
455.00,16.017
456.00,16.118
457.00,16.235
458.00,16.331
459.00,16.461
460.00,16.602
461.00,16.710
462.00,16.831
463.00,16.956
464.00,17.095
465.00,17.232
466.00,17.342
467.00,17.474
468.00,17.560
469.00,17.692
470.00,17.775
471.00,17.898
472.00,18.030
473.00,18.125
474.00,18.280
475.00,18.395
476.00,18.478
477.00,18.627
478.00,18.727
479.00,18.954
480.00,19.072
481.00,19.222
482.00,19.368
483.00,19.551
484.00,19.670
485.00,19.830
486.00,19.967
487.00,20.131
488.00,20.263
489.00,20.434
490.00,20.555
491.00,20.673
492.00,20.883
493.00,21.059
494.00,21.247
495.00,21.296
496.00,21.395
497.00,21.549
498.00,21.698
499.00,21.842
500.00,21.960
501.00,22.113
502.00,22.186
503.00,22.410
504.00,22.483
505.00,22.651
506.00,22.809
507.00,22.906
508.00,23.029
509.00,23.210
510.00,23.328
511.00,23.422
512.00,23.607
513.00,23.752
514.00,23.865
515.00,24.020
516.00,24.173
517.00,24.255
518.00,24.410
519.00,24.488
520.00,24.554
521.00,24.693
522.00,24.794
523.00,24.827
524.00,24.960
525.00,25.119
526.00,25.250
527.00,25.316
528.00,25.425
529.00,25.631
530.00,25.761
531.00,25.811
532.00,25.958
533.00,25.999
534.00,26.170
535.00,26.244
536.00,26.343
537.00,26.423
538.00,26.521
539.00,26.561
540.00,26.678
541.00,26.754
542.00,26.790
543.00,26.884
544.00,26.941
545.00,27.062
546.00,27.050
547.00,27.241
548.00,27.327
549.00,27.346
550.00,27.461
551.00,27.583
552.00,27.645
553.00,27.688
554.00,27.773
555.00,27.831
556.00,27.911
557.00,27.951
558.00,28.034
559.00,28.188
560.00,28.188
561.00,28.256
562.00,28.385
563.00,28.387
564.00,28.491
565.00,28.514
566.00,28.518
567.00,28.608
568.00,28.650
569.00,28.745
570.00,28.775
571.00,28.799
572.00,28.844
573.00,28.824
574.00,28.905
575.00,28.910
576.00,28.941
577.00,28.982
578.00,29.090
579.00,29.136
580.00,29.180
581.00,29.352
582.00,29.386
583.00,29.433
584.00,29.563
585.00,29.564
586.00,29.575
587.00,29.673
588.00,29.705
589.00,29.674
590.00,29.786
591.00,29.834
592.00,29.749
593.00,29.858
594.00,29.970
595.00,30.055
596.00,30.103
597.00,30.200
598.00,30.255
599.00,30.294
600.00,30.364
601.00,30.386
602.00,30.378
603.00,30.477
604.00,30.523
605.00,30.548
606.00,30.657
607.00,30.701
608.00,30.742
609.00,30.871
610.00,31.041
611.00,30.928
612.00,30.975
613.00,31.037
614.00,31.075
615.00,31.184
616.00,31.276
617.00,31.280
618.00,31.326
619.00,31.380
620.00,31.462
621.00,31.555
622.00,31.618
623.00,31.663
624.00,31.798
625.00,31.889
626.00,31.897
627.00,31.944
628.00,32.030
629.00,32.083
630.00,32.178
631.00,32.264
632.00,32.371
633.00,32.449
634.00,32.560
635.00,32.662
636.00,32.743
637.00,32.825
638.00,32.904
639.00,33.020
640.00,33.070
641.00,33.128
642.00,33.253
643.00,33.361
644.00,33.433
645.00,33.535
646.00,33.746
647.00,33.777
648.00,33.858
649.00,33.918
650.00,33.954
651.00,34.160
652.00,34.309
653.00,34.345
654.00,34.462
655.00,34.619
656.00,34.947
657.00,34.839
658.00,34.913
659.00,35.023
660.00,35.122
661.00,35.174
662.00,35.471
663.00,35.487
664.00,35.760
665.00,35.986
666.00,35.993
667.00,36.003
668.00,36.136
669.00,36.508
670.00,36.634
671.00,36.608
672.00,36.754
673.00,36.757
674.00,36.983
675.00,37.288
676.00,37.378
677.00,37.473
678.00,37.375
679.00,37.648
680.00,37.789
681.00,37.946
682.00,38.085
683.00,38.101
684.00,38.283
685.00,38.466
686.00,38.458
687.00,38.635
688.00,38.767
689.00,38.799
690.00,39.156
691.00,39.404
692.00,39.153
693.00,39.342
694.00,39.552
695.00,39.703
696.00,39.815
697.00,39.848
698.00,39.909
699.00,40.256
700.00,40.348
701.00,40.426
702.00,40.652
703.00,40.853
704.00,41.125
705.00,40.908
706.00,40.990
707.00,41.144
708.00,41.099
709.00,41.514
710.00,41.943
711.00,41.602
712.00,41.673
713.00,41.881
714.00,41.970
715.00,42.108
716.00,42.098
717.00,42.348
718.00,42.534
719.00,42.524
720.00,42.649
721.00,46.818
722.00,46.897
723.00,46.988
724.00,46.994
725.00,47.136
726.00,47.208
727.00,47.234
728.00,47.245
729.00,47.362
730.00,47.466
731.00,47.477
732.00,47.581
733.00,47.711
734.00,47.725
735.00,47.824
736.00,47.835
737.00,47.991
738.00,48.074
739.00,48.073
740.00,48.139
741.00,48.342
742.00,48.280
743.00,48.338
744.00,48.412
745.00,48.481
746.00,48.500
747.00,48.543
748.00,48.558
749.00,48.619
750.00,48.640
751.00,48.707
752.00,48.831
753.00,48.851
754.00,48.844
755.00,48.869
756.00,48.861
757.00,48.925
758.00,48.978
759.00,49.105
760.00,49.038
761.00,49.138
762.00,49.155
763.00,49.197
764.00,49.221
765.00,49.320
766.00,49.319
767.00,49.325
768.00,49.393
769.00,49.377
770.00,49.534
771.00,49.534
772.00,49.612
773.00,49.550
774.00,49.634
775.00,49.698
776.00,49.697
777.00,49.768
778.00,49.744
779.00,49.812
780.00,49.774
781.00,49.810
782.00,49.874
783.00,49.849
784.00,49.905
785.00,49.830
786.00,49.896
787.00,49.862
788.00,49.946
789.00,49.943
790.00,49.860
791.00,50.019
792.00,49.912
793.00,49.942
794.00,49.917
795.00,50.002
796.00,50.015
797.00,49.900
798.00,50.011
799.00,49.983
800.00,50.015
801.00,49.910
802.00,49.981
803.00,50.022
804.00,49.969
805.00,50.031
806.00,49.963
807.00,50.042
808.00,50.063
809.00,49.983
810.00,49.996
811.00,49.982
812.00,50.101
813.00,49.953
814.00,50.051
815.00,49.952
816.00,49.930
817.00,50.033
818.00,49.923
819.00,50.000
820.00,49.904
821.00,50.048
822.00,49.952
823.00,49.992
824.00,49.986
825.00,49.940
826.00,49.968
827.00,50.037
828.00,49.945
829.00,49.968
830.00,49.970
831.00,52.409
832.00,52.473
833.00,52.368
834.00,52.435
835.00,52.400
836.00,52.381
837.00,52.380
838.00,52.360
839.00,52.349
840.00,52.297
841.00,52.304
842.00,52.296
843.00,52.318
844.00,52.307
845.00,52.282
846.00,52.354
847.00,52.244
848.00,52.380
849.00,52.195
850.00,52.211
851.00,52.138
852.00,52.203
853.00,52.138
854.00,52.154
855.00,52.066
856.00,52.098
857.00,52.063
858.00,52.050
859.00,52.026
860.00,52.069
861.00,52.077
862.00,52.035
863.00,52.052
864.00,52.009
865.00,52.033
866.00,51.993
867.00,51.991
868.00,52.002
869.00,51.958
870.00,52.010
871.00,51.971
872.00,52.008
873.00,51.967
874.00,52.018
875.00,51.958
876.00,51.998
877.00,51.933
878.00,51.982
879.00,51.919
880.00,51.942
881.00,51.890
882.00,51.955
883.00,51.892
884.00,51.806
885.00,51.847
886.00,51.850
887.00,51.804
888.00,51.810
889.00,51.790
890.00,51.796
891.00,51.762
892.00,51.742
893.00,51.735
894.00,51.760
895.00,51.703
896.00,51.685
897.00,51.681
898.00,51.669
899.00,51.663
900.00,51.632
901.00,51.635
902.00,51.650
903.00,51.625
904.00,51.598
905.00,51.618
906.00,51.582
907.00,51.648
908.00,51.504
909.00,51.510
910.00,51.486
911.00,51.480
912.00,51.457
913.00,51.399
914.00,51.458
915.00,51.346
916.00,51.392
917.00,51.362
918.00,51.387
919.00,51.355
920.00,51.266
921.00,51.281
922.00,51.280
923.00,51.241
924.00,51.186
925.00,51.256
926.00,51.218
927.00,51.193
928.00,51.236
929.00,51.201
930.00,51.158
931.00,51.145
932.00,51.093
933.00,51.162
934.00,51.110
935.00,51.094
936.00,51.075
937.00,51.042
938.00,51.031
939.00,51.056
940.00,51.007
941.00,51.013
942.00,50.997
943.00,50.985
944.00,50.933
945.00,50.945
946.00,50.943
947.00,50.869
948.00,50.843
949.00,50.885
950.00,50.840
951.00,50.819
952.00,50.804
953.00,50.751
954.00,50.746
955.00,50.689
956.00,50.683
957.00,50.650
958.00,50.669
959.00,50.594
960.00,50.613
961.00,50.623
962.00,50.606
963.00,50.539
964.00,50.544
965.00,50.568
966.00,50.514
967.00,50.533
968.00,50.505
969.00,50.549
970.00,50.517
971.00,50.551
972.00,50.509
973.00,50.547
974.00,50.570
975.00,50.512
976.00,50.549
977.00,50.521
978.00,50.570
979.00,50.536
980.00,50.546
981.00,50.565
982.00,50.511
983.00,50.550
984.00,50.521
985.00,50.543
986.00,50.500
987.00,50.531
988.00,50.462
989.00,50.450
990.00,50.475
991.00,50.454
992.00,50.472
993.00,50.434
994.00,50.415
995.00,50.426
996.00,50.396
997.00,50.401
998.00,50.374
999.00,50.394
1000.00,50.339
1001.00,50.336
1002.00,50.339
1003.00,50.324
1004.00,50.319
1005.00,50.270
1006.00,50.326
1007.00,50.290
1008.00,50.256
1009.00,50.243
1010.00,50.265
1011.00,50.234
1012.00,50.202
1013.00,50.215
1014.00,50.180
1015.00,50.181
1016.00,50.140
1017.00,50.140
1018.00,50.144
1019.00,50.090
1020.00,50.100
1021.00,50.068
1022.00,50.065
1023.00,50.021
1024.00,50.030
1025.00,50.031
1026.00,50.007
1027.00,49.969
1028.00,49.981
1029.00,49.961
1030.00,49.905
1031.00,49.947
1032.00,49.904
1033.00,49.895
1034.00,49.877
1035.00,49.854
1036.00,49.814
1037.00,49.821
1038.00,49.834
1039.00,49.789
1040.00,49.786
1041.00,49.729
1042.00,49.742
1043.00,49.715
1044.00,49.746
1045.00,49.728
1046.00,49.721
1047.00,49.756
1048.00,49.758
1049.00,49.770
1050.00,49.762
1051.00,49.798
1052.00,49.790
1053.00,49.793
1054.00,49.787
1055.00,49.810
1056.00,49.837
1057.00,49.826
1058.00,49.804
1059.00,49.812
1060.00,49.838
1061.00,49.814
1062.00,49.799
1063.00,49.806
1064.00,49.810
1065.00,49.785
1066.00,49.767
1067.00,49.760
1068.00,49.784
1069.00,49.746
1070.00,49.755
1071.00,49.751
1072.00,49.749
1073.00,49.721
1074.00,49.714
1075.00,49.712
1076.00,49.710
1077.00,49.687
1078.00,49.668
1079.00,49.685
1080.00,49.686
1081.00,49.669
1082.00,49.658
1083.00,49.646
1084.00,49.654
1085.00,49.650
1086.00,49.643
1087.00,49.638
1088.00,49.612
1089.00,49.610
1090.00,49.601
1091.00,49.603
1092.00,49.590
1093.00,49.580
1094.00,49.563
1095.00,49.561
1096.00,49.530
1097.00,49.543
1098.00,49.533
1099.00,49.518
1100.00,49.517
1101.00,49.525
1102.00,49.498
1103.00,49.519
1104.00,49.484
1105.00,49.489
1106.00,49.474
1107.00,49.470
1108.00,49.467
1109.00,49.458
1110.00,49.447
1111.00,49.444
1112.00,49.426
1113.00,49.421
1114.00,49.403
1115.00,49.416
1116.00,49.402
1117.00,49.387
1118.00,49.369
1119.00,49.377
1120.00,49.363
1121.00,49.363
1122.00,49.360
1123.00,49.350
1124.00,49.338
1125.00,49.345
1126.00,49.311
1127.00,49.335
1128.00,49.317
1129.00,49.297
1130.00,49.279
1131.00,49.290
1132.00,49.257
1133.00,49.269
1134.00,49.282
1135.00,49.269
1136.00,49.265
1137.00,49.259
1138.00,49.275
1139.00,49.296
1140.00,49.274
1141.00,49.286
1142.00,49.250
1143.00,49.250
1144.00,49.246
1145.00,49.244
1146.00,49.237
1147.00,49.238
1148.00,49.226
1149.00,49.250
1150.00,49.233
1151.00,49.228
1152.00,49.238
1153.00,49.234
1154.00,49.214
1155.00,49.232
1156.00,49.226
1157.00,49.230
1158.00,49.212
1159.00,49.218
1160.00,49.224
1161.00,49.234
1162.00,49.220
1163.00,49.219
1164.00,49.216
1165.00,49.203
1166.00,49.214
1167.00,49.195
1168.00,49.222
1169.00,49.203
1170.00,49.201
1171.00,49.191
1172.00,49.184
1173.00,49.173
1174.00,49.183
1175.00,49.186
1176.00,49.191
1177.00,49.197
1178.00,49.211
1179.00,49.211
1180.00,49.200
1181.00,49.216
1182.00,49.196
1183.00,49.204
1184.00,49.184
1185.00,49.205
1186.00,49.179
1187.00,49.182
1188.00,49.193
1189.00,49.183
1190.00,49.177
1191.00,49.173
1192.00,49.209
1193.00,49.199
1194.00,49.198
1195.00,49.163
1196.00,49.196
1197.00,49.200
1198.00,49.184
1199.00,49.201
1200.00,49.212
1201.00,49.215
1202.00,49.195
1203.00,49.193
1204.00,49.188
1205.00,49.196
1206.00,49.190
1207.00,49.192
1208.00,49.192
1209.00,49.202
1210.00,49.185
1211.00,49.182
1212.00,49.204
1213.00,49.173
1214.00,49.201
1215.00,49.174
1216.00,49.189
1217.00,49.183
1218.00,49.189
1219.00,49.211
1220.00,49.182
1221.00,49.214
1222.00,49.198
1223.00,49.217
1224.00,49.198
1225.00,49.178
1226.00,49.184
1227.00,49.186
1228.00,49.190
1229.00,49.195
1230.00,49.232
1231.00,49.202
1232.00,49.250
1233.00,49.252
1234.00,49.247
1235.00,49.249
1236.00,49.238
1237.00,49.257
1238.00,49.245
1239.00,49.258
1240.00,49.243
1241.00,49.260
1242.00,49.245
1243.00,49.257
1244.00,49.236
1245.00,49.274
1246.00,49.290
1247.00,49.287
1248.00,49.306
1249.00,49.299
1250.00,49.288
1251.00,49.304
1252.00,49.301
1253.00,49.289
1254.00,49.343
1255.00,49.315
1256.00,49.308
1257.00,49.287
1258.00,49.335
1259.00,49.322
1260.00,49.342
1261.00,49.341
1262.00,49.334
1263.00,49.336
1264.00,49.342
1265.00,49.345
1266.00,49.371
1267.00,49.390
1268.00,49.394
1269.00,49.392
1270.00,49.402
1271.00,49.401
1272.00,49.387
1273.00,49.412
1274.00,49.418
1275.00,49.419
1276.00,49.424
1277.00,49.440
1278.00,49.449
1279.00,49.439
1280.00,49.422
1281.00,49.453
1282.00,49.453
1283.00,49.449
1284.00,49.450
1285.00,49.443
1286.00,49.461
1287.00,49.479
1288.00,49.489
1289.00,49.472
1290.00,49.507
1291.00,49.505
1292.00,49.504
1293.00,49.505
1294.00,49.504
1295.00,49.532
1296.00,49.535
1297.00,49.532
1298.00,49.574
1299.00,49.547
1300.00,49.582
1301.00,49.556
1302.00,49.594
1303.00,49.582
1304.00,49.569
1305.00,49.604
1306.00,49.620
1307.00,49.625
1308.00,49.617
1309.00,49.645
1310.00,49.634
1311.00,49.618
1312.00,49.656
1313.00,49.648
1314.00,49.686
1315.00,49.705
1316.00,49.670
1317.00,49.722
1318.00,49.713
1319.00,49.714
1320.00,49.722
1321.00,49.869
1322.00,49.876
1323.00,49.854
1324.00,49.843
1325.00,49.840
1326.00,49.860
1327.00,49.839
1328.00,49.852
1329.00,49.847
1330.00,49.856
1331.00,49.880
1332.00,49.857
1333.00,49.874
1334.00,49.917
1335.00,49.912
1336.00,49.952
1337.00,49.968
1338.00,50.034
1339.00,50.093
1340.00,50.146
1341.00,50.207
1342.00,50.278
1343.00,50.302
1344.00,50.361
1345.00,50.429
1346.00,50.445
1347.00,50.476
1348.00,50.533
1349.00,50.527
1350.00,50.559
1351.00,50.555
1352.00,50.572
1353.00,50.582
1354.00,50.575
1355.00,50.555
1356.00,50.590
1357.00,50.573
1358.00,50.655
1359.00,50.583
1360.00,50.620
1361.00,50.596
1362.00,50.614
1363.00,50.667
1364.00,50.756
1365.00,50.622
1366.00,50.719
1367.00,50.698
1368.00,50.625
1369.00,50.689
1370.00,50.664
1371.00,50.615
1372.00,50.625
1373.00,50.648
1374.00,50.670
1375.00,50.639
1376.00,50.610
1377.00,50.594
1378.00,50.706
1379.00,50.619
1380.00,50.651
1381.00,50.678
1382.00,50.623
1383.00,50.670
1384.00,50.607
1385.00,50.650
1386.00,50.665
1387.00,50.664
1388.00,50.613
1389.00,50.645
1390.00,50.641
1391.00,50.671
1392.00,50.629
1393.00,50.571
1394.00,50.637
1395.00,50.636
1396.00,50.566
1397.00,50.597
1398.00,50.596
1399.00,50.600
1400.00,50.613
1401.00,50.616
1402.00,50.629
1403.00,50.654
1404.00,50.669
1405.00,50.679
1406.00,50.701
1407.00,50.686
1408.00,50.725
1409.00,50.685
1410.00,50.717
1411.00,50.729
1412.00,50.761
1413.00,50.726
1414.00,50.757
1415.00,50.765
1416.00,50.789
1417.00,50.783
1418.00,50.796
1419.00,50.826
1420.00,50.815
1421.00,50.848
1422.00,50.854
1423.00,50.885
1424.00,50.872
1425.00,50.929
1426.00,50.893
1427.00,50.947
1428.00,50.939
1429.00,50.944
1430.00,50.975
1431.00,50.994
1432.00,51.031
1433.00,51.054
1434.00,51.032
1435.00,51.098
1436.00,51.094
1437.00,51.103
1438.00,51.109
1439.00,51.130
1440.00,51.143
1441.00,51.160
1442.00,51.169
1443.00,51.189
1444.00,51.271
1445.00,51.216
1446.00,51.258
1447.00,51.280
1448.00,51.309
1449.00,51.335
1450.00,51.343
1451.00,51.353
1452.00,51.378
1453.00,51.362
1454.00,51.412
1455.00,51.432
1456.00,51.429
1457.00,51.445
1458.00,51.479
1459.00,51.479
1460.00,51.526
1461.00,51.507
1462.00,51.543
1463.00,51.548
1464.00,51.546
1465.00,51.578
1466.00,51.580
1467.00,51.581
1468.00,51.665
1469.00,51.619
1470.00,51.646
1471.00,51.673
1472.00,51.684
1473.00,51.695
1474.00,51.745
1475.00,51.744
1476.00,51.766
1477.00,51.749
1478.00,51.769
1479.00,51.811
1480.00,51.812
1481.00,51.813
1482.00,51.849
1483.00,51.848
1484.00,51.869
1485.00,51.886
1486.00,51.885
1487.00,51.913
1488.00,51.931
1489.00,51.895
1490.00,51.946
1491.00,51.953
1492.00,51.972
1493.00,51.964
1494.00,52.001
1495.00,51.979
1496.00,52.026
1497.00,52.002
1498.00,52.033
1499.00,52.060
1500.00,52.062
1501.00, 
1502.00, 
1503.00, 
1504.00, 
1505.00, 
1506.00, 
1507.00, 
1508.00, 
1509.00, 
1510.00, 
1511.00, 
1512.00, 
1513.00, 
1514.00, 
1515.00, 
1516.00, 
1517.00, 
1518.00, 
1519.00, 
1520.00, 
1521.00, 
1522.00, 
1523.00, 
1524.00, 
1525.00, 
1526.00, 
1527.00, 
1528.00, 
1529.00, 
1530.00, 
1531.00, 
1532.00, 
1533.00, 
1534.00, 
1535.00, 
1536.00, 
1537.00, 
1538.00, 
1539.00, 
1540.00, 
1541.00, 
1542.00, 
1543.00, 
1544.00, 
1545.00, 
1546.00, 
1547.00, 
1548.00, 
1549.00, 
1550.00, 
1551.00, 
1552.00, 
1553.00, 
1554.00, 
1555.00, 
1556.00, 
1557.00, 
1558.00, 
1559.00, 
1560.00, 
1561.00, 
1562.00, 
1563.00, 
1564.00, 
1565.00, 
1566.00, 
1567.00, 
1568.00, 
1569.00, 
1570.00, 
1571.00, 
1572.00, 
1573.00, 
1574.00, 
1575.00, 
1576.00, 
1577.00, 
1578.00, 
1579.00, 
1580.00, 
1581.00, 
1582.00, 
1583.00, 
1584.00, 
1585.00, 
1586.00, 
1587.00, 
1588.00, 
1589.00, 
1590.00, 
1591.00, 
1592.00, 
1593.00, 
1594.00, 
1595.00, 
1596.00, 
1597.00, 
1598.00, 
1599.00, 
1600.00, 
1601.00, 
1602.00, 
1603.00, 
1604.00, 
1605.00, 
1606.00, 
1607.00, 
1608.00, 
1609.00, 
1610.00, 
1611.00, 
1612.00, 
1613.00, 
1614.00, 
1615.00, 
1616.00, 
1617.00, 
1618.00, 
1619.00, 
1620.00, 
1621.00, 
1622.00, 
1623.00, 
1624.00, 
1625.00, 
1626.00, 
1627.00, 
1628.00, 
1629.00, 
1630.00, 
1631.00, 
1632.00, 
1633.00, 
1634.00, 
1635.00, 
1636.00, 
1637.00, 
1638.00, 
1639.00, 
1640.00, 
1641.00, 
1642.00, 
1643.00, 
1644.00, 
1645.00, 
1646.00, 
1647.00, 
1648.00, 
1649.00, 
1650.00, 
1651.00, 
1652.00, 
1653.00, 
1654.00, 
1655.00, 
1656.00, 
1657.00, 
1658.00, 
1659.00, 
1660.00, 
1661.00, 
1662.00, 
1663.00, 
1664.00, 
1665.00, 
1666.00, 
1667.00, 
1668.00, 
1669.00, 
1670.00, 
1671.00, 
1672.00, 
1673.00, 
1674.00, 
1675.00, 
1676.00, 
1677.00, 
1678.00, 
1679.00, 
1680.00, 
1681.00, 
1682.00, 
1683.00, 
1684.00, 
1685.00, 
1686.00, 
1687.00, 
1688.00, 
1689.00, 
1690.00, 
1691.00, 
1692.00, 
1693.00, 
1694.00, 
1695.00, 
1696.00, 
1697.00, 
1698.00, 
1699.00, 
1700.00, 
1701.00, 
1702.00, 
1703.00, 
1704.00, 
1705.00, 
1706.00, 
1707.00, 
1708.00, 
1709.00, 
1710.00, 
1711.00, 
1712.00, 
1713.00, 
1714.00, 
1715.00, 
1716.00, 
1717.00, 
1718.00, 
1719.00, 
1720.00, 
1721.00, 
1722.00, 
1723.00, 
1724.00, 
1725.00, 
1726.00, 
1727.00, 
1728.00, 
1729.00, 
1730.00, 
1731.00, 
1732.00, 
1733.00, 
1734.00, 
1735.00, 
1736.00, 
1737.00, 
1738.00, 
1739.00, 
1740.00, 
1741.00, 
1742.00, 
1743.00, 
1744.00, 
1745.00, 
1746.00, 
1747.00, 
1748.00, 
1749.00, 
1750.00, 
1751.00, 
1752.00, 
1753.00, 
1754.00, 
1755.00, 
1756.00, 
1757.00, 
1758.00, 
1759.00, 
1760.00, 
1761.00, 
1762.00, 
1763.00, 
1764.00, 
1765.00, 
1766.00, 
1767.00, 
1768.00, 
1769.00, 
1770.00, 
1771.00, 
1772.00, 
1773.00, 
1774.00, 
1775.00, 
1776.00, 
1777.00, 
1778.00, 
1779.00, 
1780.00, 
1781.00, 
1782.00, 
1783.00, 
1784.00, 
1785.00, 
1786.00, 
1787.00, 
1788.00, 
1789.00, 
1790.00, 
1791.00, 
1792.00, 
1793.00, 
1794.00, 
1795.00, 
1796.00, 
1797.00, 
1798.00, 
1799.00, 
1800.00, 
1801.00, 
1802.00, 
1803.00, 
1804.00, 
1805.00, 
1806.00, 
1807.00, 
1808.00, 
1809.00, 
1810.00, 
1811.00, 
1812.00, 
1813.00, 
1814.00, 
1815.00, 
1816.00, 
1817.00, 
1818.00, 
1819.00, 
1820.00, 
1821.00, 
1822.00, 
1823.00, 
1824.00, 
1825.00, 
1826.00, 
1827.00, 
1828.00, 
1829.00, 
1830.00, 
1831.00, 
1832.00, 
1833.00, 
1834.00, 
1835.00, 
1836.00, 
1837.00, 
1838.00, 
1839.00, 
1840.00, 
1841.00, 
1842.00, 
1843.00, 
1844.00, 
1845.00, 
1846.00, 
1847.00, 
1848.00, 
1849.00, 
1850.00, 
1851.00, 
1852.00, 
1853.00, 
1854.00, 
1855.00, 
1856.00, 
1857.00, 
1858.00, 
1859.00, 
1860.00, 
1861.00, 
1862.00, 
1863.00, 
1864.00, 
1865.00, 
1866.00, 
1867.00, 
1868.00, 
1869.00, 
1870.00, 
1871.00, 
1872.00, 
1873.00, 
1874.00, 
1875.00, 
1876.00, 
1877.00, 
1878.00, 
1879.00, 
1880.00, 
1881.00, 
1882.00, 
1883.00, 
1884.00, 
1885.00, 
1886.00, 
1887.00, 
1888.00, 
1889.00, 
1890.00, 
1891.00, 
1892.00, 
1893.00, 
1894.00, 
1895.00, 
1896.00, 
1897.00, 
1898.00, 
1899.00, 
1900.00, 
1901.00, 
1902.00, 
1903.00, 
1904.00, 
1905.00, 
1906.00, 
1907.00, 
1908.00, 
1909.00, 
1910.00, 
1911.00, 
1912.00, 
1913.00, 
1914.00, 
1915.00, 
1916.00, 
1917.00, 
1918.00, 
1919.00, 
1920.00, 
1921.00, 
1922.00, 
1923.00, 
1924.00, 
1925.00, 
1926.00, 
1927.00, 
1928.00, 
1929.00, 
1930.00, 
1931.00, 
1932.00, 
1933.00, 
1934.00, 
1935.00, 
1936.00, 
1937.00, 
1938.00, 
1939.00, 
1940.00, 
1941.00, 
1942.00, 
1943.00, 
1944.00, 
1945.00, 
1946.00, 
1947.00, 
1948.00, 
1949.00, 
1950.00, 
1951.00, 
1952.00, 
1953.00, 
1954.00, 
1955.00, 
1956.00, 
1957.00, 
1958.00, 
1959.00, 
1960.00, 
1961.00, 
1962.00, 
1963.00, 
1964.00, 
1965.00, 
1966.00, 
1967.00, 
1968.00, 
1969.00, 
1970.00, 
1971.00, 
1972.00, 
1973.00, 
1974.00, 
1975.00, 
1976.00, 
1977.00, 
1978.00, 
1979.00, 
1980.00, 
1981.00, 
1982.00, 
1983.00, 
1984.00, 
1985.00, 
1986.00, 
1987.00, 
1988.00, 
1989.00, 
1990.00, 
1991.00, 
1992.00, 
1993.00, 
1994.00, 
1995.00, 
1996.00, 
1997.00, 
1998.00, 
1999.00, 
2000.00, 
2001.00, 
2002.00, 
2003.00, 
2004.00, 
2005.00, 
2006.00, 
2007.00, 
2008.00, 
2009.00, 
2010.00, 
2011.00, 
2012.00, 
2013.00, 
2014.00, 
2015.00, 
2016.00, 
2017.00, 
2018.00, 
2019.00, 
2020.00, 
2021.00, 
2022.00, 
2023.00, 
2024.00, 
2025.00, 
2026.00, 
2027.00, 
2028.00, 
2029.00, 
2030.00, 
2031.00, 
2032.00, 
2033.00, 
2034.00, 
2035.00, 
2036.00, 
2037.00, 
2038.00, 
2039.00, 
2040.00, 
2041.00, 
2042.00, 
2043.00, 
2044.00, 
2045.00, 
2046.00, 
2047.00, 
2048.00, 
2049.00, 
2050.00, 
2051.00, 
2052.00, 
2053.00, 
2054.00, 
2055.00, 
2056.00, 
2057.00, 
2058.00, 
2059.00, 
2060.00, 
2061.00, 
2062.00, 
2063.00, 
2064.00, 
2065.00, 
2066.00, 
2067.00, 
2068.00, 
2069.00, 
2070.00, 
2071.00, 
2072.00, 
2073.00, 
2074.00, 
2075.00, 
2076.00, 
2077.00, 
2078.00, 
2079.00, 
2080.00, 
2081.00, 
2082.00, 
2083.00, 
2084.00, 
2085.00, 
2086.00, 
2087.00, 
2088.00, 
2089.00, 
2090.00, 
2091.00, 
2092.00, 
2093.00, 
2094.00, 
2095.00, 
2096.00, 
2097.00, 
2098.00, 
2099.00, 
2100.00, 
2101.00, 
2102.00, 
2103.00, 
2104.00, 
2105.00, 
2106.00, 
2107.00, 
2108.00, 
2109.00, 
2110.00, 
2111.00, 
2112.00, 
2113.00, 
2114.00, 
2115.00, 
2116.00, 
2117.00, 
2118.00, 
2119.00, 
2120.00, 
2121.00, 
2122.00, 
2123.00, 
2124.00, 
2125.00, 
2126.00, 
2127.00, 
2128.00, 
2129.00, 
2130.00, 
2131.00, 
2132.00, 
2133.00, 
2134.00, 
2135.00, 
2136.00, 
2137.00, 
2138.00, 
2139.00, 
2140.00, 
2141.00, 
2142.00, 
2143.00, 
2144.00, 
2145.00, 
2146.00, 
2147.00, 
2148.00, 
2149.00, 
2150.00, 
2151.00, 
2152.00, 
2153.00, 
2154.00, 
2155.00, 
2156.00, 
2157.00, 
2158.00, 
2159.00, 
2160.00, 
2161.00, 
2162.00, 
2163.00, 
2164.00, 
2165.00, 
2166.00, 
2167.00, 
2168.00, 
2169.00, 
2170.00, 
2171.00, 
2172.00, 
2173.00, 
2174.00, 
2175.00, 
2176.00, 
2177.00, 
2178.00, 
2179.00, 
2180.00, 
2181.00, 
2182.00, 
2183.00, 
2184.00, 
2185.00, 
2186.00, 
2187.00, 
2188.00, 
2189.00, 
2190.00, 
2191.00, 
2192.00, 
2193.00, 
2194.00, 
2195.00, 
2196.00, 
2197.00, 
2198.00, 
2199.00, 
2200.00, 
2201.00, 
2202.00, 
2203.00, 
2204.00, 
2205.00, 
2206.00, 
2207.00, 
2208.00, 
2209.00, 
2210.00, 
2211.00, 
2212.00, 
2213.00, 
2214.00, 
2215.00, 
2216.00, 
2217.00, 
2218.00, 
2219.00, 
2220.00, 
2221.00, 
2222.00, 
2223.00, 
2224.00, 
2225.00, 
2226.00, 
2227.00, 
2228.00, 
2229.00, 
2230.00, 
2231.00, 
2232.00, 
2233.00, 
2234.00, 
2235.00, 
2236.00, 
2237.00, 
2238.00, 
2239.00, 
2240.00, 
2241.00, 
2242.00, 
2243.00, 
2244.00, 
2245.00, 
2246.00, 
2247.00, 
2248.00, 
2249.00, 
2250.00, 
2251.00, 
2252.00, 
2253.00, 
2254.00, 
2255.00, 
2256.00, 
2257.00, 
2258.00, 
2259.00, 
2260.00, 
2261.00, 
2262.00, 
2263.00, 
2264.00, 
2265.00, 
2266.00, 
2267.00, 
2268.00, 
2269.00, 
2270.00, 
2271.00, 
2272.00, 
2273.00, 
2274.00, 
2275.00, 
2276.00, 
2277.00, 
2278.00, 
2279.00, 
2280.00, 
2281.00, 
2282.00, 
2283.00, 
2284.00, 
2285.00, 
2286.00, 
2287.00, 
2288.00, 
2289.00, 
2290.00, 
2291.00, 
2292.00, 
2293.00, 
2294.00, 
2295.00, 
2296.00, 
2297.00, 
2298.00, 
2299.00, 
2300.00, 
2301.00, 
2302.00, 
2303.00, 
2304.00, 
2305.00, 
2306.00, 
2307.00, 
2308.00, 
2309.00, 
2310.00, 
2311.00, 
2312.00, 
2313.00, 
2314.00, 
2315.00, 
2316.00, 
2317.00, 
2318.00, 
2319.00, 
2320.00, 
2321.00, 
2322.00, 
2323.00, 
2324.00, 
2325.00, 
2326.00, 
2327.00, 
2328.00, 
2329.00, 
2330.00, 
2331.00, 
2332.00, 
2333.00, 
2334.00, 
2335.00, 
2336.00, 
2337.00, 
2338.00, 
2339.00, 
2340.00, 
2341.00, 
2342.00, 
2343.00, 
2344.00, 
2345.00, 
2346.00, 
2347.00, 
2348.00, 
2349.00, 
2350.00, 
2351.00, 
2352.00, 
2353.00, 
2354.00, 
2355.00, 
2356.00, 
2357.00, 
2358.00, 
2359.00, 
2360.00, 
2361.00, 
2362.00, 
2363.00, 
2364.00, 
2365.00, 
2366.00, 
2367.00, 
2368.00, 
2369.00, 
2370.00, 
2371.00, 
2372.00, 
2373.00, 
2374.00, 
2375.00, 
2376.00, 
2377.00, 
2378.00, 
2379.00, 
2380.00, 
2381.00, 
2382.00, 
2383.00, 
2384.00, 
2385.00, 
2386.00, 
2387.00, 
2388.00, 
2389.00, 
2390.00, 
2391.00, 
2392.00, 
2393.00, 
2394.00, 
2395.00, 
2396.00, 
2397.00, 
2398.00, 
2399.00, 
2400.00, 
2401.00, 
2402.00, 
2403.00, 
2404.00, 
2405.00, 
2406.00, 
2407.00, 
2408.00, 
2409.00, 
2410.00, 
2411.00, 
2412.00, 
2413.00, 
2414.00, 
2415.00, 
2416.00, 
2417.00, 
2418.00, 
2419.00, 
2420.00, 
2421.00, 
2422.00, 
2423.00, 
2424.00, 
2425.00, 
2426.00, 
2427.00, 
2428.00, 
2429.00, 
2430.00, 
2431.00, 
2432.00, 
2433.00, 
2434.00, 
2435.00, 
2436.00, 
2437.00, 
2438.00, 
2439.00, 
2440.00, 
2441.00, 
2442.00, 
2443.00, 
2444.00, 
2445.00, 
2446.00, 
2447.00, 
2448.00, 
2449.00, 
2450.00, 
2451.00, 
2452.00, 
2453.00, 
2454.00, 
2455.00, 
2456.00, 
2457.00, 
2458.00, 
2459.00, 
2460.00, 
2461.00, 
2462.00, 
2463.00, 
2464.00, 
2465.00, 
2466.00, 
2467.00, 
2468.00, 
2469.00, 
2470.00, 
2471.00, 
2472.00, 
2473.00, 
2474.00, 
2475.00, 
2476.00, 
2477.00, 
2478.00, 
2479.00, 
2480.00, 
2481.00, 
2482.00, 
2483.00, 
2484.00, 
2485.00, 
2486.00, 
2487.00, 
2488.00, 
2489.00, 
2490.00, 
2491.00, 
2492.00, 
2493.00, 
2494.00, 
2495.00, 
2496.00, 
2497.00, 
2498.00, 
2499.00, 
2500.00, 
2501.00, 
2502.00, 
2503.00, 
2504.00, 
2505.00, 
2506.00, 
2507.00, 
2508.00, 
2509.00, 
2510.00, 
2511.00, 
2512.00, 
2513.00, 
2514.00, 
2515.00, 
2516.00, 
2517.00, 
2518.00, 
2519.00, 
2520.00, 
2521.00, 
2522.00, 
2523.00, 
2524.00, 
2525.00, 
2526.00, 
2527.00, 
2528.00, 
2529.00, 
2530.00, 
2531.00, 
2532.00, 
2533.00, 
2534.00, 
2535.00, 
2536.00, 
2537.00, 
2538.00, 
2539.00, 
2540.00, 
2541.00, 
2542.00, 
2543.00, 
2544.00, 
2545.00, 
2546.00, 
2547.00, 
2548.00, 
2549.00, 
2550.00, 
2551.00, 
2552.00, 
2553.00, 
2554.00, 
2555.00, 
2556.00, 
2557.00, 
2558.00, 
2559.00, 
2560.00, 
2561.00, 
2562.00, 
2563.00, 
2564.00, 
2565.00, 
2566.00, 
2567.00, 
2568.00, 
2569.00, 
2570.00, 
2571.00, 
2572.00, 
2573.00, 
2574.00, 
2575.00, 
2576.00, 
2577.00, 
2578.00, 
2579.00, 
2580.00, 
2581.00, 
2582.00, 
2583.00, 
2584.00, 
2585.00, 
2586.00, 
2587.00, 
2588.00, 
2589.00, 
2590.00, 
2591.00, 
2592.00, 
2593.00, 
2594.00, 
2595.00, 
2596.00, 
2597.00, 
2598.00, 
2599.00, 
2600.00, 
