"2aP2 - RawData"
"Wavelength nm.","T%"
200.00,0.001
201.00,-0.002
202.00,0.001
203.00,0.004
204.00,-0.002
205.00,0.000
206.00,0.001
207.00,0.003
208.00,0.004
209.00,0.001
210.00,0.003
211.00,0.003
212.00,0.002
213.00,0.002
214.00,0.002
215.00,-0.000
216.00,-0.000
217.00,-0.000
218.00,-0.000
219.00,0.002
220.00,-0.000
221.00,0.002
222.00,0.003
223.00,0.002
224.00,0.001
225.00,0.002
226.00,0.002
227.00,0.003
228.00,0.002
229.00,0.002
230.00,0.002
231.00,0.002
232.00,0.001
233.00,0.003
234.00,0.002
235.00,0.002
236.00,-0.002
237.00,0.002
238.00,0.002
239.00,0.003
240.00,0.001
241.00,0.002
242.00,0.001
243.00,0.000
244.00,0.001
245.00,0.002
246.00,0.001
247.00,0.000
248.00,0.001
249.00,0.001
250.00,-0.001
251.00,-0.002
252.00,0.001
253.00,0.000
254.00,0.000
255.00,0.001
256.00,-0.001
257.00,0.002
258.00,0.001
259.00,0.001
260.00,0.000
261.00,-0.001
262.00,-0.000
263.00,0.001
264.00,0.001
265.00,0.002
266.00,-0.001
267.00,0.001
268.00,0.000
269.00,0.000
270.00,-0.001
271.00,0.001
272.00,0.001
273.00,-0.001
274.00,0.002
275.00,-0.000
276.00,-0.002
277.00,-0.000
278.00,0.001
279.00,0.001
280.00,-0.001
281.00,-0.000
282.00,-0.001
283.00,0.001
284.00,-0.000
285.00,0.002
286.00,-0.000
287.00,0.001
288.00,0.001
289.00,0.001
290.00,-0.000
291.00,-0.001
292.00,0.002
293.00,0.001
294.00,-0.001
295.00,0.000
296.00,0.001
297.00,-0.001
298.00,-0.000
299.00,0.001
300.00,0.001
301.00,0.002
302.00,0.002
303.00,0.003
304.00,0.008
305.00,0.012
306.00,0.018
307.00,0.026
308.00,0.040
309.00,0.062
310.00,0.082
311.00,0.112
312.00,0.154
313.00,0.210
314.00,0.272
315.00,0.358
316.00,0.455
317.00,0.570
318.00,0.687
319.00,0.861
320.00,1.039
321.00,1.238
322.00,1.464
323.00,1.718
324.00,1.985
325.00,2.254
326.00,2.541
327.00,2.868
328.00,3.200
329.00,3.510
330.00,3.877
331.00,4.225
332.00,4.590
333.00,4.956
334.00,5.289
335.00,5.666
336.00,6.032
337.00,6.390
338.00,6.750
339.00,7.094
340.00,7.386
341.00,7.742
342.00,8.015
343.00,8.310
344.00,8.629
345.00,8.866
346.00,9.086
347.00,9.314
348.00,9.542
349.00,9.726
350.00,9.948
351.00,10.104
352.00,10.251
353.00,10.407
354.00,10.566
355.00,10.677
356.00,10.776
357.00,10.862
358.00,10.982
359.00,11.112
360.00,11.186
361.00,11.202
362.00,11.271
363.00,11.367
364.00,11.367
365.00,11.360
366.00,11.412
367.00,11.450
368.00,11.409
369.00,11.435
370.00,11.479
371.00,11.455
372.00,11.410
373.00,11.430
374.00,11.408
375.00,11.344
376.00,11.308
377.00,11.253
378.00,11.193
379.00,11.160
380.00,11.122
381.00,11.110
382.00,11.056
383.00,11.042
384.00,11.050
385.00,11.019
386.00,10.992
387.00,11.007
388.00,11.026
389.00,10.978
390.00,10.975
391.00,10.967
392.00,10.951
393.00,10.933
394.00,10.933
395.00,10.926
396.00,10.883
397.00,10.891
398.00,10.855
399.00,10.861
400.00,10.841
401.00,10.831
402.00,10.866
403.00,10.850
404.00,10.812
405.00,10.785
406.00,10.782
407.00,10.761
408.00,10.766
409.00,10.695
410.00,10.696
411.00,10.693
412.00,10.664
413.00,10.694
414.00,10.685
415.00,10.694
416.00,10.699
417.00,10.701
418.00,10.713
419.00,10.765
420.00,10.791
421.00,10.753
422.00,10.778
423.00,10.805
424.00,10.834
425.00,10.851
426.00,10.881
427.00,10.908
428.00,10.939
429.00,10.979
430.00,11.025
431.00,11.078
432.00,11.103
433.00,11.158
434.00,11.196
435.00,11.248
436.00,11.318
437.00,11.366
438.00,11.412
439.00,11.480
440.00,11.517
441.00,11.630
442.00,11.683
443.00,11.726
444.00,11.818
445.00,11.910
446.00,11.977
447.00,12.053
448.00,12.158
449.00,12.228
450.00,12.340
451.00,12.421
452.00,12.492
453.00,12.594
454.00,12.675
455.00,12.780
456.00,12.890
457.00,12.999
458.00,13.097
459.00,13.204
460.00,13.338
461.00,13.433
462.00,13.556
463.00,13.673
464.00,13.802
465.00,13.907
466.00,14.038
467.00,14.158
468.00,14.251
469.00,14.383
470.00,14.479
471.00,14.591
472.00,14.728
473.00,14.835
474.00,14.961
475.00,15.076
476.00,15.188
477.00,15.314
478.00,15.457
479.00,15.610
480.00,15.742
481.00,15.896
482.00,16.035
483.00,16.216
484.00,16.309
485.00,16.467
486.00,16.608
487.00,16.758
488.00,16.901
489.00,17.068
490.00,17.214
491.00,17.361
492.00,17.519
493.00,17.726
494.00,17.877
495.00,17.907
496.00,18.057
497.00,18.185
498.00,18.319
499.00,18.471
500.00,18.624
501.00,18.714
502.00,18.912
503.00,19.063
504.00,19.126
505.00,19.238
506.00,19.412
507.00,19.536
508.00,19.714
509.00,19.833
510.00,19.952
511.00,20.079
512.00,20.202
513.00,20.424
514.00,20.546
515.00,20.669
516.00,20.813
517.00,20.933
518.00,21.086
519.00,21.146
520.00,21.240
521.00,21.373
522.00,21.452
523.00,21.517
524.00,21.645
525.00,21.817
526.00,21.949
527.00,21.989
528.00,22.150
529.00,22.307
530.00,22.435
531.00,22.530
532.00,22.624
533.00,22.769
534.00,22.854
535.00,22.966
536.00,23.057
537.00,23.131
538.00,23.240
539.00,23.298
540.00,23.432
541.00,23.475
542.00,23.565
543.00,23.667
544.00,23.718
545.00,23.827
546.00,23.855
547.00,23.994
548.00,24.103
549.00,24.155
550.00,24.243
551.00,24.333
552.00,24.408
553.00,24.483
554.00,24.580
555.00,24.638
556.00,24.682
557.00,24.795
558.00,24.836
559.00,24.940
560.00,25.033
561.00,25.090
562.00,25.205
563.00,25.212
564.00,25.289
565.00,25.360
566.00,25.332
567.00,25.419
568.00,25.500
569.00,25.586
570.00,25.623
571.00,25.673
572.00,25.716
573.00,25.715
574.00,25.775
575.00,25.824
576.00,25.852
577.00,25.930
578.00,26.010
579.00,26.087
580.00,26.132
581.00,26.259
582.00,26.383
583.00,26.399
584.00,26.462
585.00,26.543
586.00,26.590
587.00,26.707
588.00,26.714
589.00,26.715
590.00,26.834
591.00,26.883
592.00,26.895
593.00,26.909
594.00,26.995
595.00,27.109
596.00,27.178
597.00,27.292
598.00,27.304
599.00,27.358
600.00,27.389
601.00,27.476
602.00,27.472
603.00,27.589
604.00,27.642
605.00,27.681
606.00,27.814
607.00,27.848
608.00,27.836
609.00,27.962
610.00,28.133
611.00,27.930
612.00,28.093
613.00,28.272
614.00,28.252
615.00,28.370
616.00,28.434
617.00,28.471
618.00,28.509
619.00,28.607
620.00,28.670
621.00,28.767
622.00,28.840
623.00,28.924
624.00,29.018
625.00,29.092
626.00,29.135
627.00,29.282
628.00,29.371
629.00,29.448
630.00,29.542
631.00,29.625
632.00,29.715
633.00,29.825
634.00,29.968
635.00,30.100
636.00,30.194
637.00,30.271
638.00,30.354
639.00,30.503
640.00,30.562
641.00,30.639
642.00,30.776
643.00,30.881
644.00,30.991
645.00,31.127
646.00,31.258
647.00,31.383
648.00,31.477
649.00,31.571
650.00,31.628
651.00,31.838
652.00,31.968
653.00,32.004
654.00,32.134
655.00,32.398
656.00,32.677
657.00,32.602
658.00,32.713
659.00,32.866
660.00,33.019
661.00,33.079
662.00,33.343
663.00,33.346
664.00,33.676
665.00,33.869
666.00,33.873
667.00,33.920
668.00,34.065
669.00,34.401
670.00,34.655
671.00,34.647
672.00,34.731
673.00,34.909
674.00,35.062
675.00,35.247
676.00,35.522
677.00,35.642
678.00,35.595
679.00,35.773
680.00,35.907
681.00,36.145
682.00,36.293
683.00,36.427
684.00,36.667
685.00,36.812
686.00,36.778
687.00,36.981
688.00,37.060
689.00,37.163
690.00,37.540
691.00,37.864
692.00,37.780
693.00,37.815
694.00,38.006
695.00,38.219
696.00,38.310
697.00,38.358
698.00,38.619
699.00,39.004
700.00,39.009
701.00,39.072
702.00,39.346
703.00,39.535
704.00,39.767
705.00,39.776
706.00,39.879
707.00,40.037
708.00,40.001
709.00,40.425
710.00,40.763
711.00,40.527
712.00,40.615
713.00,40.864
714.00,40.980
715.00,41.173
716.00,41.208
717.00,41.450
718.00,41.595
719.00,41.659
720.00,41.840
721.00,46.000
722.00,46.066
723.00,46.166
724.00,46.226
725.00,46.330
726.00,46.449
727.00,46.516
728.00,46.667
729.00,46.754
730.00,46.858
731.00,46.948
732.00,47.005
733.00,47.209
734.00,47.219
735.00,47.415
736.00,47.416
737.00,47.618
738.00,47.671
739.00,47.727
740.00,47.860
741.00,47.994
742.00,48.067
743.00,48.071
744.00,48.182
745.00,48.278
746.00,48.381
747.00,48.368
748.00,48.428
749.00,48.505
750.00,48.544
751.00,48.680
752.00,48.676
753.00,48.782
754.00,48.806
755.00,48.876
756.00,48.881
757.00,48.993
758.00,49.011
759.00,49.163
760.00,49.193
761.00,49.277
762.00,49.289
763.00,49.383
764.00,49.443
765.00,49.579
766.00,49.524
767.00,49.560
768.00,49.682
769.00,49.726
770.00,49.814
771.00,49.859
772.00,49.918
773.00,49.916
774.00,50.028
775.00,50.129
776.00,50.095
777.00,50.169
778.00,50.258
779.00,50.333
780.00,50.234
781.00,50.260
782.00,50.343
783.00,50.328
784.00,50.419
785.00,50.415
786.00,50.505
787.00,50.473
788.00,50.593
789.00,50.649
790.00,50.508
791.00,50.689
792.00,50.579
793.00,50.672
794.00,50.683
795.00,50.695
796.00,50.723
797.00,50.606
798.00,50.799
799.00,50.762
800.00,50.771
801.00,50.711
802.00,50.796
803.00,50.820
804.00,50.775
805.00,50.925
806.00,50.803
807.00,50.936
808.00,50.854
809.00,50.891
810.00,50.880
811.00,50.877
812.00,51.062
813.00,50.879
814.00,50.843
815.00,50.859
816.00,50.885
817.00,51.003
818.00,50.927
819.00,50.890
820.00,50.853
821.00,50.896
822.00,50.849
823.00,50.906
824.00,50.946
825.00,50.841
826.00,50.942
827.00,50.982
828.00,50.962
829.00,50.998
830.00,51.017
831.00,53.275
832.00,53.336
833.00,53.288
834.00,53.328
835.00,53.214
836.00,53.272
837.00,53.236
838.00,53.282
839.00,53.271
840.00,53.210
841.00,53.256
842.00,53.223
843.00,53.243
844.00,53.290
845.00,53.242
846.00,53.269
847.00,53.192
848.00,53.259
849.00,53.154
850.00,53.175
851.00,53.103
852.00,53.155
853.00,53.112
854.00,53.141
855.00,53.055
856.00,53.089
857.00,53.086
858.00,53.062
859.00,53.056
860.00,53.072
861.00,53.053
862.00,52.961
863.00,53.105
864.00,52.997
865.00,53.073
866.00,52.988
867.00,53.023
868.00,52.998
869.00,52.986
870.00,53.021
871.00,53.007
872.00,53.031
873.00,53.011
874.00,53.044
875.00,53.026
876.00,53.049
877.00,52.942
878.00,53.080
879.00,52.955
880.00,52.977
881.00,52.969
882.00,53.023
883.00,52.973
884.00,52.935
885.00,52.914
886.00,52.932
887.00,52.895
888.00,52.883
889.00,52.873
890.00,52.889
891.00,52.838
892.00,52.786
893.00,52.906
894.00,52.824
895.00,52.783
896.00,52.774
897.00,52.760
898.00,52.758
899.00,52.732
900.00,52.730
901.00,52.735
902.00,52.758
903.00,52.726
904.00,52.726
905.00,52.738
906.00,52.723
907.00,52.687
908.00,52.656
909.00,52.664
910.00,52.608
911.00,52.611
912.00,52.615
913.00,52.553
914.00,52.649
915.00,52.533
916.00,52.566
917.00,52.487
918.00,52.641
919.00,52.525
920.00,52.466
921.00,52.482
922.00,52.455
923.00,52.402
924.00,52.396
925.00,52.435
926.00,52.378
927.00,52.338
928.00,52.424
929.00,52.360
930.00,52.324
931.00,52.300
932.00,52.189
933.00,52.303
934.00,52.241
935.00,52.238
936.00,52.211
937.00,52.206
938.00,52.196
939.00,52.197
940.00,52.147
941.00,52.170
942.00,52.143
943.00,52.145
944.00,52.097
945.00,52.100
946.00,52.100
947.00,52.048
948.00,52.077
949.00,52.044
950.00,52.028
951.00,51.999
952.00,51.986
953.00,51.914
954.00,51.904
955.00,51.859
956.00,51.863
957.00,51.839
958.00,51.866
959.00,51.801
960.00,51.815
961.00,51.791
962.00,51.785
963.00,51.752
964.00,51.736
965.00,51.765
966.00,51.724
967.00,51.734
968.00,51.711
969.00,51.752
970.00,51.699
971.00,51.735
972.00,51.691
973.00,51.717
974.00,51.745
975.00,51.692
976.00,51.727
977.00,51.700
978.00,51.753
979.00,51.708
980.00,51.735
981.00,51.740
982.00,51.666
983.00,51.759
984.00,51.673
985.00,51.719
986.00,51.656
987.00,51.682
988.00,51.662
989.00,51.637
990.00,51.655
991.00,51.641
992.00,51.676
993.00,51.632
994.00,51.605
995.00,51.615
996.00,51.588
997.00,51.571
998.00,51.578
999.00,51.579
1000.00,51.511
1001.00,51.517
1002.00,51.509
1003.00,51.494
1004.00,51.492
1005.00,51.441
1006.00,51.492
1007.00,51.451
1008.00,51.436
1009.00,51.434
1010.00,51.427
1011.00,51.408
1012.00,51.384
1013.00,51.401
1014.00,51.356
1015.00,51.383
1016.00,51.321
1017.00,51.312
1018.00,51.320
1019.00,51.270
1020.00,51.278
1021.00,51.261
1022.00,51.244
1023.00,51.197
1024.00,51.207
1025.00,51.184
1026.00,51.183
1027.00,51.151
1028.00,51.153
1029.00,51.140
1030.00,51.092
1031.00,51.127
1032.00,51.080
1033.00,51.070
1034.00,51.064
1035.00,51.047
1036.00,51.019
1037.00,51.007
1038.00,50.992
1039.00,50.941
1040.00,50.944
1041.00,50.898
1042.00,50.900
1043.00,50.882
1044.00,50.913
1045.00,50.891
1046.00,50.880
1047.00,50.911
1048.00,50.929
1049.00,50.945
1050.00,50.934
1051.00,50.972
1052.00,50.953
1053.00,50.957
1054.00,50.948
1055.00,50.964
1056.00,50.995
1057.00,50.983
1058.00,50.966
1059.00,50.991
1060.00,50.988
1061.00,50.969
1062.00,50.950
1063.00,50.954
1064.00,50.965
1065.00,50.938
1066.00,50.924
1067.00,50.923
1068.00,50.957
1069.00,50.893
1070.00,50.892
1071.00,50.863
1072.00,50.893
1073.00,50.867
1074.00,50.847
1075.00,50.839
1076.00,50.838
1077.00,50.803
1078.00,50.804
1079.00,50.815
1080.00,50.800
1081.00,50.786
1082.00,50.784
1083.00,50.773
1084.00,50.774
1085.00,50.776
1086.00,50.764
1087.00,50.766
1088.00,50.737
1089.00,50.752
1090.00,50.733
1091.00,50.729
1092.00,50.726
1093.00,50.695
1094.00,50.672
1095.00,50.685
1096.00,50.658
1097.00,50.660
1098.00,50.649
1099.00,50.630
1100.00,50.630
1101.00,50.629
1102.00,50.615
1103.00,50.636
1104.00,50.611
1105.00,50.625
1106.00,50.580
1107.00,50.563
1108.00,50.549
1109.00,50.538
1110.00,50.538
1111.00,50.542
1112.00,50.528
1113.00,50.525
1114.00,50.517
1115.00,50.514
1116.00,50.487
1117.00,50.493
1118.00,50.463
1119.00,50.469
1120.00,50.456
1121.00,50.442
1122.00,50.443
1123.00,50.438
1124.00,50.429
1125.00,50.444
1126.00,50.410
1127.00,50.418
1128.00,50.414
1129.00,50.403
1130.00,50.384
1131.00,50.383
1132.00,50.355
1133.00,50.366
1134.00,50.356
1135.00,50.357
1136.00,50.353
1137.00,50.335
1138.00,50.342
1139.00,50.361
1140.00,50.332
1141.00,50.347
1142.00,50.326
1143.00,50.333
1144.00,50.312
1145.00,50.317
1146.00,50.309
1147.00,50.305
1148.00,50.288
1149.00,50.302
1150.00,50.303
1151.00,50.279
1152.00,50.272
1153.00,50.278
1154.00,50.240
1155.00,50.262
1156.00,50.243
1157.00,50.242
1158.00,50.250
1159.00,50.257
1160.00,50.246
1161.00,50.273
1162.00,50.246
1163.00,50.260
1164.00,50.252
1165.00,50.223
1166.00,50.255
1167.00,50.211
1168.00,50.237
1169.00,50.225
1170.00,50.204
1171.00,50.203
1172.00,50.205
1173.00,50.193
1174.00,50.206
1175.00,50.212
1176.00,50.196
1177.00,50.184
1178.00,50.208
1179.00,50.193
1180.00,50.192
1181.00,50.224
1182.00,50.181
1183.00,50.194
1184.00,50.167
1185.00,50.187
1186.00,50.168
1187.00,50.169
1188.00,50.184
1189.00,50.180
1190.00,50.181
1191.00,50.182
1192.00,50.190
1193.00,50.158
1194.00,50.174
1195.00,50.148
1196.00,50.195
1197.00,50.189
1198.00,50.154
1199.00,50.172
1200.00,50.183
1201.00,50.192
1202.00,50.176
1203.00,50.163
1204.00,50.155
1205.00,50.176
1206.00,50.159
1207.00,50.163
1208.00,50.152
1209.00,50.150
1210.00,50.149
1211.00,50.146
1212.00,50.168
1213.00,50.144
1214.00,50.169
1215.00,50.147
1216.00,50.154
1217.00,50.134
1218.00,50.135
1219.00,50.162
1220.00,50.118
1221.00,50.156
1222.00,50.135
1223.00,50.153
1224.00,50.146
1225.00,50.126
1226.00,50.138
1227.00,50.138
1228.00,50.152
1229.00,50.155
1230.00,50.200
1231.00,50.162
1232.00,50.202
1233.00,50.201
1234.00,50.189
1235.00,50.197
1236.00,50.180
1237.00,50.195
1238.00,50.198
1239.00,50.202
1240.00,50.176
1241.00,50.193
1242.00,50.183
1243.00,50.214
1244.00,50.187
1245.00,50.204
1246.00,50.217
1247.00,50.193
1248.00,50.201
1249.00,50.225
1250.00,50.209
1251.00,50.201
1252.00,50.214
1253.00,50.184
1254.00,50.239
1255.00,50.228
1256.00,50.207
1257.00,50.218
1258.00,50.241
1259.00,50.222
1260.00,50.253
1261.00,50.242
1262.00,50.229
1263.00,50.221
1264.00,50.224
1265.00,50.252
1266.00,50.240
1267.00,50.248
1268.00,50.254
1269.00,50.248
1270.00,50.263
1271.00,50.273
1272.00,50.267
1273.00,50.284
1274.00,50.294
1275.00,50.287
1276.00,50.295
1277.00,50.310
1278.00,50.305
1279.00,50.317
1280.00,50.291
1281.00,50.308
1282.00,50.314
1283.00,50.292
1284.00,50.329
1285.00,50.318
1286.00,50.325
1287.00,50.338
1288.00,50.353
1289.00,50.319
1290.00,50.363
1291.00,50.353
1292.00,50.341
1293.00,50.350
1294.00,50.353
1295.00,50.372
1296.00,50.371
1297.00,50.358
1298.00,50.417
1299.00,50.385
1300.00,50.400
1301.00,50.404
1302.00,50.415
1303.00,50.405
1304.00,50.405
1305.00,50.422
1306.00,50.421
1307.00,50.433
1308.00,50.418
1309.00,50.449
1310.00,50.441
1311.00,50.422
1312.00,50.446
1313.00,50.441
1314.00,50.451
1315.00,50.472
1316.00,50.464
1317.00,50.515
1318.00,50.493
1319.00,50.490
1320.00,50.506
1321.00,50.657
1322.00,50.649
1323.00,50.631
1324.00,50.615
1325.00,50.604
1326.00,50.641
1327.00,50.620
1328.00,50.619
1329.00,50.609
1330.00,50.617
1331.00,50.631
1332.00,50.608
1333.00,50.608
1334.00,50.660
1335.00,50.681
1336.00,50.724
1337.00,50.755
1338.00,50.798
1339.00,50.834
1340.00,50.886
1341.00,50.944
1342.00,51.003
1343.00,51.033
1344.00,51.083
1345.00,51.162
1346.00,51.171
1347.00,51.197
1348.00,51.253
1349.00,51.219
1350.00,51.246
1351.00,51.254
1352.00,51.255
1353.00,51.270
1354.00,51.263
1355.00,51.240
1356.00,51.303
1357.00,51.279
1358.00,51.311
1359.00,51.355
1360.00,51.302
1361.00,51.270
1362.00,51.309
1363.00,51.351
1364.00,51.449
1365.00,51.316
1366.00,51.344
1367.00,51.337
1368.00,51.311
1369.00,51.331
1370.00,51.333
1371.00,51.273
1372.00,51.288
1373.00,51.316
1374.00,51.321
1375.00,51.321
1376.00,51.291
1377.00,51.283
1378.00,51.411
1379.00,51.294
1380.00,51.309
1381.00,51.327
1382.00,51.253
1383.00,51.295
1384.00,51.244
1385.00,51.286
1386.00,51.306
1387.00,51.288
1388.00,51.267
1389.00,51.298
1390.00,51.308
1391.00,51.313
1392.00,51.287
1393.00,51.240
1394.00,51.297
1395.00,51.301
1396.00,51.245
1397.00,51.316
1398.00,51.348
1399.00,51.309
1400.00,51.279
1401.00,51.307
1402.00,51.322
1403.00,51.329
1404.00,51.340
1405.00,51.336
1406.00,51.380
1407.00,51.348
1408.00,51.375
1409.00,51.348
1410.00,51.382
1411.00,51.384
1412.00,51.415
1413.00,51.383
1414.00,51.404
1415.00,51.398
1416.00,51.422
1417.00,51.439
1418.00,51.443
1419.00,51.463
1420.00,51.473
1421.00,51.499
1422.00,51.497
1423.00,51.537
1424.00,51.507
1425.00,51.549
1426.00,51.523
1427.00,51.557
1428.00,51.553
1429.00,51.560
1430.00,51.566
1431.00,51.599
1432.00,51.603
1433.00,51.626
1434.00,51.597
1435.00,51.638
1436.00,51.680
1437.00,51.671
1438.00,51.697
1439.00,51.727
1440.00,51.714
1441.00,51.725
1442.00,51.738
1443.00,51.766
1444.00,51.831
1445.00,51.776
1446.00,51.822
1447.00,51.850
1448.00,51.860
1449.00,51.850
1450.00,51.867
1451.00,51.908
1452.00,51.914
1453.00,51.920
1454.00,51.967
1455.00,51.974
1456.00,51.964
1457.00,51.966
1458.00,52.009
1459.00,51.996
1460.00,52.027
1461.00,52.029
1462.00,52.053
1463.00,52.062
1464.00,52.052
1465.00,52.084
1466.00,52.089
1467.00,52.102
1468.00,52.164
1469.00,52.128
1470.00,52.145
1471.00,52.161
1472.00,52.173
1473.00,52.169
1474.00,52.219
1475.00,52.228
1476.00,52.234
1477.00,52.242
1478.00,52.253
1479.00,52.276
1480.00,52.280
1481.00,52.287
1482.00,52.316
1483.00,52.325
1484.00,52.347
1485.00,52.353
1486.00,52.353
1487.00,52.383
1488.00,52.423
1489.00,52.384
1490.00,52.416
1491.00,52.422
1492.00,52.423
1493.00,52.390
1494.00,52.440
1495.00,52.440
1496.00,52.469
1497.00,52.447
1498.00,52.475
1499.00,52.509
1500.00,52.517
1501.00, 
1502.00, 
1503.00, 
1504.00, 
1505.00, 
1506.00, 
1507.00, 
1508.00, 
1509.00, 
1510.00, 
1511.00, 
1512.00, 
1513.00, 
1514.00, 
1515.00, 
1516.00, 
1517.00, 
1518.00, 
1519.00, 
1520.00, 
1521.00, 
1522.00, 
1523.00, 
1524.00, 
1525.00, 
1526.00, 
1527.00, 
1528.00, 
1529.00, 
1530.00, 
1531.00, 
1532.00, 
1533.00, 
1534.00, 
1535.00, 
1536.00, 
1537.00, 
1538.00, 
1539.00, 
1540.00, 
1541.00, 
1542.00, 
1543.00, 
1544.00, 
1545.00, 
1546.00, 
1547.00, 
1548.00, 
1549.00, 
1550.00, 
1551.00, 
1552.00, 
1553.00, 
1554.00, 
1555.00, 
1556.00, 
1557.00, 
1558.00, 
1559.00, 
1560.00, 
1561.00, 
1562.00, 
1563.00, 
1564.00, 
1565.00, 
1566.00, 
1567.00, 
1568.00, 
1569.00, 
1570.00, 
1571.00, 
1572.00, 
1573.00, 
1574.00, 
1575.00, 
1576.00, 
1577.00, 
1578.00, 
1579.00, 
1580.00, 
1581.00, 
1582.00, 
1583.00, 
1584.00, 
1585.00, 
1586.00, 
1587.00, 
1588.00, 
1589.00, 
1590.00, 
1591.00, 
1592.00, 
1593.00, 
1594.00, 
1595.00, 
1596.00, 
1597.00, 
1598.00, 
1599.00, 
1600.00, 
1601.00, 
1602.00, 
1603.00, 
1604.00, 
1605.00, 
1606.00, 
1607.00, 
1608.00, 
1609.00, 
1610.00, 
1611.00, 
1612.00, 
1613.00, 
1614.00, 
1615.00, 
1616.00, 
1617.00, 
1618.00, 
1619.00, 
1620.00, 
1621.00, 
1622.00, 
1623.00, 
1624.00, 
1625.00, 
1626.00, 
1627.00, 
1628.00, 
1629.00, 
1630.00, 
1631.00, 
1632.00, 
1633.00, 
1634.00, 
1635.00, 
1636.00, 
1637.00, 
1638.00, 
1639.00, 
1640.00, 
1641.00, 
1642.00, 
1643.00, 
1644.00, 
1645.00, 
1646.00, 
1647.00, 
1648.00, 
1649.00, 
1650.00, 
1651.00, 
1652.00, 
1653.00, 
1654.00, 
1655.00, 
1656.00, 
1657.00, 
1658.00, 
1659.00, 
1660.00, 
1661.00, 
1662.00, 
1663.00, 
1664.00, 
1665.00, 
1666.00, 
1667.00, 
1668.00, 
1669.00, 
1670.00, 
1671.00, 
1672.00, 
1673.00, 
1674.00, 
1675.00, 
1676.00, 
1677.00, 
1678.00, 
1679.00, 
1680.00, 
1681.00, 
1682.00, 
1683.00, 
1684.00, 
1685.00, 
1686.00, 
1687.00, 
1688.00, 
1689.00, 
1690.00, 
1691.00, 
1692.00, 
1693.00, 
1694.00, 
1695.00, 
1696.00, 
1697.00, 
1698.00, 
1699.00, 
1700.00, 
1701.00, 
1702.00, 
1703.00, 
1704.00, 
1705.00, 
1706.00, 
1707.00, 
1708.00, 
1709.00, 
1710.00, 
1711.00, 
1712.00, 
1713.00, 
1714.00, 
1715.00, 
1716.00, 
1717.00, 
1718.00, 
1719.00, 
1720.00, 
1721.00, 
1722.00, 
1723.00, 
1724.00, 
1725.00, 
1726.00, 
1727.00, 
1728.00, 
1729.00, 
1730.00, 
1731.00, 
1732.00, 
1733.00, 
1734.00, 
1735.00, 
1736.00, 
1737.00, 
1738.00, 
1739.00, 
1740.00, 
1741.00, 
1742.00, 
1743.00, 
1744.00, 
1745.00, 
1746.00, 
1747.00, 
1748.00, 
1749.00, 
1750.00, 
1751.00, 
1752.00, 
1753.00, 
1754.00, 
1755.00, 
1756.00, 
1757.00, 
1758.00, 
1759.00, 
1760.00, 
1761.00, 
1762.00, 
1763.00, 
1764.00, 
1765.00, 
1766.00, 
1767.00, 
1768.00, 
1769.00, 
1770.00, 
1771.00, 
1772.00, 
1773.00, 
1774.00, 
1775.00, 
1776.00, 
1777.00, 
1778.00, 
1779.00, 
1780.00, 
1781.00, 
1782.00, 
1783.00, 
1784.00, 
1785.00, 
1786.00, 
1787.00, 
1788.00, 
1789.00, 
1790.00, 
1791.00, 
1792.00, 
1793.00, 
1794.00, 
1795.00, 
1796.00, 
1797.00, 
1798.00, 
1799.00, 
1800.00, 
1801.00, 
1802.00, 
1803.00, 
1804.00, 
1805.00, 
1806.00, 
1807.00, 
1808.00, 
1809.00, 
1810.00, 
1811.00, 
1812.00, 
1813.00, 
1814.00, 
1815.00, 
1816.00, 
1817.00, 
1818.00, 
1819.00, 
1820.00, 
1821.00, 
1822.00, 
1823.00, 
1824.00, 
1825.00, 
1826.00, 
1827.00, 
1828.00, 
1829.00, 
1830.00, 
1831.00, 
1832.00, 
1833.00, 
1834.00, 
1835.00, 
1836.00, 
1837.00, 
1838.00, 
1839.00, 
1840.00, 
1841.00, 
1842.00, 
1843.00, 
1844.00, 
1845.00, 
1846.00, 
1847.00, 
1848.00, 
1849.00, 
1850.00, 
1851.00, 
1852.00, 
1853.00, 
1854.00, 
1855.00, 
1856.00, 
1857.00, 
1858.00, 
1859.00, 
1860.00, 
1861.00, 
1862.00, 
1863.00, 
1864.00, 
1865.00, 
1866.00, 
1867.00, 
1868.00, 
1869.00, 
1870.00, 
1871.00, 
1872.00, 
1873.00, 
1874.00, 
1875.00, 
1876.00, 
1877.00, 
1878.00, 
1879.00, 
1880.00, 
1881.00, 
1882.00, 
1883.00, 
1884.00, 
1885.00, 
1886.00, 
1887.00, 
1888.00, 
1889.00, 
1890.00, 
1891.00, 
1892.00, 
1893.00, 
1894.00, 
1895.00, 
1896.00, 
1897.00, 
1898.00, 
1899.00, 
1900.00, 
1901.00, 
1902.00, 
1903.00, 
1904.00, 
1905.00, 
1906.00, 
1907.00, 
1908.00, 
1909.00, 
1910.00, 
1911.00, 
1912.00, 
1913.00, 
1914.00, 
1915.00, 
1916.00, 
1917.00, 
1918.00, 
1919.00, 
1920.00, 
1921.00, 
1922.00, 
1923.00, 
1924.00, 
1925.00, 
1926.00, 
1927.00, 
1928.00, 
1929.00, 
1930.00, 
1931.00, 
1932.00, 
1933.00, 
1934.00, 
1935.00, 
1936.00, 
1937.00, 
1938.00, 
1939.00, 
1940.00, 
1941.00, 
1942.00, 
1943.00, 
1944.00, 
1945.00, 
1946.00, 
1947.00, 
1948.00, 
1949.00, 
1950.00, 
1951.00, 
1952.00, 
1953.00, 
1954.00, 
1955.00, 
1956.00, 
1957.00, 
1958.00, 
1959.00, 
1960.00, 
1961.00, 
1962.00, 
1963.00, 
1964.00, 
1965.00, 
1966.00, 
1967.00, 
1968.00, 
1969.00, 
1970.00, 
1971.00, 
1972.00, 
1973.00, 
1974.00, 
1975.00, 
1976.00, 
1977.00, 
1978.00, 
1979.00, 
1980.00, 
1981.00, 
1982.00, 
1983.00, 
1984.00, 
1985.00, 
1986.00, 
1987.00, 
1988.00, 
1989.00, 
1990.00, 
1991.00, 
1992.00, 
1993.00, 
1994.00, 
1995.00, 
1996.00, 
1997.00, 
1998.00, 
1999.00, 
2000.00, 
2001.00, 
2002.00, 
2003.00, 
2004.00, 
2005.00, 
2006.00, 
2007.00, 
2008.00, 
2009.00, 
2010.00, 
2011.00, 
2012.00, 
2013.00, 
2014.00, 
2015.00, 
2016.00, 
2017.00, 
2018.00, 
2019.00, 
2020.00, 
2021.00, 
2022.00, 
2023.00, 
2024.00, 
2025.00, 
2026.00, 
2027.00, 
2028.00, 
2029.00, 
2030.00, 
2031.00, 
2032.00, 
2033.00, 
2034.00, 
2035.00, 
2036.00, 
2037.00, 
2038.00, 
2039.00, 
2040.00, 
2041.00, 
2042.00, 
2043.00, 
2044.00, 
2045.00, 
2046.00, 
2047.00, 
2048.00, 
2049.00, 
2050.00, 
2051.00, 
2052.00, 
2053.00, 
2054.00, 
2055.00, 
2056.00, 
2057.00, 
2058.00, 
2059.00, 
2060.00, 
2061.00, 
2062.00, 
2063.00, 
2064.00, 
2065.00, 
2066.00, 
2067.00, 
2068.00, 
2069.00, 
2070.00, 
2071.00, 
2072.00, 
2073.00, 
2074.00, 
2075.00, 
2076.00, 
2077.00, 
2078.00, 
2079.00, 
2080.00, 
2081.00, 
2082.00, 
2083.00, 
2084.00, 
2085.00, 
2086.00, 
2087.00, 
2088.00, 
2089.00, 
2090.00, 
2091.00, 
2092.00, 
2093.00, 
2094.00, 
2095.00, 
2096.00, 
2097.00, 
2098.00, 
2099.00, 
2100.00, 
2101.00, 
2102.00, 
2103.00, 
2104.00, 
2105.00, 
2106.00, 
2107.00, 
2108.00, 
2109.00, 
2110.00, 
2111.00, 
2112.00, 
2113.00, 
2114.00, 
2115.00, 
2116.00, 
2117.00, 
2118.00, 
2119.00, 
2120.00, 
2121.00, 
2122.00, 
2123.00, 
2124.00, 
2125.00, 
2126.00, 
2127.00, 
2128.00, 
2129.00, 
2130.00, 
2131.00, 
2132.00, 
2133.00, 
2134.00, 
2135.00, 
2136.00, 
2137.00, 
2138.00, 
2139.00, 
2140.00, 
2141.00, 
2142.00, 
2143.00, 
2144.00, 
2145.00, 
2146.00, 
2147.00, 
2148.00, 
2149.00, 
2150.00, 
2151.00, 
2152.00, 
2153.00, 
2154.00, 
2155.00, 
2156.00, 
2157.00, 
2158.00, 
2159.00, 
2160.00, 
2161.00, 
2162.00, 
2163.00, 
2164.00, 
2165.00, 
2166.00, 
2167.00, 
2168.00, 
2169.00, 
2170.00, 
2171.00, 
2172.00, 
2173.00, 
2174.00, 
2175.00, 
2176.00, 
2177.00, 
2178.00, 
2179.00, 
2180.00, 
2181.00, 
2182.00, 
2183.00, 
2184.00, 
2185.00, 
2186.00, 
2187.00, 
2188.00, 
2189.00, 
2190.00, 
2191.00, 
2192.00, 
2193.00, 
2194.00, 
2195.00, 
2196.00, 
2197.00, 
2198.00, 
2199.00, 
2200.00, 
2201.00, 
2202.00, 
2203.00, 
2204.00, 
2205.00, 
2206.00, 
2207.00, 
2208.00, 
2209.00, 
2210.00, 
2211.00, 
2212.00, 
2213.00, 
2214.00, 
2215.00, 
2216.00, 
2217.00, 
2218.00, 
2219.00, 
2220.00, 
2221.00, 
2222.00, 
2223.00, 
2224.00, 
2225.00, 
2226.00, 
2227.00, 
2228.00, 
2229.00, 
2230.00, 
2231.00, 
2232.00, 
2233.00, 
2234.00, 
2235.00, 
2236.00, 
2237.00, 
2238.00, 
2239.00, 
2240.00, 
2241.00, 
2242.00, 
2243.00, 
2244.00, 
2245.00, 
2246.00, 
2247.00, 
2248.00, 
2249.00, 
2250.00, 
2251.00, 
2252.00, 
2253.00, 
2254.00, 
2255.00, 
2256.00, 
2257.00, 
2258.00, 
2259.00, 
2260.00, 
2261.00, 
2262.00, 
2263.00, 
2264.00, 
2265.00, 
2266.00, 
2267.00, 
2268.00, 
2269.00, 
2270.00, 
2271.00, 
2272.00, 
2273.00, 
2274.00, 
2275.00, 
2276.00, 
2277.00, 
2278.00, 
2279.00, 
2280.00, 
2281.00, 
2282.00, 
2283.00, 
2284.00, 
2285.00, 
2286.00, 
2287.00, 
2288.00, 
2289.00, 
2290.00, 
2291.00, 
2292.00, 
2293.00, 
2294.00, 
2295.00, 
2296.00, 
2297.00, 
2298.00, 
2299.00, 
2300.00, 
2301.00, 
2302.00, 
2303.00, 
2304.00, 
2305.00, 
2306.00, 
2307.00, 
2308.00, 
2309.00, 
2310.00, 
2311.00, 
2312.00, 
2313.00, 
2314.00, 
2315.00, 
2316.00, 
2317.00, 
2318.00, 
2319.00, 
2320.00, 
2321.00, 
2322.00, 
2323.00, 
2324.00, 
2325.00, 
2326.00, 
2327.00, 
2328.00, 
2329.00, 
2330.00, 
2331.00, 
2332.00, 
2333.00, 
2334.00, 
2335.00, 
2336.00, 
2337.00, 
2338.00, 
2339.00, 
2340.00, 
2341.00, 
2342.00, 
2343.00, 
2344.00, 
2345.00, 
2346.00, 
2347.00, 
2348.00, 
2349.00, 
2350.00, 
2351.00, 
2352.00, 
2353.00, 
2354.00, 
2355.00, 
2356.00, 
2357.00, 
2358.00, 
2359.00, 
2360.00, 
2361.00, 
2362.00, 
2363.00, 
2364.00, 
2365.00, 
2366.00, 
2367.00, 
2368.00, 
2369.00, 
2370.00, 
2371.00, 
2372.00, 
2373.00, 
2374.00, 
2375.00, 
2376.00, 
2377.00, 
2378.00, 
2379.00, 
2380.00, 
2381.00, 
2382.00, 
2383.00, 
2384.00, 
2385.00, 
2386.00, 
2387.00, 
2388.00, 
2389.00, 
2390.00, 
2391.00, 
2392.00, 
2393.00, 
2394.00, 
2395.00, 
2396.00, 
2397.00, 
2398.00, 
2399.00, 
2400.00, 
2401.00, 
2402.00, 
2403.00, 
2404.00, 
2405.00, 
2406.00, 
2407.00, 
2408.00, 
2409.00, 
2410.00, 
2411.00, 
2412.00, 
2413.00, 
2414.00, 
2415.00, 
2416.00, 
2417.00, 
2418.00, 
2419.00, 
2420.00, 
2421.00, 
2422.00, 
2423.00, 
2424.00, 
2425.00, 
2426.00, 
2427.00, 
2428.00, 
2429.00, 
2430.00, 
2431.00, 
2432.00, 
2433.00, 
2434.00, 
2435.00, 
2436.00, 
2437.00, 
2438.00, 
2439.00, 
2440.00, 
2441.00, 
2442.00, 
2443.00, 
2444.00, 
2445.00, 
2446.00, 
2447.00, 
2448.00, 
2449.00, 
2450.00, 
2451.00, 
2452.00, 
2453.00, 
2454.00, 
2455.00, 
2456.00, 
2457.00, 
2458.00, 
2459.00, 
2460.00, 
2461.00, 
2462.00, 
2463.00, 
2464.00, 
2465.00, 
2466.00, 
2467.00, 
2468.00, 
2469.00, 
2470.00, 
2471.00, 
2472.00, 
2473.00, 
2474.00, 
2475.00, 
2476.00, 
2477.00, 
2478.00, 
2479.00, 
2480.00, 
2481.00, 
2482.00, 
2483.00, 
2484.00, 
2485.00, 
2486.00, 
2487.00, 
2488.00, 
2489.00, 
2490.00, 
2491.00, 
2492.00, 
2493.00, 
2494.00, 
2495.00, 
2496.00, 
2497.00, 
2498.00, 
2499.00, 
2500.00, 
2501.00, 
2502.00, 
2503.00, 
2504.00, 
2505.00, 
2506.00, 
2507.00, 
2508.00, 
2509.00, 
2510.00, 
2511.00, 
2512.00, 
2513.00, 
2514.00, 
2515.00, 
2516.00, 
2517.00, 
2518.00, 
2519.00, 
2520.00, 
2521.00, 
2522.00, 
2523.00, 
2524.00, 
2525.00, 
2526.00, 
2527.00, 
2528.00, 
2529.00, 
2530.00, 
2531.00, 
2532.00, 
2533.00, 
2534.00, 
2535.00, 
2536.00, 
2537.00, 
2538.00, 
2539.00, 
2540.00, 
2541.00, 
2542.00, 
2543.00, 
2544.00, 
2545.00, 
2546.00, 
2547.00, 
2548.00, 
2549.00, 
2550.00, 
2551.00, 
2552.00, 
2553.00, 
2554.00, 
2555.00, 
2556.00, 
2557.00, 
2558.00, 
2559.00, 
2560.00, 
2561.00, 
2562.00, 
2563.00, 
2564.00, 
2565.00, 
2566.00, 
2567.00, 
2568.00, 
2569.00, 
2570.00, 
2571.00, 
2572.00, 
2573.00, 
2574.00, 
2575.00, 
2576.00, 
2577.00, 
2578.00, 
2579.00, 
2580.00, 
2581.00, 
2582.00, 
2583.00, 
2584.00, 
2585.00, 
2586.00, 
2587.00, 
2588.00, 
2589.00, 
2590.00, 
2591.00, 
2592.00, 
2593.00, 
2594.00, 
2595.00, 
2596.00, 
2597.00, 
2598.00, 
2599.00, 
2600.00, 
