"2bP2 - RawData"
"Wavelength nm.","T%"
200.00,0.002
201.00,-0.001
202.00,-0.001
203.00,0.000
204.00,0.002
205.00,0.001
206.00,-0.000
207.00,0.000
208.00,0.002
209.00,0.004
210.00,0.000
211.00,0.002
212.00,0.000
213.00,0.003
214.00,0.001
215.00,-0.000
216.00,-0.001
217.00,-0.000
218.00,0.001
219.00,0.001
220.00,-0.000
221.00,0.000
222.00,0.002
223.00,0.002
224.00,-0.002
225.00,-0.001
226.00,-0.000
227.00,0.001
228.00,-0.001
229.00,-0.001
230.00,0.000
231.00,-0.001
232.00,-0.000
233.00,0.001
234.00,0.001
235.00,-0.001
236.00,0.000
237.00,-0.002
238.00,0.000
239.00,-0.002
240.00,0.000
241.00,0.001
242.00,0.001
243.00,0.001
244.00,0.001
245.00,0.002
246.00,0.000
247.00,0.002
248.00,0.001
249.00,-0.000
250.00,0.001
251.00,-0.000
252.00,-0.001
253.00,-0.001
254.00,-0.000
255.00,-0.001
256.00,-0.000
257.00,0.000
258.00,0.001
259.00,0.001
260.00,-0.001
261.00,0.001
262.00,-0.002
263.00,0.000
264.00,0.000
265.00,0.000
266.00,-0.002
267.00,0.001
268.00,-0.001
269.00,0.002
270.00,0.001
271.00,-0.001
272.00,0.000
273.00,0.000
274.00,0.001
275.00,-0.001
276.00,-0.001
277.00,-0.000
278.00,-0.000
279.00,-0.000
280.00,0.001
281.00,0.002
282.00,0.001
283.00,0.001
284.00,-0.000
285.00,0.000
286.00,-0.000
287.00,0.002
288.00,-0.001
289.00,-0.000
290.00,-0.001
291.00,-0.000
292.00,0.000
293.00,-0.000
294.00,0.000
295.00,0.001
296.00,0.000
297.00,0.002
298.00,0.001
299.00,0.001
300.00,0.001
301.00,0.004
302.00,0.005
303.00,0.006
304.00,0.011
305.00,0.013
306.00,0.023
307.00,0.034
308.00,0.054
309.00,0.082
310.00,0.112
311.00,0.148
312.00,0.205
313.00,0.274
314.00,0.357
315.00,0.459
316.00,0.572
317.00,0.723
318.00,0.887
319.00,1.091
320.00,1.300
321.00,1.547
322.00,1.825
323.00,2.149
324.00,2.467
325.00,2.793
326.00,3.141
327.00,3.533
328.00,3.909
329.00,4.318
330.00,4.724
331.00,5.142
332.00,5.560
333.00,6.018
334.00,6.428
335.00,6.872
336.00,7.289
337.00,7.711
338.00,8.124
339.00,8.523
340.00,8.887
341.00,9.327
342.00,9.616
343.00,9.952
344.00,10.302
345.00,10.587
346.00,10.869
347.00,11.141
348.00,11.331
349.00,11.616
350.00,11.849
351.00,12.027
352.00,12.195
353.00,12.394
354.00,12.512
355.00,12.688
356.00,12.856
357.00,12.964
358.00,13.079
359.00,13.228
360.00,13.313
361.00,13.346
362.00,13.459
363.00,13.484
364.00,13.515
365.00,13.579
366.00,13.596
367.00,13.629
368.00,13.642
369.00,13.651
370.00,13.679
371.00,13.653
372.00,13.611
373.00,13.625
374.00,13.631
375.00,13.523
376.00,13.510
377.00,13.468
378.00,13.382
379.00,13.312
380.00,13.305
381.00,13.269
382.00,13.213
383.00,13.213
384.00,13.216
385.00,13.193
386.00,13.163
387.00,13.183
388.00,13.191
389.00,13.163
390.00,13.136
391.00,13.146
392.00,13.131
393.00,13.123
394.00,13.108
395.00,13.115
396.00,13.069
397.00,13.078
398.00,13.043
399.00,13.036
400.00,13.030
401.00,12.980
402.00,13.029
403.00,13.026
404.00,13.004
405.00,12.971
406.00,12.967
407.00,12.909
408.00,12.920
409.00,12.891
410.00,12.845
411.00,12.843
412.00,12.817
413.00,12.811
414.00,12.818
415.00,12.813
416.00,12.837
417.00,12.829
418.00,12.845
419.00,12.899
420.00,12.937
421.00,12.883
422.00,12.915
423.00,12.945
424.00,12.956
425.00,13.007
426.00,13.017
427.00,13.052
428.00,13.071
429.00,13.116
430.00,13.145
431.00,13.198
432.00,13.226
433.00,13.287
434.00,13.324
435.00,13.390
436.00,13.457
437.00,13.499
438.00,13.572
439.00,13.616
440.00,13.692
441.00,13.776
442.00,13.851
443.00,13.913
444.00,13.976
445.00,14.073
446.00,14.144
447.00,14.254
448.00,14.335
449.00,14.420
450.00,14.525
451.00,14.593
452.00,14.704
453.00,14.813
454.00,14.893
455.00,15.017
456.00,15.121
457.00,15.210
458.00,15.298
459.00,15.428
460.00,15.552
461.00,15.651
462.00,15.781
463.00,15.885
464.00,16.030
465.00,16.143
466.00,16.266
467.00,16.397
468.00,16.472
469.00,16.606
470.00,16.744
471.00,16.771
472.00,17.001
473.00,17.092
474.00,17.224
475.00,17.342
476.00,17.457
477.00,17.585
478.00,17.717
479.00,17.894
480.00,18.024
481.00,18.176
482.00,18.332
483.00,18.497
484.00,18.580
485.00,18.771
486.00,18.909
487.00,19.069
488.00,19.217
489.00,19.339
490.00,19.520
491.00,19.637
492.00,19.847
493.00,20.044
494.00,20.191
495.00,20.222
496.00,20.340
497.00,20.492
498.00,20.631
499.00,20.817
500.00,20.918
501.00,21.005
502.00,21.219
503.00,21.315
504.00,21.451
505.00,21.615
506.00,21.741
507.00,21.853
508.00,22.002
509.00,22.168
510.00,22.282
511.00,22.390
512.00,22.487
513.00,22.736
514.00,22.874
515.00,22.940
516.00,23.106
517.00,23.204
518.00,23.367
519.00,23.462
520.00,23.557
521.00,23.677
522.00,23.790
523.00,23.851
524.00,23.953
525.00,24.101
526.00,24.218
527.00,24.308
528.00,24.434
529.00,24.611
530.00,24.740
531.00,24.817
532.00,24.902
533.00,25.035
534.00,25.164
535.00,25.237
536.00,25.322
537.00,25.429
538.00,25.533
539.00,25.580
540.00,25.678
541.00,25.776
542.00,25.846
543.00,25.920
544.00,25.983
545.00,26.081
546.00,26.115
547.00,26.279
548.00,26.348
549.00,26.408
550.00,26.523
551.00,26.636
552.00,26.716
553.00,26.766
554.00,26.812
555.00,26.904
556.00,26.960
557.00,27.041
558.00,27.087
559.00,27.219
560.00,27.275
561.00,27.350
562.00,27.404
563.00,27.475
564.00,27.532
565.00,27.593
566.00,27.605
567.00,27.674
568.00,27.726
569.00,27.802
570.00,27.839
571.00,27.908
572.00,27.960
573.00,27.969
574.00,28.011
575.00,28.047
576.00,28.042
577.00,28.132
578.00,28.253
579.00,28.298
580.00,28.359
581.00,28.491
582.00,28.575
583.00,28.623
584.00,28.680
585.00,28.766
586.00,28.791
587.00,28.905
588.00,28.916
589.00,28.906
590.00,29.027
591.00,29.035
592.00,29.063
593.00,29.134
594.00,29.187
595.00,29.334
596.00,29.361
597.00,29.373
598.00,29.413
599.00,29.524
600.00,29.635
601.00,29.683
602.00,29.684
603.00,29.772
604.00,29.801
605.00,29.857
606.00,29.995
607.00,30.023
608.00,30.051
609.00,30.166
610.00,30.339
611.00,30.210
612.00,30.268
613.00,30.321
614.00,30.371
615.00,30.497
616.00,30.606
617.00,30.617
618.00,30.613
619.00,30.702
620.00,30.791
621.00,30.852
622.00,30.982
623.00,31.041
624.00,31.090
625.00,31.178
626.00,31.298
627.00,31.389
628.00,31.461
629.00,31.523
630.00,31.605
631.00,31.699
632.00,31.804
633.00,31.917
634.00,32.001
635.00,32.108
636.00,32.211
637.00,32.297
638.00,32.388
639.00,32.529
640.00,32.601
641.00,32.628
642.00,32.803
643.00,32.841
644.00,32.984
645.00,33.068
646.00,33.229
647.00,33.333
648.00,33.384
649.00,33.522
650.00,33.551
651.00,33.755
652.00,33.867
653.00,33.926
654.00,34.036
655.00,34.219
656.00,34.550
657.00,34.435
658.00,34.551
659.00,34.699
660.00,34.782
661.00,34.870
662.00,35.171
663.00,35.183
664.00,35.461
665.00,35.661
666.00,35.715
667.00,35.767
668.00,35.872
669.00,36.192
670.00,36.377
671.00,36.356
672.00,36.505
673.00,36.669
674.00,36.793
675.00,36.928
676.00,37.148
677.00,37.294
678.00,37.160
679.00,37.386
680.00,37.603
681.00,37.797
682.00,37.882
683.00,37.972
684.00,38.166
685.00,38.318
686.00,38.256
687.00,38.554
688.00,38.601
689.00,38.694
690.00,39.049
691.00,39.326
692.00,39.186
693.00,39.262
694.00,39.477
695.00,39.718
696.00,39.847
697.00,39.848
698.00,39.937
699.00,40.331
700.00,40.377
701.00,40.416
702.00,40.665
703.00,40.878
704.00,41.115
705.00,41.009
706.00,41.126
707.00,41.236
708.00,41.227
709.00,41.560
710.00,42.012
711.00,41.601
712.00,41.821
713.00,41.975
714.00,42.115
715.00,42.031
716.00,42.313
717.00,42.788
718.00,42.701
719.00,42.757
720.00,42.871
721.00,47.161
722.00,47.168
723.00,47.271
724.00,47.327
725.00,47.499
726.00,47.549
727.00,47.650
728.00,47.719
729.00,47.746
730.00,47.886
731.00,48.024
732.00,48.051
733.00,48.232
734.00,48.213
735.00,48.345
736.00,48.380
737.00,48.500
738.00,48.579
739.00,48.655
740.00,48.723
741.00,48.830
742.00,48.925
743.00,48.967
744.00,49.008
745.00,49.079
746.00,49.137
747.00,49.142
748.00,49.172
749.00,49.229
750.00,49.270
751.00,49.382
752.00,49.454
753.00,49.457
754.00,49.510
755.00,49.614
756.00,49.641
757.00,49.724
758.00,49.717
759.00,49.776
760.00,49.826
761.00,49.916
762.00,49.935
763.00,49.952
764.00,50.062
765.00,50.139
766.00,50.069
767.00,50.177
768.00,50.204
769.00,50.294
770.00,50.339
771.00,50.356
772.00,50.511
773.00,50.476
774.00,50.561
775.00,50.539
776.00,50.574
777.00,50.591
778.00,50.662
779.00,50.787
780.00,50.720
781.00,50.747
782.00,50.807
783.00,50.788
784.00,50.773
785.00,50.838
786.00,50.868
787.00,50.894
788.00,50.898
789.00,50.939
790.00,50.899
791.00,51.010
792.00,50.937
793.00,50.992
794.00,50.981
795.00,51.078
796.00,50.987
797.00,50.967
798.00,51.137
799.00,51.122
800.00,51.167
801.00,51.002
802.00,51.068
803.00,51.128
804.00,51.054
805.00,51.165
806.00,51.070
807.00,51.189
808.00,51.205
809.00,51.152
810.00,51.125
811.00,51.159
812.00,51.239
813.00,51.129
814.00,51.133
815.00,51.135
816.00,51.208
817.00,51.223
818.00,51.150
819.00,51.193
820.00,51.047
821.00,51.207
822.00,51.179
823.00,51.172
824.00,51.241
825.00,51.198
826.00,51.278
827.00,51.272
828.00,51.227
829.00,51.260
830.00,51.230
831.00,53.638
832.00,53.654
833.00,53.625
834.00,53.664
835.00,53.615
836.00,53.655
837.00,53.643
838.00,53.620
839.00,53.624
840.00,53.530
841.00,53.615
842.00,53.546
843.00,53.614
844.00,53.589
845.00,53.522
846.00,53.616
847.00,53.560
848.00,53.605
849.00,53.499
850.00,53.505
851.00,53.454
852.00,53.486
853.00,53.432
854.00,53.453
855.00,53.383
856.00,53.415
857.00,53.397
858.00,53.382
859.00,53.364
860.00,53.401
861.00,53.418
862.00,53.332
863.00,53.367
864.00,53.316
865.00,53.362
866.00,53.280
867.00,53.311
868.00,53.342
869.00,53.296
870.00,53.328
871.00,53.324
872.00,53.354
873.00,53.317
874.00,53.341
875.00,53.307
876.00,53.335
877.00,53.288
878.00,53.322
879.00,53.275
880.00,53.269
881.00,53.231
882.00,53.297
883.00,53.260
884.00,53.213
885.00,53.202
886.00,53.215
887.00,53.191
888.00,53.186
889.00,53.168
890.00,53.213
891.00,53.149
892.00,53.114
893.00,53.133
894.00,53.121
895.00,53.039
896.00,53.044
897.00,53.029
898.00,53.037
899.00,53.047
900.00,53.021
901.00,53.020
902.00,53.031
903.00,52.986
904.00,52.981
905.00,52.996
906.00,52.973
907.00,52.963
908.00,52.900
909.00,52.920
910.00,52.872
911.00,52.878
912.00,52.878
913.00,52.817
914.00,52.895
915.00,52.756
916.00,52.740
917.00,52.865
918.00,52.787
919.00,52.782
920.00,52.718
921.00,52.701
922.00,52.691
923.00,52.658
924.00,52.643
925.00,52.647
926.00,52.622
927.00,52.642
928.00,52.583
929.00,52.630
930.00,52.604
931.00,52.585
932.00,52.520
933.00,52.601
934.00,52.533
935.00,52.490
936.00,52.494
937.00,52.480
938.00,52.459
939.00,52.469
940.00,52.395
941.00,52.432
942.00,52.413
943.00,52.414
944.00,52.370
945.00,52.374
946.00,52.362
947.00,52.319
948.00,52.307
949.00,52.282
950.00,52.279
951.00,52.242
952.00,52.238
953.00,52.188
954.00,52.168
955.00,52.139
956.00,52.150
957.00,52.111
958.00,52.137
959.00,52.056
960.00,52.083
961.00,52.040
962.00,52.022
963.00,52.044
964.00,52.006
965.00,52.030
966.00,52.000
967.00,52.012
968.00,51.969
969.00,52.029
970.00,51.961
971.00,51.974
972.00,51.933
973.00,51.968
974.00,52.012
975.00,51.966
976.00,51.999
977.00,51.987
978.00,52.084
979.00,51.977
980.00,52.002
981.00,52.005
982.00,51.956
983.00,52.008
984.00,51.971
985.00,51.998
986.00,51.944
987.00,51.965
988.00,51.936
989.00,51.900
990.00,51.910
991.00,51.886
992.00,51.905
993.00,51.872
994.00,51.849
995.00,51.858
996.00,51.845
997.00,51.843
998.00,51.807
999.00,51.847
1000.00,51.783
1001.00,51.784
1002.00,51.786
1003.00,51.759
1004.00,51.762
1005.00,51.711
1006.00,51.769
1007.00,51.722
1008.00,51.696
1009.00,51.693
1010.00,51.696
1011.00,51.673
1012.00,51.638
1013.00,51.662
1014.00,51.614
1015.00,51.629
1016.00,51.590
1017.00,51.587
1018.00,51.592
1019.00,51.546
1020.00,51.553
1021.00,51.525
1022.00,51.525
1023.00,51.485
1024.00,51.500
1025.00,51.475
1026.00,51.468
1027.00,51.428
1028.00,51.432
1029.00,51.432
1030.00,51.371
1031.00,51.402
1032.00,51.358
1033.00,51.347
1034.00,51.322
1035.00,51.289
1036.00,51.261
1037.00,51.258
1038.00,51.241
1039.00,51.213
1040.00,51.217
1041.00,51.167
1042.00,51.175
1043.00,51.165
1044.00,51.180
1045.00,51.165
1046.00,51.160
1047.00,51.189
1048.00,51.193
1049.00,51.211
1050.00,51.207
1051.00,51.262
1052.00,51.232
1053.00,51.242
1054.00,51.236
1055.00,51.250
1056.00,51.273
1057.00,51.277
1058.00,51.256
1059.00,51.257
1060.00,51.299
1061.00,51.249
1062.00,51.236
1063.00,51.244
1064.00,51.251
1065.00,51.233
1066.00,51.206
1067.00,51.204
1068.00,51.247
1069.00,51.181
1070.00,51.175
1071.00,51.155
1072.00,51.171
1073.00,51.147
1074.00,51.143
1075.00,51.133
1076.00,51.135
1077.00,51.102
1078.00,51.084
1079.00,51.098
1080.00,51.087
1081.00,51.070
1082.00,51.067
1083.00,51.058
1084.00,51.064
1085.00,51.060
1086.00,51.042
1087.00,51.059
1088.00,51.030
1089.00,51.030
1090.00,51.019
1091.00,51.015
1092.00,51.001
1093.00,50.979
1094.00,50.954
1095.00,50.973
1096.00,50.951
1097.00,50.945
1098.00,50.934
1099.00,50.925
1100.00,50.909
1101.00,50.908
1102.00,50.876
1103.00,50.907
1104.00,50.873
1105.00,50.862
1106.00,50.853
1107.00,50.847
1108.00,50.837
1109.00,50.849
1110.00,50.823
1111.00,50.831
1112.00,50.814
1113.00,50.806
1114.00,50.805
1115.00,50.805
1116.00,50.781
1117.00,50.790
1118.00,50.767
1119.00,50.773
1120.00,50.770
1121.00,50.749
1122.00,50.731
1123.00,50.738
1124.00,50.728
1125.00,50.726
1126.00,50.702
1127.00,50.707
1128.00,50.704
1129.00,50.692
1130.00,50.661
1131.00,50.683
1132.00,50.644
1133.00,50.640
1134.00,50.658
1135.00,50.633
1136.00,50.643
1137.00,50.650
1138.00,50.636
1139.00,50.646
1140.00,50.626
1141.00,50.631
1142.00,50.613
1143.00,50.620
1144.00,50.591
1145.00,50.600
1146.00,50.591
1147.00,50.591
1148.00,50.586
1149.00,50.602
1150.00,50.607
1151.00,50.594
1152.00,50.580
1153.00,50.588
1154.00,50.554
1155.00,50.569
1156.00,50.558
1157.00,50.560
1158.00,50.548
1159.00,50.555
1160.00,50.571
1161.00,50.591
1162.00,50.568
1163.00,50.557
1164.00,50.568
1165.00,50.539
1166.00,50.543
1167.00,50.525
1168.00,50.542
1169.00,50.522
1170.00,50.503
1171.00,50.500
1172.00,50.505
1173.00,50.491
1174.00,50.510
1175.00,50.524
1176.00,50.506
1177.00,50.497
1178.00,50.517
1179.00,50.524
1180.00,50.510
1181.00,50.522
1182.00,50.502
1183.00,50.508
1184.00,50.478
1185.00,50.503
1186.00,50.497
1187.00,50.489
1188.00,50.490
1189.00,50.494
1190.00,50.493
1191.00,50.480
1192.00,50.508
1193.00,50.488
1194.00,50.494
1195.00,50.468
1196.00,50.487
1197.00,50.497
1198.00,50.481
1199.00,50.474
1200.00,50.511
1201.00,50.501
1202.00,50.479
1203.00,50.480
1204.00,50.463
1205.00,50.487
1206.00,50.478
1207.00,50.468
1208.00,50.472
1209.00,50.461
1210.00,50.465
1211.00,50.465
1212.00,50.481
1213.00,50.467
1214.00,50.473
1215.00,50.444
1216.00,50.473
1217.00,50.463
1218.00,50.449
1219.00,50.473
1220.00,50.426
1221.00,50.447
1222.00,50.443
1223.00,50.472
1224.00,50.462
1225.00,50.438
1226.00,50.446
1227.00,50.450
1228.00,50.456
1229.00,50.454
1230.00,50.497
1231.00,50.459
1232.00,50.479
1233.00,50.495
1234.00,50.483
1235.00,50.484
1236.00,50.478
1237.00,50.497
1238.00,50.499
1239.00,50.497
1240.00,50.477
1241.00,50.507
1242.00,50.480
1243.00,50.498
1244.00,50.488
1245.00,50.498
1246.00,50.511
1247.00,50.495
1248.00,50.487
1249.00,50.500
1250.00,50.504
1251.00,50.498
1252.00,50.523
1253.00,50.491
1254.00,50.535
1255.00,50.511
1256.00,50.486
1257.00,50.520
1258.00,50.548
1259.00,50.520
1260.00,50.582
1261.00,50.547
1262.00,50.537
1263.00,50.535
1264.00,50.522
1265.00,50.544
1266.00,50.538
1267.00,50.553
1268.00,50.558
1269.00,50.557
1270.00,50.572
1271.00,50.577
1272.00,50.580
1273.00,50.590
1274.00,50.610
1275.00,50.607
1276.00,50.591
1277.00,50.608
1278.00,50.603
1279.00,50.606
1280.00,50.583
1281.00,50.615
1282.00,50.634
1283.00,50.607
1284.00,50.621
1285.00,50.628
1286.00,50.632
1287.00,50.624
1288.00,50.625
1289.00,50.627
1290.00,50.685
1291.00,50.646
1292.00,50.642
1293.00,50.658
1294.00,50.673
1295.00,50.680
1296.00,50.692
1297.00,50.674
1298.00,50.717
1299.00,50.683
1300.00,50.702
1301.00,50.688
1302.00,50.698
1303.00,50.696
1304.00,50.707
1305.00,50.729
1306.00,50.692
1307.00,50.725
1308.00,50.705
1309.00,50.734
1310.00,50.747
1311.00,50.719
1312.00,50.740
1313.00,50.731
1314.00,50.752
1315.00,50.775
1316.00,50.751
1317.00,50.786
1318.00,50.774
1319.00,50.764
1320.00,50.773
1321.00,50.964
1322.00,50.962
1323.00,50.927
1324.00,50.904
1325.00,50.892
1326.00,50.922
1327.00,50.896
1328.00,50.900
1329.00,50.901
1330.00,50.899
1331.00,50.913
1332.00,50.897
1333.00,50.905
1334.00,50.935
1335.00,50.959
1336.00,50.978
1337.00,51.032
1338.00,51.085
1339.00,51.122
1340.00,51.179
1341.00,51.238
1342.00,51.313
1343.00,51.350
1344.00,51.395
1345.00,51.456
1346.00,51.475
1347.00,51.511
1348.00,51.556
1349.00,51.540
1350.00,51.558
1351.00,51.559
1352.00,51.566
1353.00,51.586
1354.00,51.612
1355.00,51.577
1356.00,51.638
1357.00,51.598
1358.00,51.629
1359.00,51.665
1360.00,51.620
1361.00,51.661
1362.00,51.634
1363.00,51.644
1364.00,51.721
1365.00,51.634
1366.00,51.663
1367.00,51.643
1368.00,51.619
1369.00,51.637
1370.00,51.629
1371.00,51.586
1372.00,51.597
1373.00,51.612
1374.00,51.623
1375.00,51.595
1376.00,51.588
1377.00,51.569
1378.00,51.591
1379.00,51.553
1380.00,51.578
1381.00,51.604
1382.00,51.567
1383.00,51.604
1384.00,51.555
1385.00,51.581
1386.00,51.605
1387.00,51.601
1388.00,51.562
1389.00,51.551
1390.00,51.598
1391.00,51.610
1392.00,51.581
1393.00,51.541
1394.00,51.575
1395.00,51.591
1396.00,51.524
1397.00,51.542
1398.00,51.601
1399.00,51.583
1400.00,51.586
1401.00,51.578
1402.00,51.598
1403.00,51.585
1404.00,51.618
1405.00,51.606
1406.00,51.656
1407.00,51.628
1408.00,51.650
1409.00,51.633
1410.00,51.668
1411.00,51.652
1412.00,51.693
1413.00,51.666
1414.00,51.682
1415.00,51.671
1416.00,51.697
1417.00,51.704
1418.00,51.714
1419.00,51.724
1420.00,51.724
1421.00,51.755
1422.00,51.757
1423.00,51.786
1424.00,51.768
1425.00,51.799
1426.00,51.799
1427.00,51.818
1428.00,51.825
1429.00,51.842
1430.00,51.824
1431.00,51.865
1432.00,51.869
1433.00,51.880
1434.00,51.860
1435.00,51.911
1436.00,51.913
1437.00,51.926
1438.00,51.935
1439.00,51.966
1440.00,51.966
1441.00,51.977
1442.00,52.019
1443.00,52.021
1444.00,52.109
1445.00,52.077
1446.00,52.078
1447.00,52.104
1448.00,52.129
1449.00,52.137
1450.00,52.153
1451.00,52.154
1452.00,52.179
1453.00,52.180
1454.00,52.200
1455.00,52.220
1456.00,52.221
1457.00,52.210
1458.00,52.265
1459.00,52.254
1460.00,52.297
1461.00,52.298
1462.00,52.331
1463.00,52.326
1464.00,52.331
1465.00,52.356
1466.00,52.344
1467.00,52.354
1468.00,52.409
1469.00,52.387
1470.00,52.410
1471.00,52.419
1472.00,52.440
1473.00,52.450
1474.00,52.510
1475.00,52.503
1476.00,52.503
1477.00,52.485
1478.00,52.507
1479.00,52.524
1480.00,52.518
1481.00,52.513
1482.00,52.570
1483.00,52.566
1484.00,52.576
1485.00,52.589
1486.00,52.591
1487.00,52.623
1488.00,52.653
1489.00,52.614
1490.00,52.651
1491.00,52.670
1492.00,52.694
1493.00,52.667
1494.00,52.716
1495.00,52.704
1496.00,52.710
1497.00,52.704
1498.00,52.730
1499.00,52.747
1500.00,52.738
1501.00, 
1502.00, 
1503.00, 
1504.00, 
1505.00, 
1506.00, 
1507.00, 
1508.00, 
1509.00, 
1510.00, 
1511.00, 
1512.00, 
1513.00, 
1514.00, 
1515.00, 
1516.00, 
1517.00, 
1518.00, 
1519.00, 
1520.00, 
1521.00, 
1522.00, 
1523.00, 
1524.00, 
1525.00, 
1526.00, 
1527.00, 
1528.00, 
1529.00, 
1530.00, 
1531.00, 
1532.00, 
1533.00, 
1534.00, 
1535.00, 
1536.00, 
1537.00, 
1538.00, 
1539.00, 
1540.00, 
1541.00, 
1542.00, 
1543.00, 
1544.00, 
1545.00, 
1546.00, 
1547.00, 
1548.00, 
1549.00, 
1550.00, 
1551.00, 
1552.00, 
1553.00, 
1554.00, 
1555.00, 
1556.00, 
1557.00, 
1558.00, 
1559.00, 
1560.00, 
1561.00, 
1562.00, 
1563.00, 
1564.00, 
1565.00, 
1566.00, 
1567.00, 
1568.00, 
1569.00, 
1570.00, 
1571.00, 
1572.00, 
1573.00, 
1574.00, 
1575.00, 
1576.00, 
1577.00, 
1578.00, 
1579.00, 
1580.00, 
1581.00, 
1582.00, 
1583.00, 
1584.00, 
1585.00, 
1586.00, 
1587.00, 
1588.00, 
1589.00, 
1590.00, 
1591.00, 
1592.00, 
1593.00, 
1594.00, 
1595.00, 
1596.00, 
1597.00, 
1598.00, 
1599.00, 
1600.00, 
1601.00, 
1602.00, 
1603.00, 
1604.00, 
1605.00, 
1606.00, 
1607.00, 
1608.00, 
1609.00, 
1610.00, 
1611.00, 
1612.00, 
1613.00, 
1614.00, 
1615.00, 
1616.00, 
1617.00, 
1618.00, 
1619.00, 
1620.00, 
1621.00, 
1622.00, 
1623.00, 
1624.00, 
1625.00, 
1626.00, 
1627.00, 
1628.00, 
1629.00, 
1630.00, 
1631.00, 
1632.00, 
1633.00, 
1634.00, 
1635.00, 
1636.00, 
1637.00, 
1638.00, 
1639.00, 
1640.00, 
1641.00, 
1642.00, 
1643.00, 
1644.00, 
1645.00, 
1646.00, 
1647.00, 
1648.00, 
1649.00, 
1650.00, 
1651.00, 
1652.00, 
1653.00, 
1654.00, 
1655.00, 
1656.00, 
1657.00, 
1658.00, 
1659.00, 
1660.00, 
1661.00, 
1662.00, 
1663.00, 
1664.00, 
1665.00, 
1666.00, 
1667.00, 
1668.00, 
1669.00, 
1670.00, 
1671.00, 
1672.00, 
1673.00, 
1674.00, 
1675.00, 
1676.00, 
1677.00, 
1678.00, 
1679.00, 
1680.00, 
1681.00, 
1682.00, 
1683.00, 
1684.00, 
1685.00, 
1686.00, 
1687.00, 
1688.00, 
1689.00, 
1690.00, 
1691.00, 
1692.00, 
1693.00, 
1694.00, 
1695.00, 
1696.00, 
1697.00, 
1698.00, 
1699.00, 
1700.00, 
1701.00, 
1702.00, 
1703.00, 
1704.00, 
1705.00, 
1706.00, 
1707.00, 
1708.00, 
1709.00, 
1710.00, 
1711.00, 
1712.00, 
1713.00, 
1714.00, 
1715.00, 
1716.00, 
1717.00, 
1718.00, 
1719.00, 
1720.00, 
1721.00, 
1722.00, 
1723.00, 
1724.00, 
1725.00, 
1726.00, 
1727.00, 
1728.00, 
1729.00, 
1730.00, 
1731.00, 
1732.00, 
1733.00, 
1734.00, 
1735.00, 
1736.00, 
1737.00, 
1738.00, 
1739.00, 
1740.00, 
1741.00, 
1742.00, 
1743.00, 
1744.00, 
1745.00, 
1746.00, 
1747.00, 
1748.00, 
1749.00, 
1750.00, 
1751.00, 
1752.00, 
1753.00, 
1754.00, 
1755.00, 
1756.00, 
1757.00, 
1758.00, 
1759.00, 
1760.00, 
1761.00, 
1762.00, 
1763.00, 
1764.00, 
1765.00, 
1766.00, 
1767.00, 
1768.00, 
1769.00, 
1770.00, 
1771.00, 
1772.00, 
1773.00, 
1774.00, 
1775.00, 
1776.00, 
1777.00, 
1778.00, 
1779.00, 
1780.00, 
1781.00, 
1782.00, 
1783.00, 
1784.00, 
1785.00, 
1786.00, 
1787.00, 
1788.00, 
1789.00, 
1790.00, 
1791.00, 
1792.00, 
1793.00, 
1794.00, 
1795.00, 
1796.00, 
1797.00, 
1798.00, 
1799.00, 
1800.00, 
1801.00, 
1802.00, 
1803.00, 
1804.00, 
1805.00, 
1806.00, 
1807.00, 
1808.00, 
1809.00, 
1810.00, 
1811.00, 
1812.00, 
1813.00, 
1814.00, 
1815.00, 
1816.00, 
1817.00, 
1818.00, 
1819.00, 
1820.00, 
1821.00, 
1822.00, 
1823.00, 
1824.00, 
1825.00, 
1826.00, 
1827.00, 
1828.00, 
1829.00, 
1830.00, 
1831.00, 
1832.00, 
1833.00, 
1834.00, 
1835.00, 
1836.00, 
1837.00, 
1838.00, 
1839.00, 
1840.00, 
1841.00, 
1842.00, 
1843.00, 
1844.00, 
1845.00, 
1846.00, 
1847.00, 
1848.00, 
1849.00, 
1850.00, 
1851.00, 
1852.00, 
1853.00, 
1854.00, 
1855.00, 
1856.00, 
1857.00, 
1858.00, 
1859.00, 
1860.00, 
1861.00, 
1862.00, 
1863.00, 
1864.00, 
1865.00, 
1866.00, 
1867.00, 
1868.00, 
1869.00, 
1870.00, 
1871.00, 
1872.00, 
1873.00, 
1874.00, 
1875.00, 
1876.00, 
1877.00, 
1878.00, 
1879.00, 
1880.00, 
1881.00, 
1882.00, 
1883.00, 
1884.00, 
1885.00, 
1886.00, 
1887.00, 
1888.00, 
1889.00, 
1890.00, 
1891.00, 
1892.00, 
1893.00, 
1894.00, 
1895.00, 
1896.00, 
1897.00, 
1898.00, 
1899.00, 
1900.00, 
1901.00, 
1902.00, 
1903.00, 
1904.00, 
1905.00, 
1906.00, 
1907.00, 
1908.00, 
1909.00, 
1910.00, 
1911.00, 
1912.00, 
1913.00, 
1914.00, 
1915.00, 
1916.00, 
1917.00, 
1918.00, 
1919.00, 
1920.00, 
1921.00, 
1922.00, 
1923.00, 
1924.00, 
1925.00, 
1926.00, 
1927.00, 
1928.00, 
1929.00, 
1930.00, 
1931.00, 
1932.00, 
1933.00, 
1934.00, 
1935.00, 
1936.00, 
1937.00, 
1938.00, 
1939.00, 
1940.00, 
1941.00, 
1942.00, 
1943.00, 
1944.00, 
1945.00, 
1946.00, 
1947.00, 
1948.00, 
1949.00, 
1950.00, 
1951.00, 
1952.00, 
1953.00, 
1954.00, 
1955.00, 
1956.00, 
1957.00, 
1958.00, 
1959.00, 
1960.00, 
1961.00, 
1962.00, 
1963.00, 
1964.00, 
1965.00, 
1966.00, 
1967.00, 
1968.00, 
1969.00, 
1970.00, 
1971.00, 
1972.00, 
1973.00, 
1974.00, 
1975.00, 
1976.00, 
1977.00, 
1978.00, 
1979.00, 
1980.00, 
1981.00, 
1982.00, 
1983.00, 
1984.00, 
1985.00, 
1986.00, 
1987.00, 
1988.00, 
1989.00, 
1990.00, 
1991.00, 
1992.00, 
1993.00, 
1994.00, 
1995.00, 
1996.00, 
1997.00, 
1998.00, 
1999.00, 
2000.00, 
2001.00, 
2002.00, 
2003.00, 
2004.00, 
2005.00, 
2006.00, 
2007.00, 
2008.00, 
2009.00, 
2010.00, 
2011.00, 
2012.00, 
2013.00, 
2014.00, 
2015.00, 
2016.00, 
2017.00, 
2018.00, 
2019.00, 
2020.00, 
2021.00, 
2022.00, 
2023.00, 
2024.00, 
2025.00, 
2026.00, 
2027.00, 
2028.00, 
2029.00, 
2030.00, 
2031.00, 
2032.00, 
2033.00, 
2034.00, 
2035.00, 
2036.00, 
2037.00, 
2038.00, 
2039.00, 
2040.00, 
2041.00, 
2042.00, 
2043.00, 
2044.00, 
2045.00, 
2046.00, 
2047.00, 
2048.00, 
2049.00, 
2050.00, 
2051.00, 
2052.00, 
2053.00, 
2054.00, 
2055.00, 
2056.00, 
2057.00, 
2058.00, 
2059.00, 
2060.00, 
2061.00, 
2062.00, 
2063.00, 
2064.00, 
2065.00, 
2066.00, 
2067.00, 
2068.00, 
2069.00, 
2070.00, 
2071.00, 
2072.00, 
2073.00, 
2074.00, 
2075.00, 
2076.00, 
2077.00, 
2078.00, 
2079.00, 
2080.00, 
2081.00, 
2082.00, 
2083.00, 
2084.00, 
2085.00, 
2086.00, 
2087.00, 
2088.00, 
2089.00, 
2090.00, 
2091.00, 
2092.00, 
2093.00, 
2094.00, 
2095.00, 
2096.00, 
2097.00, 
2098.00, 
2099.00, 
2100.00, 
2101.00, 
2102.00, 
2103.00, 
2104.00, 
2105.00, 
2106.00, 
2107.00, 
2108.00, 
2109.00, 
2110.00, 
2111.00, 
2112.00, 
2113.00, 
2114.00, 
2115.00, 
2116.00, 
2117.00, 
2118.00, 
2119.00, 
2120.00, 
2121.00, 
2122.00, 
2123.00, 
2124.00, 
2125.00, 
2126.00, 
2127.00, 
2128.00, 
2129.00, 
2130.00, 
2131.00, 
2132.00, 
2133.00, 
2134.00, 
2135.00, 
2136.00, 
2137.00, 
2138.00, 
2139.00, 
2140.00, 
2141.00, 
2142.00, 
2143.00, 
2144.00, 
2145.00, 
2146.00, 
2147.00, 
2148.00, 
2149.00, 
2150.00, 
2151.00, 
2152.00, 
2153.00, 
2154.00, 
2155.00, 
2156.00, 
2157.00, 
2158.00, 
2159.00, 
2160.00, 
2161.00, 
2162.00, 
2163.00, 
2164.00, 
2165.00, 
2166.00, 
2167.00, 
2168.00, 
2169.00, 
2170.00, 
2171.00, 
2172.00, 
2173.00, 
2174.00, 
2175.00, 
2176.00, 
2177.00, 
2178.00, 
2179.00, 
2180.00, 
2181.00, 
2182.00, 
2183.00, 
2184.00, 
2185.00, 
2186.00, 
2187.00, 
2188.00, 
2189.00, 
2190.00, 
2191.00, 
2192.00, 
2193.00, 
2194.00, 
2195.00, 
2196.00, 
2197.00, 
2198.00, 
2199.00, 
2200.00, 
2201.00, 
2202.00, 
2203.00, 
2204.00, 
2205.00, 
2206.00, 
2207.00, 
2208.00, 
2209.00, 
2210.00, 
2211.00, 
2212.00, 
2213.00, 
2214.00, 
2215.00, 
2216.00, 
2217.00, 
2218.00, 
2219.00, 
2220.00, 
2221.00, 
2222.00, 
2223.00, 
2224.00, 
2225.00, 
2226.00, 
2227.00, 
2228.00, 
2229.00, 
2230.00, 
2231.00, 
2232.00, 
2233.00, 
2234.00, 
2235.00, 
2236.00, 
2237.00, 
2238.00, 
2239.00, 
2240.00, 
2241.00, 
2242.00, 
2243.00, 
2244.00, 
2245.00, 
2246.00, 
2247.00, 
2248.00, 
2249.00, 
2250.00, 
2251.00, 
2252.00, 
2253.00, 
2254.00, 
2255.00, 
2256.00, 
2257.00, 
2258.00, 
2259.00, 
2260.00, 
2261.00, 
2262.00, 
2263.00, 
2264.00, 
2265.00, 
2266.00, 
2267.00, 
2268.00, 
2269.00, 
2270.00, 
2271.00, 
2272.00, 
2273.00, 
2274.00, 
2275.00, 
2276.00, 
2277.00, 
2278.00, 
2279.00, 
2280.00, 
2281.00, 
2282.00, 
2283.00, 
2284.00, 
2285.00, 
2286.00, 
2287.00, 
2288.00, 
2289.00, 
2290.00, 
2291.00, 
2292.00, 
2293.00, 
2294.00, 
2295.00, 
2296.00, 
2297.00, 
2298.00, 
2299.00, 
2300.00, 
2301.00, 
2302.00, 
2303.00, 
2304.00, 
2305.00, 
2306.00, 
2307.00, 
2308.00, 
2309.00, 
2310.00, 
2311.00, 
2312.00, 
2313.00, 
2314.00, 
2315.00, 
2316.00, 
2317.00, 
2318.00, 
2319.00, 
2320.00, 
2321.00, 
2322.00, 
2323.00, 
2324.00, 
2325.00, 
2326.00, 
2327.00, 
2328.00, 
2329.00, 
2330.00, 
2331.00, 
2332.00, 
2333.00, 
2334.00, 
2335.00, 
2336.00, 
2337.00, 
2338.00, 
2339.00, 
2340.00, 
2341.00, 
2342.00, 
2343.00, 
2344.00, 
2345.00, 
2346.00, 
2347.00, 
2348.00, 
2349.00, 
2350.00, 
2351.00, 
2352.00, 
2353.00, 
2354.00, 
2355.00, 
2356.00, 
2357.00, 
2358.00, 
2359.00, 
2360.00, 
2361.00, 
2362.00, 
2363.00, 
2364.00, 
2365.00, 
2366.00, 
2367.00, 
2368.00, 
2369.00, 
2370.00, 
2371.00, 
2372.00, 
2373.00, 
2374.00, 
2375.00, 
2376.00, 
2377.00, 
2378.00, 
2379.00, 
2380.00, 
2381.00, 
2382.00, 
2383.00, 
2384.00, 
2385.00, 
2386.00, 
2387.00, 
2388.00, 
2389.00, 
2390.00, 
2391.00, 
2392.00, 
2393.00, 
2394.00, 
2395.00, 
2396.00, 
2397.00, 
2398.00, 
2399.00, 
2400.00, 
2401.00, 
2402.00, 
2403.00, 
2404.00, 
2405.00, 
2406.00, 
2407.00, 
2408.00, 
2409.00, 
2410.00, 
2411.00, 
2412.00, 
2413.00, 
2414.00, 
2415.00, 
2416.00, 
2417.00, 
2418.00, 
2419.00, 
2420.00, 
2421.00, 
2422.00, 
2423.00, 
2424.00, 
2425.00, 
2426.00, 
2427.00, 
2428.00, 
2429.00, 
2430.00, 
2431.00, 
2432.00, 
2433.00, 
2434.00, 
2435.00, 
2436.00, 
2437.00, 
2438.00, 
2439.00, 
2440.00, 
2441.00, 
2442.00, 
2443.00, 
2444.00, 
2445.00, 
2446.00, 
2447.00, 
2448.00, 
2449.00, 
2450.00, 
2451.00, 
2452.00, 
2453.00, 
2454.00, 
2455.00, 
2456.00, 
2457.00, 
2458.00, 
2459.00, 
2460.00, 
2461.00, 
2462.00, 
2463.00, 
2464.00, 
2465.00, 
2466.00, 
2467.00, 
2468.00, 
2469.00, 
2470.00, 
2471.00, 
2472.00, 
2473.00, 
2474.00, 
2475.00, 
2476.00, 
2477.00, 
2478.00, 
2479.00, 
2480.00, 
2481.00, 
2482.00, 
2483.00, 
2484.00, 
2485.00, 
2486.00, 
2487.00, 
2488.00, 
2489.00, 
2490.00, 
2491.00, 
2492.00, 
2493.00, 
2494.00, 
2495.00, 
2496.00, 
2497.00, 
2498.00, 
2499.00, 
2500.00, 
2501.00, 
2502.00, 
2503.00, 
2504.00, 
2505.00, 
2506.00, 
2507.00, 
2508.00, 
2509.00, 
2510.00, 
2511.00, 
2512.00, 
2513.00, 
2514.00, 
2515.00, 
2516.00, 
2517.00, 
2518.00, 
2519.00, 
2520.00, 
2521.00, 
2522.00, 
2523.00, 
2524.00, 
2525.00, 
2526.00, 
2527.00, 
2528.00, 
2529.00, 
2530.00, 
2531.00, 
2532.00, 
2533.00, 
2534.00, 
2535.00, 
2536.00, 
2537.00, 
2538.00, 
2539.00, 
2540.00, 
2541.00, 
2542.00, 
2543.00, 
2544.00, 
2545.00, 
2546.00, 
2547.00, 
2548.00, 
2549.00, 
2550.00, 
2551.00, 
2552.00, 
2553.00, 
2554.00, 
2555.00, 
2556.00, 
2557.00, 
2558.00, 
2559.00, 
2560.00, 
2561.00, 
2562.00, 
2563.00, 
2564.00, 
2565.00, 
2566.00, 
2567.00, 
2568.00, 
2569.00, 
2570.00, 
2571.00, 
2572.00, 
2573.00, 
2574.00, 
2575.00, 
2576.00, 
2577.00, 
2578.00, 
2579.00, 
2580.00, 
2581.00, 
2582.00, 
2583.00, 
2584.00, 
2585.00, 
2586.00, 
2587.00, 
2588.00, 
2589.00, 
2590.00, 
2591.00, 
2592.00, 
2593.00, 
2594.00, 
2595.00, 
2596.00, 
2597.00, 
2598.00, 
2599.00, 
2600.00, 
