"2cP1 - RawData"
"Wavelength nm.","T%"
200.00,0.002
201.00,0.003
202.00,0.002
203.00,0.002
204.00,0.003
205.00,0.001
206.00,-0.000
207.00,-0.001
208.00,-0.000
209.00,0.002
210.00,0.001
211.00,-0.001
212.00,0.001
213.00,0.002
214.00,0.002
215.00,0.003
216.00,0.001
217.00,0.000
218.00,0.000
219.00,0.000
220.00,-0.000
221.00,-0.001
222.00,0.000
223.00,-0.001
224.00,-0.001
225.00,0.000
226.00,0.001
227.00,0.001
228.00,0.000
229.00,0.000
230.00,-0.001
231.00,0.003
232.00,0.000
233.00,0.001
234.00,-0.002
235.00,0.002
236.00,-0.001
237.00,0.002
238.00,0.000
239.00,0.000
240.00,0.001
241.00,0.001
242.00,-0.001
243.00,-0.002
244.00,0.001
245.00,0.000
246.00,0.000
247.00,0.001
248.00,-0.001
249.00,-0.000
250.00,-0.000
251.00,0.001
252.00,0.001
253.00,-0.000
254.00,0.001
255.00,0.001
256.00,-0.000
257.00,-0.001
258.00,-0.000
259.00,0.001
260.00,0.001
261.00,-0.001
262.00,-0.001
263.00,-0.001
264.00,0.000
265.00,0.000
266.00,0.001
267.00,-0.000
268.00,0.001
269.00,0.001
270.00,0.000
271.00,0.002
272.00,-0.001
273.00,0.001
274.00,0.002
275.00,0.001
276.00,-0.000
277.00,0.000
278.00,0.000
279.00,0.001
280.00,-0.000
281.00,0.000
282.00,-0.000
283.00,-0.001
284.00,0.001
285.00,0.000
286.00,-0.001
287.00,0.001
288.00,0.000
289.00,0.000
290.00,0.002
291.00,0.000
292.00,0.001
293.00,-0.000
294.00,0.001
295.00,0.001
296.00,0.001
297.00,-0.000
298.00,0.001
299.00,0.002
300.00,0.001
301.00,0.001
302.00,0.004
303.00,0.006
304.00,0.007
305.00,0.011
306.00,0.019
307.00,0.028
308.00,0.043
309.00,0.065
310.00,0.096
311.00,0.126
312.00,0.171
313.00,0.229
314.00,0.311
315.00,0.394
316.00,0.503
317.00,0.628
318.00,0.783
319.00,0.962
320.00,1.153
321.00,1.399
322.00,1.648
323.00,1.931
324.00,2.233
325.00,2.539
326.00,2.871
327.00,3.259
328.00,3.611
329.00,4.001
330.00,4.397
331.00,4.819
332.00,5.204
333.00,5.644
334.00,6.039
335.00,6.466
336.00,6.920
337.00,7.338
338.00,7.742
339.00,8.130
340.00,8.498
341.00,8.897
342.00,9.198
343.00,9.574
344.00,9.913
345.00,10.172
346.00,10.482
347.00,10.762
348.00,10.996
349.00,11.266
350.00,11.490
351.00,11.682
352.00,11.854
353.00,12.028
354.00,12.240
355.00,12.388
356.00,12.514
357.00,12.651
358.00,12.763
359.00,12.894
360.00,12.973
361.00,13.031
362.00,13.116
363.00,13.194
364.00,13.281
365.00,13.334
366.00,13.354
367.00,13.388
368.00,13.411
369.00,13.425
370.00,13.413
371.00,13.450
372.00,13.430
373.00,13.382
374.00,13.362
375.00,13.340
376.00,13.300
377.00,13.264
378.00,13.175
379.00,13.138
380.00,13.109
381.00,13.077
382.00,13.034
383.00,13.040
384.00,12.987
385.00,13.008
386.00,12.933
387.00,12.987
388.00,13.018
389.00,12.970
390.00,13.015
391.00,12.980
392.00,12.985
393.00,12.945
394.00,12.997
395.00,12.977
396.00,12.945
397.00,12.946
398.00,12.937
399.00,12.916
400.00,12.909
401.00,12.899
402.00,12.896
403.00,12.867
404.00,12.877
405.00,12.854
406.00,12.862
407.00,12.817
408.00,12.805
409.00,12.785
410.00,12.774
411.00,12.747
412.00,12.725
413.00,12.740
414.00,12.738
415.00,12.732
416.00,12.750
417.00,12.755
418.00,12.753
419.00,12.759
420.00,12.780
421.00,12.802
422.00,12.824
423.00,12.841
424.00,12.856
425.00,12.882
426.00,12.914
427.00,12.944
428.00,12.992
429.00,13.014
430.00,13.054
431.00,13.084
432.00,13.138
433.00,13.180
434.00,13.211
435.00,13.263
436.00,13.335
437.00,13.374
438.00,13.423
439.00,13.497
440.00,13.521
441.00,13.647
442.00,13.706
443.00,13.766
444.00,13.845
445.00,13.925
446.00,13.993
447.00,14.087
448.00,14.173
449.00,14.268
450.00,14.357
451.00,14.458
452.00,14.538
453.00,14.631
454.00,14.739
455.00,14.832
456.00,14.943
457.00,15.039
458.00,15.129
459.00,15.250
460.00,15.361
461.00,15.447
462.00,15.599
463.00,15.699
464.00,15.827
465.00,15.927
466.00,16.047
467.00,16.166
468.00,16.285
469.00,16.404
470.00,16.500
471.00,16.622
472.00,16.761
473.00,16.854
474.00,16.974
475.00,17.084
476.00,17.202
477.00,17.348
478.00,17.464
479.00,17.623
480.00,17.765
481.00,17.920
482.00,18.047
483.00,18.219
484.00,18.307
485.00,18.476
486.00,18.626
487.00,18.776
488.00,18.916
489.00,19.082
490.00,19.236
491.00,19.368
492.00,19.525
493.00,19.701
494.00,19.816
495.00,19.874
496.00,20.013
497.00,20.164
498.00,20.298
499.00,20.453
500.00,20.582
501.00,20.707
502.00,20.876
503.00,21.004
504.00,21.140
505.00,21.281
506.00,21.412
507.00,21.537
508.00,21.653
509.00,21.804
510.00,21.925
511.00,22.054
512.00,22.206
513.00,22.335
514.00,22.485
515.00,22.590
516.00,22.727
517.00,22.846
518.00,23.012
519.00,23.075
520.00,23.194
521.00,23.306
522.00,23.397
523.00,23.484
524.00,23.555
525.00,23.711
526.00,23.805
527.00,23.908
528.00,23.949
529.00,24.167
530.00,24.284
531.00,24.411
532.00,24.483
533.00,24.599
534.00,24.732
535.00,24.821
536.00,24.886
537.00,24.972
538.00,25.026
539.00,25.161
540.00,25.294
541.00,25.342
542.00,25.417
543.00,25.465
544.00,25.489
545.00,25.654
546.00,25.772
547.00,25.898
548.00,25.989
549.00,26.057
550.00,26.158
551.00,26.236
552.00,26.286
553.00,26.397
554.00,26.488
555.00,26.566
556.00,26.609
557.00,26.687
558.00,26.739
559.00,26.810
560.00,26.906
561.00,26.960
562.00,27.040
563.00,27.090
564.00,27.175
565.00,27.219
566.00,27.223
567.00,27.312
568.00,27.356
569.00,27.411
570.00,27.446
571.00,27.539
572.00,27.588
573.00,27.590
574.00,27.678
575.00,27.712
576.00,27.771
577.00,27.854
578.00,27.905
579.00,27.988
580.00,28.068
581.00,28.165
582.00,28.217
583.00,28.311
584.00,28.425
585.00,28.426
586.00,28.464
587.00,28.589
588.00,28.607
589.00,28.637
590.00,28.719
591.00,28.752
592.00,28.744
593.00,28.832
594.00,28.906
595.00,28.884
596.00,28.984
597.00,29.009
598.00,29.052
599.00,29.107
600.00,29.185
601.00,29.358
602.00,29.384
603.00,29.532
604.00,29.554
605.00,29.594
606.00,29.760
607.00,29.757
608.00,29.792
609.00,29.848
610.00,29.930
611.00,29.961
612.00,30.032
613.00,30.086
614.00,30.090
615.00,30.215
616.00,30.310
617.00,30.342
618.00,30.391
619.00,30.480
620.00,30.576
621.00,30.631
622.00,30.704
623.00,30.792
624.00,30.848
625.00,30.934
626.00,30.987
627.00,31.105
628.00,31.182
629.00,31.322
630.00,31.342
631.00,31.446
632.00,31.529
633.00,31.578
634.00,31.705
635.00,31.787
636.00,31.899
637.00,32.026
638.00,32.118
639.00,32.235
640.00,32.292
641.00,32.390
642.00,32.443
643.00,32.547
644.00,32.718
645.00,32.679
646.00,32.835
647.00,32.959
648.00,32.996
649.00,33.124
650.00,33.167
651.00,33.343
652.00,33.507
653.00,33.656
654.00,33.770
655.00,33.849
656.00,33.977
657.00,33.665
658.00,34.163
659.00,34.333
660.00,34.503
661.00,34.558
662.00,34.895
663.00,34.880
664.00,35.028
665.00,35.108
666.00,35.318
667.00,35.374
668.00,35.470
669.00,35.799
670.00,35.827
671.00,35.779
672.00,35.924
673.00,36.265
674.00,36.290
675.00,36.497
676.00,36.644
677.00,36.739
678.00,36.841
679.00,36.981
680.00,37.159
681.00,37.236
682.00,37.357
683.00,37.563
684.00,37.775
685.00,37.911
686.00,37.930
687.00,38.105
688.00,38.220
689.00,38.282
690.00,38.473
691.00,38.617
692.00,38.693
693.00,38.807
694.00,38.921
695.00,39.091
696.00,39.152
697.00,39.405
698.00,39.571
699.00,39.753
700.00,39.823
701.00,39.961
702.00,40.144
703.00,40.288
704.00,40.498
705.00,40.523
706.00,40.610
707.00,40.711
708.00,40.830
709.00,40.947
710.00,41.186
711.00,41.143
712.00,41.216
713.00,41.453
714.00,41.529
715.00,41.756
716.00,41.799
717.00,41.842
718.00,42.104
719.00,42.128
720.00,42.197
721.00,46.092
722.00,46.152
723.00,46.262
724.00,46.277
725.00,46.378
726.00,46.508
727.00,46.478
728.00,46.559
729.00,46.702
730.00,46.770
731.00,46.827
732.00,46.920
733.00,47.017
734.00,47.088
735.00,47.198
736.00,47.227
737.00,47.313
738.00,47.395
739.00,47.458
740.00,47.601
741.00,47.685
742.00,47.731
743.00,47.713
744.00,47.870
745.00,47.936
746.00,47.904
747.00,47.983
748.00,47.949
749.00,47.940
750.00,48.075
751.00,48.131
752.00,48.204
753.00,48.217
754.00,48.280
755.00,48.326
756.00,48.310
757.00,48.382
758.00,48.379
759.00,48.587
760.00,48.511
761.00,48.615
762.00,48.612
763.00,48.703
764.00,48.778
765.00,48.820
766.00,48.793
767.00,48.812
768.00,48.943
769.00,48.975
770.00,48.989
771.00,49.037
772.00,49.126
773.00,49.152
774.00,49.163
775.00,49.221
776.00,49.224
777.00,49.283
778.00,49.328
779.00,49.355
780.00,49.379
781.00,49.398
782.00,49.469
783.00,49.419
784.00,49.465
785.00,49.485
786.00,49.476
787.00,49.500
788.00,49.544
789.00,49.525
790.00,49.489
791.00,49.584
792.00,49.634
793.00,49.590
794.00,49.619
795.00,49.664
796.00,49.663
797.00,49.575
798.00,49.654
799.00,49.675
800.00,49.657
801.00,49.603
802.00,49.664
803.00,49.691
804.00,49.607
805.00,49.712
806.00,49.630
807.00,49.704
808.00,49.725
809.00,49.682
810.00,49.755
811.00,49.655
812.00,49.769
813.00,49.679
814.00,49.746
815.00,49.670
816.00,49.713
817.00,49.835
818.00,49.674
819.00,49.695
820.00,49.622
821.00,49.690
822.00,49.655
823.00,49.701
824.00,49.634
825.00,49.648
826.00,49.712
827.00,49.874
828.00,49.744
829.00,49.688
830.00,49.726
831.00,52.200
832.00,52.229
833.00,52.208
834.00,52.209
835.00,52.191
836.00,52.234
837.00,52.190
838.00,52.177
839.00,52.160
840.00,52.082
841.00,52.156
842.00,52.108
843.00,52.146
844.00,52.167
845.00,52.083
846.00,52.175
847.00,52.109
848.00,52.101
849.00,52.039
850.00,52.065
851.00,51.956
852.00,52.005
853.00,51.965
854.00,51.985
855.00,51.910
856.00,51.940
857.00,51.903
858.00,51.877
859.00,51.891
860.00,51.880
861.00,51.905
862.00,51.826
863.00,51.880
864.00,51.807
865.00,51.851
866.00,51.792
867.00,51.819
868.00,51.830
869.00,51.784
870.00,51.825
871.00,51.815
872.00,51.817
873.00,51.797
874.00,51.806
875.00,51.789
876.00,51.806
877.00,51.791
878.00,51.778
879.00,51.739
880.00,51.763
881.00,51.717
882.00,51.747
883.00,51.730
884.00,51.681
885.00,51.679
886.00,51.655
887.00,51.636
888.00,51.642
889.00,51.614
890.00,51.617
891.00,51.585
892.00,51.583
893.00,51.552
894.00,51.556
895.00,51.531
896.00,51.499
897.00,51.499
898.00,51.491
899.00,51.475
900.00,51.477
901.00,51.473
902.00,51.482
903.00,51.433
904.00,51.413
905.00,51.404
906.00,51.395
907.00,51.379
908.00,51.357
909.00,51.358
910.00,51.320
911.00,51.313
912.00,51.339
913.00,51.255
914.00,51.320
915.00,51.199
916.00,51.245
917.00,51.210
918.00,51.207
919.00,51.206
920.00,51.138
921.00,51.136
922.00,51.127
923.00,51.104
924.00,51.070
925.00,51.081
926.00,51.067
927.00,51.061
928.00,51.023
929.00,51.038
930.00,50.994
931.00,50.988
932.00,50.939
933.00,50.972
934.00,50.931
935.00,50.918
936.00,50.917
937.00,50.891
938.00,50.880
939.00,50.878
940.00,50.826
941.00,50.843
942.00,50.811
943.00,50.810
944.00,50.755
945.00,50.749
946.00,50.752
947.00,50.722
948.00,50.712
949.00,50.705
950.00,50.686
951.00,50.672
952.00,50.643
953.00,50.600
954.00,50.597
955.00,50.550
956.00,50.548
957.00,50.513
958.00,50.534
959.00,50.466
960.00,50.472
961.00,50.442
962.00,50.450
963.00,50.406
964.00,50.399
965.00,50.417
966.00,50.396
967.00,50.395
968.00,50.373
969.00,50.400
970.00,50.352
971.00,50.389
972.00,50.353
973.00,50.371
974.00,50.413
975.00,50.358
976.00,50.397
977.00,50.360
978.00,50.397
979.00,50.362
980.00,50.392
981.00,50.405
982.00,50.367
983.00,50.377
984.00,50.354
985.00,50.393
986.00,50.326
987.00,50.347
988.00,50.342
989.00,50.307
990.00,50.323
991.00,50.298
992.00,50.311
993.00,50.288
994.00,50.263
995.00,50.276
996.00,50.255
997.00,50.255
998.00,50.228
999.00,50.249
1000.00,50.186
1001.00,50.204
1002.00,50.187
1003.00,50.182
1004.00,50.185
1005.00,50.113
1006.00,50.194
1007.00,50.131
1008.00,50.114
1009.00,50.104
1010.00,50.091
1011.00,50.074
1012.00,50.048
1013.00,50.066
1014.00,50.021
1015.00,50.052
1016.00,50.003
1017.00,49.990
1018.00,49.989
1019.00,49.931
1020.00,49.933
1021.00,49.920
1022.00,49.899
1023.00,49.878
1024.00,49.880
1025.00,49.884
1026.00,49.847
1027.00,49.823
1028.00,49.815
1029.00,49.828
1030.00,49.770
1031.00,49.807
1032.00,49.764
1033.00,49.745
1034.00,49.735
1035.00,49.699
1036.00,49.675
1037.00,49.658
1038.00,49.638
1039.00,49.607
1040.00,49.610
1041.00,49.563
1042.00,49.574
1043.00,49.546
1044.00,49.559
1045.00,49.556
1046.00,49.552
1047.00,49.562
1048.00,49.577
1049.00,49.586
1050.00,49.594
1051.00,49.618
1052.00,49.617
1053.00,49.632
1054.00,49.622
1055.00,49.635
1056.00,49.662
1057.00,49.663
1058.00,49.653
1059.00,49.653
1060.00,49.653
1061.00,49.648
1062.00,49.633
1063.00,49.637
1064.00,49.629
1065.00,49.617
1066.00,49.602
1067.00,49.597
1068.00,49.605
1069.00,49.561
1070.00,49.563
1071.00,49.535
1072.00,49.546
1073.00,49.520
1074.00,49.515
1075.00,49.514
1076.00,49.513
1077.00,49.480
1078.00,49.479
1079.00,49.464
1080.00,49.471
1081.00,49.458
1082.00,49.448
1083.00,49.449
1084.00,49.453
1085.00,49.425
1086.00,49.423
1087.00,49.417
1088.00,49.391
1089.00,49.398
1090.00,49.389
1091.00,49.372
1092.00,49.372
1093.00,49.349
1094.00,49.342
1095.00,49.334
1096.00,49.307
1097.00,49.300
1098.00,49.304
1099.00,49.283
1100.00,49.278
1101.00,49.271
1102.00,49.256
1103.00,49.264
1104.00,49.244
1105.00,49.225
1106.00,49.225
1107.00,49.207
1108.00,49.212
1109.00,49.202
1110.00,49.194
1111.00,49.199
1112.00,49.183
1113.00,49.164
1114.00,49.168
1115.00,49.164
1116.00,49.152
1117.00,49.135
1118.00,49.122
1119.00,49.116
1120.00,49.123
1121.00,49.113
1122.00,49.102
1123.00,49.099
1124.00,49.087
1125.00,49.074
1126.00,49.062
1127.00,49.065
1128.00,49.062
1129.00,49.034
1130.00,49.025
1131.00,49.028
1132.00,49.008
1133.00,49.017
1134.00,49.018
1135.00,48.991
1136.00,49.002
1137.00,48.982
1138.00,48.989
1139.00,49.008
1140.00,48.984
1141.00,48.968
1142.00,48.971
1143.00,48.963
1144.00,48.950
1145.00,48.945
1146.00,48.954
1147.00,48.946
1148.00,48.925
1149.00,48.934
1150.00,48.928
1151.00,48.924
1152.00,48.919
1153.00,48.921
1154.00,48.891
1155.00,48.912
1156.00,48.897
1157.00,48.899
1158.00,48.901
1159.00,48.901
1160.00,48.898
1161.00,48.911
1162.00,48.877
1163.00,48.885
1164.00,48.877
1165.00,48.855
1166.00,48.873
1167.00,48.855
1168.00,48.859
1169.00,48.860
1170.00,48.861
1171.00,48.837
1172.00,48.850
1173.00,48.832
1174.00,48.848
1175.00,48.847
1176.00,48.834
1177.00,48.830
1178.00,48.832
1179.00,48.846
1180.00,48.832
1181.00,48.839
1182.00,48.841
1183.00,48.845
1184.00,48.815
1185.00,48.844
1186.00,48.826
1187.00,48.823
1188.00,48.825
1189.00,48.823
1190.00,48.817
1191.00,48.812
1192.00,48.823
1193.00,48.808
1194.00,48.821
1195.00,48.776
1196.00,48.797
1197.00,48.805
1198.00,48.790
1199.00,48.813
1200.00,48.811
1201.00,48.790
1202.00,48.791
1203.00,48.786
1204.00,48.773
1205.00,48.795
1206.00,48.772
1207.00,48.791
1208.00,48.777
1209.00,48.760
1210.00,48.787
1211.00,48.769
1212.00,48.780
1213.00,48.755
1214.00,48.768
1215.00,48.756
1216.00,48.778
1217.00,48.779
1218.00,48.772
1219.00,48.782
1220.00,48.753
1221.00,48.776
1222.00,48.749
1223.00,48.774
1224.00,48.775
1225.00,48.750
1226.00,48.762
1227.00,48.758
1228.00,48.756
1229.00,48.750
1230.00,48.794
1231.00,48.777
1232.00,48.802
1233.00,48.806
1234.00,48.801
1235.00,48.805
1236.00,48.790
1237.00,48.794
1238.00,48.806
1239.00,48.801
1240.00,48.795
1241.00,48.814
1242.00,48.792
1243.00,48.829
1244.00,48.800
1245.00,48.810
1246.00,48.839
1247.00,48.832
1248.00,48.816
1249.00,48.824
1250.00,48.817
1251.00,48.821
1252.00,48.842
1253.00,48.810
1254.00,48.845
1255.00,48.833
1256.00,48.805
1257.00,48.805
1258.00,48.852
1259.00,48.832
1260.00,48.868
1261.00,48.860
1262.00,48.849
1263.00,48.845
1264.00,48.855
1265.00,48.865
1266.00,48.860
1267.00,48.865
1268.00,48.896
1269.00,48.871
1270.00,48.882
1271.00,48.889
1272.00,48.883
1273.00,48.891
1274.00,48.900
1275.00,48.892
1276.00,48.910
1277.00,48.910
1278.00,48.917
1279.00,48.927
1280.00,48.920
1281.00,48.931
1282.00,48.947
1283.00,48.909
1284.00,48.931
1285.00,48.918
1286.00,48.916
1287.00,48.912
1288.00,48.935
1289.00,48.917
1290.00,48.952
1291.00,48.945
1292.00,48.957
1293.00,48.955
1294.00,48.969
1295.00,48.974
1296.00,48.988
1297.00,48.971
1298.00,49.003
1299.00,48.984
1300.00,48.994
1301.00,48.999
1302.00,48.999
1303.00,49.023
1304.00,49.006
1305.00,49.005
1306.00,49.014
1307.00,49.026
1308.00,49.003
1309.00,49.016
1310.00,49.013
1311.00,49.004
1312.00,49.036
1313.00,49.026
1314.00,49.034
1315.00,49.053
1316.00,49.036
1317.00,49.073
1318.00,49.063
1319.00,49.046
1320.00,49.099
1321.00,49.248
1322.00,49.282
1323.00,49.263
1324.00,49.249
1325.00,49.229
1326.00,49.271
1327.00,49.246
1328.00,49.238
1329.00,49.237
1330.00,49.238
1331.00,49.256
1332.00,49.253
1333.00,49.245
1334.00,49.306
1335.00,49.296
1336.00,49.336
1337.00,49.377
1338.00,49.418
1339.00,49.459
1340.00,49.525
1341.00,49.580
1342.00,49.655
1343.00,49.696
1344.00,49.747
1345.00,49.813
1346.00,49.833
1347.00,49.861
1348.00,49.901
1349.00,49.901
1350.00,49.915
1351.00,49.923
1352.00,49.923
1353.00,49.948
1354.00,49.932
1355.00,49.906
1356.00,49.950
1357.00,49.942
1358.00,49.926
1359.00,50.010
1360.00,50.061
1361.00,50.266
1362.00,49.854
1363.00,49.969
1364.00,49.999
1365.00,49.936
1366.00,50.009
1367.00,49.968
1368.00,49.895
1369.00,49.940
1370.00,49.942
1371.00,49.882
1372.00,49.919
1373.00,49.915
1374.00,49.941
1375.00,49.913
1376.00,49.909
1377.00,49.889
1378.00,49.990
1379.00,49.902
1380.00,49.930
1381.00,49.950
1382.00,49.847
1383.00,49.905
1384.00,49.868
1385.00,49.865
1386.00,49.923
1387.00,49.873
1388.00,49.869
1389.00,49.867
1390.00,49.930
1391.00,49.895
1392.00,49.906
1393.00,49.875
1394.00,49.891
1395.00,49.880
1396.00,49.834
1397.00,49.884
1398.00,49.914
1399.00,49.858
1400.00,49.858
1401.00,49.878
1402.00,49.908
1403.00,49.922
1404.00,49.918
1405.00,49.935
1406.00,49.928
1407.00,49.945
1408.00,49.939
1409.00,49.923
1410.00,49.968
1411.00,49.971
1412.00,49.986
1413.00,49.962
1414.00,49.969
1415.00,49.982
1416.00,50.022
1417.00,50.011
1418.00,50.019
1419.00,50.023
1420.00,50.047
1421.00,50.046
1422.00,50.072
1423.00,50.107
1424.00,50.101
1425.00,50.114
1426.00,50.111
1427.00,50.132
1428.00,50.140
1429.00,50.153
1430.00,50.163
1431.00,50.174
1432.00,50.176
1433.00,50.213
1434.00,50.181
1435.00,50.221
1436.00,50.257
1437.00,50.268
1438.00,50.272
1439.00,50.301
1440.00,50.298
1441.00,50.305
1442.00,50.313
1443.00,50.339
1444.00,50.383
1445.00,50.367
1446.00,50.406
1447.00,50.439
1448.00,50.421
1449.00,50.437
1450.00,50.432
1451.00,50.461
1452.00,50.468
1453.00,50.494
1454.00,50.509
1455.00,50.531
1456.00,50.514
1457.00,50.541
1458.00,50.570
1459.00,50.572
1460.00,50.597
1461.00,50.597
1462.00,50.609
1463.00,50.649
1464.00,50.640
1465.00,50.655
1466.00,50.664
1467.00,50.660
1468.00,50.715
1469.00,50.721
1470.00,50.722
1471.00,50.731
1472.00,50.748
1473.00,50.766
1474.00,50.818
1475.00,50.806
1476.00,50.804
1477.00,50.817
1478.00,50.811
1479.00,50.833
1480.00,50.847
1481.00,50.839
1482.00,50.872
1483.00,50.874
1484.00,50.876
1485.00,50.911
1486.00,50.887
1487.00,50.922
1488.00,50.949
1489.00,50.925
1490.00,50.961
1491.00,50.970
1492.00,50.980
1493.00,50.977
1494.00,50.996
1495.00,50.990
1496.00,51.002
1497.00,51.009
1498.00,51.015
1499.00,51.048
1500.00,51.046
1501.00, 
1502.00, 
1503.00, 
1504.00, 
1505.00, 
1506.00, 
1507.00, 
1508.00, 
1509.00, 
1510.00, 
1511.00, 
1512.00, 
1513.00, 
1514.00, 
1515.00, 
1516.00, 
1517.00, 
1518.00, 
1519.00, 
1520.00, 
1521.00, 
1522.00, 
1523.00, 
1524.00, 
1525.00, 
1526.00, 
1527.00, 
1528.00, 
1529.00, 
1530.00, 
1531.00, 
1532.00, 
1533.00, 
1534.00, 
1535.00, 
1536.00, 
1537.00, 
1538.00, 
1539.00, 
1540.00, 
1541.00, 
1542.00, 
1543.00, 
1544.00, 
1545.00, 
1546.00, 
1547.00, 
1548.00, 
1549.00, 
1550.00, 
1551.00, 
1552.00, 
1553.00, 
1554.00, 
1555.00, 
1556.00, 
1557.00, 
1558.00, 
1559.00, 
1560.00, 
1561.00, 
1562.00, 
1563.00, 
1564.00, 
1565.00, 
1566.00, 
1567.00, 
1568.00, 
1569.00, 
1570.00, 
1571.00, 
1572.00, 
1573.00, 
1574.00, 
1575.00, 
1576.00, 
1577.00, 
1578.00, 
1579.00, 
1580.00, 
1581.00, 
1582.00, 
1583.00, 
1584.00, 
1585.00, 
1586.00, 
1587.00, 
1588.00, 
1589.00, 
1590.00, 
1591.00, 
1592.00, 
1593.00, 
1594.00, 
1595.00, 
1596.00, 
1597.00, 
1598.00, 
1599.00, 
1600.00, 
1601.00, 
1602.00, 
1603.00, 
1604.00, 
1605.00, 
1606.00, 
1607.00, 
1608.00, 
1609.00, 
1610.00, 
1611.00, 
1612.00, 
1613.00, 
1614.00, 
1615.00, 
1616.00, 
1617.00, 
1618.00, 
1619.00, 
1620.00, 
1621.00, 
1622.00, 
1623.00, 
1624.00, 
1625.00, 
1626.00, 
1627.00, 
1628.00, 
1629.00, 
1630.00, 
1631.00, 
1632.00, 
1633.00, 
1634.00, 
1635.00, 
1636.00, 
1637.00, 
1638.00, 
1639.00, 
1640.00, 
1641.00, 
1642.00, 
1643.00, 
1644.00, 
1645.00, 
1646.00, 
1647.00, 
1648.00, 
1649.00, 
1650.00, 
1651.00, 
1652.00, 
1653.00, 
1654.00, 
1655.00, 
1656.00, 
1657.00, 
1658.00, 
1659.00, 
1660.00, 
1661.00, 
1662.00, 
1663.00, 
1664.00, 
1665.00, 
1666.00, 
1667.00, 
1668.00, 
1669.00, 
1670.00, 
1671.00, 
1672.00, 
1673.00, 
1674.00, 
1675.00, 
1676.00, 
1677.00, 
1678.00, 
1679.00, 
1680.00, 
1681.00, 
1682.00, 
1683.00, 
1684.00, 
1685.00, 
1686.00, 
1687.00, 
1688.00, 
1689.00, 
1690.00, 
1691.00, 
1692.00, 
1693.00, 
1694.00, 
1695.00, 
1696.00, 
1697.00, 
1698.00, 
1699.00, 
1700.00, 
1701.00, 
1702.00, 
1703.00, 
1704.00, 
1705.00, 
1706.00, 
1707.00, 
1708.00, 
1709.00, 
1710.00, 
1711.00, 
1712.00, 
1713.00, 
1714.00, 
1715.00, 
1716.00, 
1717.00, 
1718.00, 
1719.00, 
1720.00, 
1721.00, 
1722.00, 
1723.00, 
1724.00, 
1725.00, 
1726.00, 
1727.00, 
1728.00, 
1729.00, 
1730.00, 
1731.00, 
1732.00, 
1733.00, 
1734.00, 
1735.00, 
1736.00, 
1737.00, 
1738.00, 
1739.00, 
1740.00, 
1741.00, 
1742.00, 
1743.00, 
1744.00, 
1745.00, 
1746.00, 
1747.00, 
1748.00, 
1749.00, 
1750.00, 
1751.00, 
1752.00, 
1753.00, 
1754.00, 
1755.00, 
1756.00, 
1757.00, 
1758.00, 
1759.00, 
1760.00, 
1761.00, 
1762.00, 
1763.00, 
1764.00, 
1765.00, 
1766.00, 
1767.00, 
1768.00, 
1769.00, 
1770.00, 
1771.00, 
1772.00, 
1773.00, 
1774.00, 
1775.00, 
1776.00, 
1777.00, 
1778.00, 
1779.00, 
1780.00, 
1781.00, 
1782.00, 
1783.00, 
1784.00, 
1785.00, 
1786.00, 
1787.00, 
1788.00, 
1789.00, 
1790.00, 
1791.00, 
1792.00, 
1793.00, 
1794.00, 
1795.00, 
1796.00, 
1797.00, 
1798.00, 
1799.00, 
1800.00, 
1801.00, 
1802.00, 
1803.00, 
1804.00, 
1805.00, 
1806.00, 
1807.00, 
1808.00, 
1809.00, 
1810.00, 
1811.00, 
1812.00, 
1813.00, 
1814.00, 
1815.00, 
1816.00, 
1817.00, 
1818.00, 
1819.00, 
1820.00, 
1821.00, 
1822.00, 
1823.00, 
1824.00, 
1825.00, 
1826.00, 
1827.00, 
1828.00, 
1829.00, 
1830.00, 
1831.00, 
1832.00, 
1833.00, 
1834.00, 
1835.00, 
1836.00, 
1837.00, 
1838.00, 
1839.00, 
1840.00, 
1841.00, 
1842.00, 
1843.00, 
1844.00, 
1845.00, 
1846.00, 
1847.00, 
1848.00, 
1849.00, 
1850.00, 
1851.00, 
1852.00, 
1853.00, 
1854.00, 
1855.00, 
1856.00, 
1857.00, 
1858.00, 
1859.00, 
1860.00, 
1861.00, 
1862.00, 
1863.00, 
1864.00, 
1865.00, 
1866.00, 
1867.00, 
1868.00, 
1869.00, 
1870.00, 
1871.00, 
1872.00, 
1873.00, 
1874.00, 
1875.00, 
1876.00, 
1877.00, 
1878.00, 
1879.00, 
1880.00, 
1881.00, 
1882.00, 
1883.00, 
1884.00, 
1885.00, 
1886.00, 
1887.00, 
1888.00, 
1889.00, 
1890.00, 
1891.00, 
1892.00, 
1893.00, 
1894.00, 
1895.00, 
1896.00, 
1897.00, 
1898.00, 
1899.00, 
1900.00, 
1901.00, 
1902.00, 
1903.00, 
1904.00, 
1905.00, 
1906.00, 
1907.00, 
1908.00, 
1909.00, 
1910.00, 
1911.00, 
1912.00, 
1913.00, 
1914.00, 
1915.00, 
1916.00, 
1917.00, 
1918.00, 
1919.00, 
1920.00, 
1921.00, 
1922.00, 
1923.00, 
1924.00, 
1925.00, 
1926.00, 
1927.00, 
1928.00, 
1929.00, 
1930.00, 
1931.00, 
1932.00, 
1933.00, 
1934.00, 
1935.00, 
1936.00, 
1937.00, 
1938.00, 
1939.00, 
1940.00, 
1941.00, 
1942.00, 
1943.00, 
1944.00, 
1945.00, 
1946.00, 
1947.00, 
1948.00, 
1949.00, 
1950.00, 
1951.00, 
1952.00, 
1953.00, 
1954.00, 
1955.00, 
1956.00, 
1957.00, 
1958.00, 
1959.00, 
1960.00, 
1961.00, 
1962.00, 
1963.00, 
1964.00, 
1965.00, 
1966.00, 
1967.00, 
1968.00, 
1969.00, 
1970.00, 
1971.00, 
1972.00, 
1973.00, 
1974.00, 
1975.00, 
1976.00, 
1977.00, 
1978.00, 
1979.00, 
1980.00, 
1981.00, 
1982.00, 
1983.00, 
1984.00, 
1985.00, 
1986.00, 
1987.00, 
1988.00, 
1989.00, 
1990.00, 
1991.00, 
1992.00, 
1993.00, 
1994.00, 
1995.00, 
1996.00, 
1997.00, 
1998.00, 
1999.00, 
2000.00, 
2001.00, 
2002.00, 
2003.00, 
2004.00, 
2005.00, 
2006.00, 
2007.00, 
2008.00, 
2009.00, 
2010.00, 
2011.00, 
2012.00, 
2013.00, 
2014.00, 
2015.00, 
2016.00, 
2017.00, 
2018.00, 
2019.00, 
2020.00, 
2021.00, 
2022.00, 
2023.00, 
2024.00, 
2025.00, 
2026.00, 
2027.00, 
2028.00, 
2029.00, 
2030.00, 
2031.00, 
2032.00, 
2033.00, 
2034.00, 
2035.00, 
2036.00, 
2037.00, 
2038.00, 
2039.00, 
2040.00, 
2041.00, 
2042.00, 
2043.00, 
2044.00, 
2045.00, 
2046.00, 
2047.00, 
2048.00, 
2049.00, 
2050.00, 
2051.00, 
2052.00, 
2053.00, 
2054.00, 
2055.00, 
2056.00, 
2057.00, 
2058.00, 
2059.00, 
2060.00, 
2061.00, 
2062.00, 
2063.00, 
2064.00, 
2065.00, 
2066.00, 
2067.00, 
2068.00, 
2069.00, 
2070.00, 
2071.00, 
2072.00, 
2073.00, 
2074.00, 
2075.00, 
2076.00, 
2077.00, 
2078.00, 
2079.00, 
2080.00, 
2081.00, 
2082.00, 
2083.00, 
2084.00, 
2085.00, 
2086.00, 
2087.00, 
2088.00, 
2089.00, 
2090.00, 
2091.00, 
2092.00, 
2093.00, 
2094.00, 
2095.00, 
2096.00, 
2097.00, 
2098.00, 
2099.00, 
2100.00, 
2101.00, 
2102.00, 
2103.00, 
2104.00, 
2105.00, 
2106.00, 
2107.00, 
2108.00, 
2109.00, 
2110.00, 
2111.00, 
2112.00, 
2113.00, 
2114.00, 
2115.00, 
2116.00, 
2117.00, 
2118.00, 
2119.00, 
2120.00, 
2121.00, 
2122.00, 
2123.00, 
2124.00, 
2125.00, 
2126.00, 
2127.00, 
2128.00, 
2129.00, 
2130.00, 
2131.00, 
2132.00, 
2133.00, 
2134.00, 
2135.00, 
2136.00, 
2137.00, 
2138.00, 
2139.00, 
2140.00, 
2141.00, 
2142.00, 
2143.00, 
2144.00, 
2145.00, 
2146.00, 
2147.00, 
2148.00, 
2149.00, 
2150.00, 
2151.00, 
2152.00, 
2153.00, 
2154.00, 
2155.00, 
2156.00, 
2157.00, 
2158.00, 
2159.00, 
2160.00, 
2161.00, 
2162.00, 
2163.00, 
2164.00, 
2165.00, 
2166.00, 
2167.00, 
2168.00, 
2169.00, 
2170.00, 
2171.00, 
2172.00, 
2173.00, 
2174.00, 
2175.00, 
2176.00, 
2177.00, 
2178.00, 
2179.00, 
2180.00, 
2181.00, 
2182.00, 
2183.00, 
2184.00, 
2185.00, 
2186.00, 
2187.00, 
2188.00, 
2189.00, 
2190.00, 
2191.00, 
2192.00, 
2193.00, 
2194.00, 
2195.00, 
2196.00, 
2197.00, 
2198.00, 
2199.00, 
2200.00, 
2201.00, 
2202.00, 
2203.00, 
2204.00, 
2205.00, 
2206.00, 
2207.00, 
2208.00, 
2209.00, 
2210.00, 
2211.00, 
2212.00, 
2213.00, 
2214.00, 
2215.00, 
2216.00, 
2217.00, 
2218.00, 
2219.00, 
2220.00, 
2221.00, 
2222.00, 
2223.00, 
2224.00, 
2225.00, 
2226.00, 
2227.00, 
2228.00, 
2229.00, 
2230.00, 
2231.00, 
2232.00, 
2233.00, 
2234.00, 
2235.00, 
2236.00, 
2237.00, 
2238.00, 
2239.00, 
2240.00, 
2241.00, 
2242.00, 
2243.00, 
2244.00, 
2245.00, 
2246.00, 
2247.00, 
2248.00, 
2249.00, 
2250.00, 
2251.00, 
2252.00, 
2253.00, 
2254.00, 
2255.00, 
2256.00, 
2257.00, 
2258.00, 
2259.00, 
2260.00, 
2261.00, 
2262.00, 
2263.00, 
2264.00, 
2265.00, 
2266.00, 
2267.00, 
2268.00, 
2269.00, 
2270.00, 
2271.00, 
2272.00, 
2273.00, 
2274.00, 
2275.00, 
2276.00, 
2277.00, 
2278.00, 
2279.00, 
2280.00, 
2281.00, 
2282.00, 
2283.00, 
2284.00, 
2285.00, 
2286.00, 
2287.00, 
2288.00, 
2289.00, 
2290.00, 
2291.00, 
2292.00, 
2293.00, 
2294.00, 
2295.00, 
2296.00, 
2297.00, 
2298.00, 
2299.00, 
2300.00, 
2301.00, 
2302.00, 
2303.00, 
2304.00, 
2305.00, 
2306.00, 
2307.00, 
2308.00, 
2309.00, 
2310.00, 
2311.00, 
2312.00, 
2313.00, 
2314.00, 
2315.00, 
2316.00, 
2317.00, 
2318.00, 
2319.00, 
2320.00, 
2321.00, 
2322.00, 
2323.00, 
2324.00, 
2325.00, 
2326.00, 
2327.00, 
2328.00, 
2329.00, 
2330.00, 
2331.00, 
2332.00, 
2333.00, 
2334.00, 
2335.00, 
2336.00, 
2337.00, 
2338.00, 
2339.00, 
2340.00, 
2341.00, 
2342.00, 
2343.00, 
2344.00, 
2345.00, 
2346.00, 
2347.00, 
2348.00, 
2349.00, 
2350.00, 
2351.00, 
2352.00, 
2353.00, 
2354.00, 
2355.00, 
2356.00, 
2357.00, 
2358.00, 
2359.00, 
2360.00, 
2361.00, 
2362.00, 
2363.00, 
2364.00, 
2365.00, 
2366.00, 
2367.00, 
2368.00, 
2369.00, 
2370.00, 
2371.00, 
2372.00, 
2373.00, 
2374.00, 
2375.00, 
2376.00, 
2377.00, 
2378.00, 
2379.00, 
2380.00, 
2381.00, 
2382.00, 
2383.00, 
2384.00, 
2385.00, 
2386.00, 
2387.00, 
2388.00, 
2389.00, 
2390.00, 
2391.00, 
2392.00, 
2393.00, 
2394.00, 
2395.00, 
2396.00, 
2397.00, 
2398.00, 
2399.00, 
2400.00, 
2401.00, 
2402.00, 
2403.00, 
2404.00, 
2405.00, 
2406.00, 
2407.00, 
2408.00, 
2409.00, 
2410.00, 
2411.00, 
2412.00, 
2413.00, 
2414.00, 
2415.00, 
2416.00, 
2417.00, 
2418.00, 
2419.00, 
2420.00, 
2421.00, 
2422.00, 
2423.00, 
2424.00, 
2425.00, 
2426.00, 
2427.00, 
2428.00, 
2429.00, 
2430.00, 
2431.00, 
2432.00, 
2433.00, 
2434.00, 
2435.00, 
2436.00, 
2437.00, 
2438.00, 
2439.00, 
2440.00, 
2441.00, 
2442.00, 
2443.00, 
2444.00, 
2445.00, 
2446.00, 
2447.00, 
2448.00, 
2449.00, 
2450.00, 
2451.00, 
2452.00, 
2453.00, 
2454.00, 
2455.00, 
2456.00, 
2457.00, 
2458.00, 
2459.00, 
2460.00, 
2461.00, 
2462.00, 
2463.00, 
2464.00, 
2465.00, 
2466.00, 
2467.00, 
2468.00, 
2469.00, 
2470.00, 
2471.00, 
2472.00, 
2473.00, 
2474.00, 
2475.00, 
2476.00, 
2477.00, 
2478.00, 
2479.00, 
2480.00, 
2481.00, 
2482.00, 
2483.00, 
2484.00, 
2485.00, 
2486.00, 
2487.00, 
2488.00, 
2489.00, 
2490.00, 
2491.00, 
2492.00, 
2493.00, 
2494.00, 
2495.00, 
2496.00, 
2497.00, 
2498.00, 
2499.00, 
2500.00, 
2501.00, 
2502.00, 
2503.00, 
2504.00, 
2505.00, 
2506.00, 
2507.00, 
2508.00, 
2509.00, 
2510.00, 
2511.00, 
2512.00, 
2513.00, 
2514.00, 
2515.00, 
2516.00, 
2517.00, 
2518.00, 
2519.00, 
2520.00, 
2521.00, 
2522.00, 
2523.00, 
2524.00, 
2525.00, 
2526.00, 
2527.00, 
2528.00, 
2529.00, 
2530.00, 
2531.00, 
2532.00, 
2533.00, 
2534.00, 
2535.00, 
2536.00, 
2537.00, 
2538.00, 
2539.00, 
2540.00, 
2541.00, 
2542.00, 
2543.00, 
2544.00, 
2545.00, 
2546.00, 
2547.00, 
2548.00, 
2549.00, 
2550.00, 
2551.00, 
2552.00, 
2553.00, 
2554.00, 
2555.00, 
2556.00, 
2557.00, 
2558.00, 
2559.00, 
2560.00, 
2561.00, 
2562.00, 
2563.00, 
2564.00, 
2565.00, 
2566.00, 
2567.00, 
2568.00, 
2569.00, 
2570.00, 
2571.00, 
2572.00, 
2573.00, 
2574.00, 
2575.00, 
2576.00, 
2577.00, 
2578.00, 
2579.00, 
2580.00, 
2581.00, 
2582.00, 
2583.00, 
2584.00, 
2585.00, 
2586.00, 
2587.00, 
2588.00, 
2589.00, 
2590.00, 
2591.00, 
2592.00, 
2593.00, 
2594.00, 
2595.00, 
2596.00, 
2597.00, 
2598.00, 
2599.00, 
2600.00, 
