"2cP2 - RawData"
"Wavelength nm.","T%"
200.00,-0.000
201.00,0.002
202.00,0.002
203.00,-0.001
204.00,0.004
205.00,0.000
206.00,-0.001
207.00,0.004
208.00,0.002
209.00,0.002
210.00,-0.002
211.00,0.002
212.00,0.002
213.00,0.000
214.00,0.001
215.00,-0.000
216.00,0.001
217.00,0.002
218.00,0.002
219.00,0.001
220.00,-0.003
221.00,0.002
222.00,-0.001
223.00,0.002
224.00,0.001
225.00,-0.001
226.00,0.002
227.00,-0.002
228.00,-0.000
229.00,0.001
230.00,-0.001
231.00,0.000
232.00,0.000
233.00,-0.003
234.00,-0.000
235.00,0.002
236.00,0.001
237.00,-0.001
238.00,0.000
239.00,0.000
240.00,0.001
241.00,0.001
242.00,0.002
243.00,0.000
244.00,0.001
245.00,0.000
246.00,-0.001
247.00,0.000
248.00,0.000
249.00,0.001
250.00,0.001
251.00,0.000
252.00,-0.001
253.00,0.000
254.00,0.001
255.00,0.000
256.00,0.000
257.00,0.001
258.00,0.001
259.00,0.001
260.00,-0.000
261.00,-0.002
262.00,-0.001
263.00,0.001
264.00,0.000
265.00,-0.001
266.00,-0.000
267.00,-0.001
268.00,0.001
269.00,0.000
270.00,0.001
271.00,0.000
272.00,0.001
273.00,0.001
274.00,0.001
275.00,-0.000
276.00,0.001
277.00,-0.000
278.00,-0.001
279.00,0.002
280.00,-0.001
281.00,-0.001
282.00,0.001
283.00,-0.001
284.00,-0.001
285.00,-0.000
286.00,-0.001
287.00,0.000
288.00,-0.000
289.00,0.001
290.00,0.001
291.00,0.001
292.00,-0.001
293.00,-0.000
294.00,-0.001
295.00,0.001
296.00,0.001
297.00,-0.001
298.00,0.001
299.00,0.002
300.00,0.003
301.00,0.003
302.00,0.004
303.00,0.008
304.00,0.010
305.00,0.019
306.00,0.029
307.00,0.044
308.00,0.069
309.00,0.108
310.00,0.151
311.00,0.203
312.00,0.273
313.00,0.368
314.00,0.490
315.00,0.644
316.00,0.816
317.00,1.023
318.00,1.270
319.00,1.548
320.00,1.890
321.00,2.269
322.00,2.686
323.00,3.161
324.00,3.666
325.00,4.181
326.00,4.732
327.00,5.352
328.00,5.976
329.00,6.612
330.00,7.282
331.00,7.947
332.00,8.655
333.00,9.370
334.00,10.070
335.00,10.816
336.00,11.514
337.00,12.246
338.00,12.942
339.00,13.570
340.00,14.237
341.00,14.958
342.00,15.519
343.00,16.128
344.00,16.739
345.00,17.233
346.00,17.786
347.00,18.224
348.00,18.572
349.00,19.144
350.00,19.571
351.00,19.929
352.00,20.284
353.00,20.627
354.00,20.966
355.00,21.260
356.00,21.575
357.00,21.784
358.00,22.095
359.00,22.284
360.00,22.497
361.00,22.656
362.00,22.839
363.00,23.004
364.00,23.173
365.00,23.257
366.00,23.386
367.00,23.444
368.00,23.524
369.00,23.595
370.00,23.662
371.00,23.737
372.00,23.729
373.00,23.671
374.00,23.669
375.00,23.681
376.00,23.595
377.00,23.573
378.00,23.470
379.00,23.443
380.00,23.429
381.00,23.379
382.00,23.372
383.00,23.382
384.00,23.399
385.00,23.383
386.00,23.383
387.00,23.439
388.00,23.455
389.00,23.434
390.00,23.464
391.00,23.517
392.00,23.538
393.00,23.512
394.00,23.549
395.00,23.532
396.00,23.504
397.00,23.545
398.00,23.520
399.00,23.517
400.00,23.543
401.00,23.516
402.00,23.519
403.00,23.488
404.00,23.465
405.00,23.431
406.00,23.444
407.00,23.342
408.00,23.344
409.00,23.291
410.00,23.247
411.00,23.211
412.00,23.146
413.00,23.161
414.00,23.158
415.00,23.141
416.00,23.164
417.00,23.166
418.00,23.162
419.00,23.188
420.00,23.208
421.00,23.164
422.00,23.180
423.00,23.214
424.00,23.206
425.00,23.218
426.00,23.270
427.00,23.271
428.00,23.292
429.00,23.324
430.00,23.377
431.00,23.385
432.00,23.398
433.00,23.475
434.00,23.521
435.00,23.527
436.00,23.600
437.00,23.646
438.00,23.710
439.00,23.784
440.00,23.816
441.00,23.899
442.00,23.972
443.00,24.007
444.00,24.088
445.00,24.165
446.00,24.259
447.00,24.337
448.00,24.428
449.00,24.524
450.00,24.575
451.00,24.682
452.00,24.773
453.00,24.865
454.00,24.947
455.00,25.049
456.00,25.179
457.00,25.271
458.00,25.349
459.00,25.417
460.00,25.578
461.00,25.650
462.00,25.764
463.00,25.896
464.00,26.028
465.00,26.134
466.00,26.229
467.00,26.340
468.00,26.442
469.00,26.581
470.00,26.645
471.00,26.754
472.00,26.878
473.00,26.930
474.00,27.036
475.00,27.173
476.00,27.261
477.00,27.368
478.00,27.503
479.00,27.615
480.00,27.769
481.00,27.923
482.00,28.061
483.00,28.225
484.00,28.289
485.00,28.429
486.00,28.577
487.00,28.741
488.00,28.871
489.00,29.037
490.00,29.163
491.00,29.313
492.00,29.468
493.00,29.602
494.00,29.733
495.00,29.729
496.00,29.842
497.00,30.010
498.00,30.141
499.00,30.280
500.00,30.416
501.00,30.486
502.00,30.633
503.00,30.752
504.00,30.807
505.00,30.952
506.00,31.141
507.00,31.224
508.00,31.317
509.00,31.485
510.00,31.594
511.00,31.700
512.00,31.808
513.00,31.958
514.00,32.093
515.00,32.190
516.00,32.325
517.00,32.428
518.00,32.576
519.00,32.659
520.00,32.734
521.00,32.804
522.00,32.884
523.00,32.967
524.00,33.022
525.00,33.174
526.00,33.298
527.00,33.413
528.00,33.483
529.00,33.591
530.00,33.685
531.00,33.834
532.00,33.900
533.00,33.988
534.00,34.132
535.00,34.196
536.00,34.287
537.00,34.350
538.00,34.478
539.00,34.514
540.00,34.587
541.00,34.661
542.00,34.731
543.00,34.776
544.00,34.851
545.00,34.992
546.00,35.008
547.00,35.090
548.00,35.186
549.00,35.226
550.00,35.341
551.00,35.419
552.00,35.440
553.00,35.521
554.00,35.698
555.00,35.766
556.00,35.770
557.00,35.831
558.00,35.905
559.00,35.958
560.00,36.059
561.00,36.096
562.00,36.119
563.00,36.256
564.00,36.296
565.00,36.337
566.00,36.307
567.00,36.383
568.00,36.449
569.00,36.507
570.00,36.524
571.00,36.607
572.00,36.652
573.00,36.653
574.00,36.714
575.00,36.718
576.00,36.735
577.00,36.835
578.00,36.905
579.00,36.980
580.00,37.034
581.00,37.172
582.00,37.261
583.00,37.312
584.00,37.442
585.00,37.442
586.00,37.499
587.00,37.579
588.00,37.591
589.00,37.645
590.00,37.706
591.00,37.683
592.00,37.716
593.00,37.768
594.00,37.828
595.00,37.844
596.00,37.916
597.00,37.916
598.00,38.100
599.00,38.147
600.00,38.192
601.00,38.242
602.00,38.277
603.00,38.374
604.00,38.391
605.00,38.456
606.00,38.552
607.00,38.557
608.00,38.630
609.00,38.610
610.00,38.678
611.00,38.732
612.00,38.772
613.00,38.789
614.00,38.800
615.00,38.901
616.00,38.951
617.00,39.017
618.00,39.054
619.00,39.077
620.00,39.186
621.00,39.199
622.00,39.255
623.00,39.281
624.00,39.364
625.00,39.446
626.00,39.469
627.00,39.569
628.00,39.606
629.00,39.672
630.00,39.731
631.00,39.714
632.00,39.780
633.00,39.878
634.00,39.966
635.00,40.008
636.00,40.124
637.00,40.222
638.00,40.304
639.00,40.360
640.00,40.396
641.00,40.371
642.00,40.442
643.00,40.555
644.00,40.623
645.00,40.644
646.00,40.774
647.00,40.792
648.00,40.951
649.00,41.048
650.00,41.099
651.00,41.179
652.00,41.278
653.00,41.319
654.00,41.396
655.00,41.463
656.00,41.606
657.00,41.587
658.00,41.721
659.00,41.739
660.00,41.898
661.00,41.883
662.00,42.188
663.00,42.120
664.00,42.314
665.00,42.315
666.00,42.486
667.00,42.544
668.00,42.600
669.00,42.873
670.00,42.789
671.00,42.893
672.00,42.928
673.00,43.089
674.00,43.113
675.00,43.207
676.00,43.368
677.00,43.351
678.00,43.409
679.00,43.463
680.00,43.554
681.00,43.655
682.00,43.726
683.00,43.834
684.00,44.066
685.00,44.105
686.00,44.114
687.00,44.200
688.00,44.208
689.00,44.268
690.00,44.482
691.00,44.502
692.00,44.541
693.00,44.626
694.00,44.571
695.00,44.647
696.00,44.866
697.00,44.943
698.00,45.027
699.00,45.315
700.00,45.182
701.00,45.271
702.00,45.466
703.00,45.473
704.00,45.694
705.00,45.692
706.00,45.705
707.00,45.690
708.00,45.612
709.00,45.959
710.00,45.969
711.00,45.943
712.00,46.031
713.00,46.173
714.00,46.214
715.00,46.366
716.00,46.433
717.00,46.499
718.00,46.500
719.00,46.576
720.00,46.653
721.00,50.829
722.00,50.822
723.00,50.842
724.00,50.867
725.00,50.876
726.00,50.917
727.00,50.929
728.00,50.969
729.00,50.955
730.00,50.974
731.00,50.992
732.00,51.035
733.00,51.114
734.00,51.149
735.00,51.121
736.00,51.172
737.00,51.200
738.00,51.279
739.00,51.254
740.00,51.276
741.00,51.347
742.00,51.356
743.00,51.296
744.00,51.340
745.00,51.379
746.00,51.372
747.00,51.370
748.00,51.404
749.00,51.282
750.00,51.289
751.00,51.327
752.00,51.404
753.00,51.394
754.00,51.384
755.00,51.372
756.00,51.333
757.00,51.367
758.00,51.315
759.00,51.468
760.00,51.371
761.00,51.418
762.00,51.408
763.00,51.402
764.00,51.442
765.00,51.517
766.00,51.435
767.00,51.368
768.00,51.489
769.00,51.478
770.00,51.512
771.00,51.541
772.00,51.502
773.00,51.514
774.00,51.569
775.00,51.588
776.00,51.537
777.00,51.574
778.00,51.538
779.00,51.578
780.00,51.589
781.00,51.556
782.00,51.534
783.00,51.524
784.00,51.546
785.00,51.509
786.00,51.554
787.00,51.540
788.00,51.555
789.00,51.567
790.00,51.501
791.00,51.493
792.00,51.492
793.00,51.482
794.00,51.450
795.00,51.471
796.00,51.403
797.00,51.326
798.00,51.431
799.00,51.454
800.00,51.391
801.00,51.317
802.00,51.324
803.00,51.293
804.00,51.371
805.00,51.351
806.00,51.264
807.00,51.306
808.00,51.251
809.00,51.217
810.00,51.205
811.00,51.176
812.00,51.244
813.00,51.132
814.00,51.155
815.00,51.096
816.00,51.169
817.00,51.198
818.00,51.107
819.00,51.065
820.00,51.031
821.00,51.145
822.00,51.029
823.00,51.033
824.00,51.012
825.00,50.988
826.00,51.009
827.00,51.060
828.00,50.955
829.00,50.980
830.00,50.922
831.00,53.475
832.00,53.536
833.00,53.475
834.00,53.473
835.00,53.391
836.00,53.423
837.00,53.379
838.00,53.364
839.00,53.381
840.00,53.294
841.00,53.328
842.00,53.302
843.00,53.293
844.00,53.297
845.00,53.184
846.00,53.254
847.00,53.194
848.00,53.206
849.00,53.106
850.00,53.133
851.00,53.036
852.00,53.074
853.00,53.006
854.00,53.024
855.00,52.925
856.00,52.935
857.00,52.917
858.00,52.883
859.00,52.877
860.00,52.875
861.00,52.845
862.00,52.755
863.00,52.837
864.00,52.760
865.00,52.794
866.00,52.754
867.00,52.784
868.00,52.761
869.00,52.689
870.00,52.745
871.00,52.699
872.00,52.721
873.00,52.650
874.00,52.693
875.00,52.671
876.00,52.662
877.00,52.635
878.00,52.624
879.00,52.600
880.00,52.613
881.00,52.538
882.00,52.591
883.00,52.559
884.00,52.490
885.00,52.471
886.00,52.480
887.00,52.449
888.00,52.444
889.00,52.446
890.00,52.465
891.00,52.357
892.00,52.397
893.00,52.346
894.00,52.348
895.00,52.281
896.00,52.259
897.00,52.243
898.00,52.237
899.00,52.214
900.00,52.198
901.00,52.194
902.00,52.201
903.00,52.157
904.00,52.151
905.00,52.148
906.00,52.116
907.00,52.097
908.00,52.038
909.00,52.040
910.00,52.003
911.00,51.999
912.00,52.008
913.00,51.980
914.00,52.001
915.00,51.880
916.00,51.941
917.00,51.890
918.00,51.821
919.00,51.971
920.00,51.802
921.00,51.798
922.00,51.787
923.00,51.765
924.00,51.697
925.00,51.702
926.00,51.703
927.00,51.707
928.00,51.650
929.00,51.659
930.00,51.644
931.00,51.650
932.00,51.560
933.00,51.583
934.00,51.705
935.00,51.548
936.00,51.521
937.00,51.503
938.00,51.470
939.00,51.488
940.00,51.428
941.00,51.448
942.00,51.414
943.00,51.418
944.00,51.370
945.00,51.379
946.00,51.368
947.00,51.312
948.00,51.291
949.00,51.269
950.00,51.259
951.00,51.246
952.00,51.215
953.00,51.163
954.00,51.170
955.00,51.121
956.00,51.127
957.00,51.067
958.00,51.090
959.00,51.024
960.00,51.025
961.00,51.010
962.00,50.998
963.00,50.936
964.00,50.942
965.00,50.951
966.00,50.930
967.00,50.934
968.00,50.901
969.00,50.948
970.00,50.910
971.00,50.927
972.00,50.894
973.00,50.906
974.00,50.940
975.00,50.882
976.00,50.919
977.00,50.916
978.00,50.947
979.00,50.881
980.00,50.916
981.00,50.923
982.00,50.861
983.00,50.896
984.00,50.885
985.00,50.916
986.00,50.848
987.00,50.873
988.00,50.853
989.00,50.826
990.00,50.833
991.00,50.807
992.00,50.822
993.00,50.782
994.00,50.761
995.00,50.790
996.00,50.752
997.00,50.772
998.00,50.723
999.00,50.753
1000.00,50.687
1001.00,50.683
1002.00,50.667
1003.00,50.639
1004.00,50.634
1005.00,50.591
1006.00,50.647
1007.00,50.599
1008.00,50.596
1009.00,50.586
1010.00,50.570
1011.00,50.551
1012.00,50.506
1013.00,50.534
1014.00,50.489
1015.00,50.504
1016.00,50.450
1017.00,50.461
1018.00,50.455
1019.00,50.413
1020.00,50.426
1021.00,50.400
1022.00,50.406
1023.00,50.348
1024.00,50.359
1025.00,50.353
1026.00,50.329
1027.00,50.304
1028.00,50.290
1029.00,50.293
1030.00,50.254
1031.00,50.278
1032.00,50.237
1033.00,50.215
1034.00,50.195
1035.00,50.159
1036.00,50.126
1037.00,50.105
1038.00,50.086
1039.00,50.060
1040.00,50.063
1041.00,50.008
1042.00,50.001
1043.00,49.985
1044.00,50.001
1045.00,49.997
1046.00,49.989
1047.00,50.006
1048.00,50.014
1049.00,50.037
1050.00,50.039
1051.00,50.045
1052.00,50.045
1053.00,50.072
1054.00,50.088
1055.00,50.104
1056.00,50.097
1057.00,50.099
1058.00,50.095
1059.00,50.083
1060.00,50.099
1061.00,50.080
1062.00,50.052
1063.00,50.064
1064.00,50.056
1065.00,50.035
1066.00,50.024
1067.00,50.024
1068.00,50.034
1069.00,49.982
1070.00,49.976
1071.00,49.951
1072.00,49.976
1073.00,49.958
1074.00,49.962
1075.00,49.948
1076.00,49.935
1077.00,49.912
1078.00,49.904
1079.00,49.894
1080.00,49.889
1081.00,49.872
1082.00,49.858
1083.00,49.858
1084.00,49.864
1085.00,49.858
1086.00,49.853
1087.00,49.846
1088.00,49.829
1089.00,49.819
1090.00,49.812
1091.00,49.800
1092.00,49.779
1093.00,49.758
1094.00,49.742
1095.00,49.742
1096.00,49.716
1097.00,49.714
1098.00,49.720
1099.00,49.695
1100.00,49.695
1101.00,49.710
1102.00,49.705
1103.00,49.688
1104.00,49.658
1105.00,49.654
1106.00,49.666
1107.00,49.696
1108.00,49.635
1109.00,49.696
1110.00,49.620
1111.00,49.619
1112.00,49.606
1113.00,49.581
1114.00,49.582
1115.00,49.585
1116.00,49.566
1117.00,49.551
1118.00,49.550
1119.00,49.549
1120.00,49.538
1121.00,49.523
1122.00,49.522
1123.00,49.511
1124.00,49.494
1125.00,49.489
1126.00,49.478
1127.00,49.489
1128.00,49.479
1129.00,49.467
1130.00,49.449
1131.00,49.446
1132.00,49.428
1133.00,49.427
1134.00,49.427
1135.00,49.412
1136.00,49.410
1137.00,49.403
1138.00,49.405
1139.00,49.413
1140.00,49.400
1141.00,49.399
1142.00,49.386
1143.00,49.385
1144.00,49.367
1145.00,49.360
1146.00,49.361
1147.00,49.340
1148.00,49.338
1149.00,49.351
1150.00,49.351
1151.00,49.341
1152.00,49.322
1153.00,49.329
1154.00,49.315
1155.00,49.331
1156.00,49.312
1157.00,49.308
1158.00,49.301
1159.00,49.300
1160.00,49.304
1161.00,49.306
1162.00,49.292
1163.00,49.301
1164.00,49.293
1165.00,49.281
1166.00,49.286
1167.00,49.276
1168.00,49.284
1169.00,49.271
1170.00,49.274
1171.00,49.249
1172.00,49.258
1173.00,49.255
1174.00,49.270
1175.00,49.266
1176.00,49.253
1177.00,49.249
1178.00,49.242
1179.00,49.252
1180.00,49.242
1181.00,49.258
1182.00,49.249
1183.00,49.242
1184.00,49.225
1185.00,49.239
1186.00,49.218
1187.00,49.225
1188.00,49.219
1189.00,49.220
1190.00,49.223
1191.00,49.213
1192.00,49.227
1193.00,49.226
1194.00,49.239
1195.00,49.214
1196.00,49.234
1197.00,49.225
1198.00,49.212
1199.00,49.207
1200.00,49.199
1201.00,49.209
1202.00,49.197
1203.00,49.197
1204.00,49.185
1205.00,49.194
1206.00,49.187
1207.00,49.201
1208.00,49.194
1209.00,49.179
1210.00,49.173
1211.00,49.161
1212.00,49.177
1213.00,49.148
1214.00,49.177
1215.00,49.161
1216.00,49.172
1217.00,49.179
1218.00,49.172
1219.00,49.191
1220.00,49.168
1221.00,49.184
1222.00,49.164
1223.00,49.179
1224.00,49.175
1225.00,49.155
1226.00,49.159
1227.00,49.152
1228.00,49.166
1229.00,49.160
1230.00,49.202
1231.00,49.190
1232.00,49.210
1233.00,49.206
1234.00,49.205
1235.00,49.200
1236.00,49.196
1237.00,49.215
1238.00,49.226
1239.00,49.228
1240.00,49.209
1241.00,49.215
1242.00,49.210
1243.00,49.234
1244.00,49.213
1245.00,49.230
1246.00,49.238
1247.00,49.233
1248.00,49.235
1249.00,49.237
1250.00,49.223
1251.00,49.227
1252.00,49.250
1253.00,49.229
1254.00,49.257
1255.00,49.240
1256.00,49.230
1257.00,49.213
1258.00,49.271
1259.00,49.244
1260.00,49.273
1261.00,49.265
1262.00,49.267
1263.00,49.265
1264.00,49.264
1265.00,49.270
1266.00,49.279
1267.00,49.278
1268.00,49.289
1269.00,49.287
1270.00,49.308
1271.00,49.303
1272.00,49.307
1273.00,49.318
1274.00,49.317
1275.00,49.310
1276.00,49.315
1277.00,49.309
1278.00,49.307
1279.00,49.311
1280.00,49.310
1281.00,49.326
1282.00,49.332
1283.00,49.351
1284.00,49.319
1285.00,49.325
1286.00,49.335
1287.00,49.331
1288.00,49.358
1289.00,49.332
1290.00,49.352
1291.00,49.355
1292.00,49.364
1293.00,49.363
1294.00,49.377
1295.00,49.378
1296.00,49.384
1297.00,49.382
1298.00,49.404
1299.00,49.383
1300.00,49.399
1301.00,49.401
1302.00,49.413
1303.00,49.430
1304.00,49.413
1305.00,49.419
1306.00,49.420
1307.00,49.428
1308.00,49.418
1309.00,49.440
1310.00,49.452
1311.00,49.443
1312.00,49.444
1313.00,49.447
1314.00,49.463
1315.00,49.477
1316.00,49.469
1317.00,49.505
1318.00,49.495
1319.00,49.494
1320.00,49.525
1321.00,49.636
1322.00,49.676
1323.00,49.654
1324.00,49.645
1325.00,49.630
1326.00,49.649
1327.00,49.642
1328.00,49.647
1329.00,49.646
1330.00,49.655
1331.00,49.659
1332.00,49.651
1333.00,49.658
1334.00,49.691
1335.00,49.679
1336.00,49.719
1337.00,49.749
1338.00,49.805
1339.00,49.852
1340.00,49.903
1341.00,49.967
1342.00,50.047
1343.00,50.082
1344.00,50.136
1345.00,50.197
1346.00,50.219
1347.00,50.246
1348.00,50.279
1349.00,50.280
1350.00,50.306
1351.00,50.311
1352.00,50.304
1353.00,50.335
1354.00,50.334
1355.00,50.323
1356.00,50.360
1357.00,50.335
1358.00,50.367
1359.00,50.393
1360.00,50.391
1361.00,50.352
1362.00,50.360
1363.00,50.390
1364.00,50.416
1365.00,50.342
1366.00,50.390
1367.00,50.363
1368.00,50.309
1369.00,50.358
1370.00,50.330
1371.00,50.270
1372.00,50.327
1373.00,50.316
1374.00,50.342
1375.00,50.315
1376.00,50.307
1377.00,50.288
1378.00,50.316
1379.00,50.296
1380.00,50.323
1381.00,50.328
1382.00,50.254
1383.00,50.306
1384.00,50.263
1385.00,50.278
1386.00,50.328
1387.00,50.298
1388.00,50.278
1389.00,50.255
1390.00,50.329
1391.00,50.325
1392.00,50.302
1393.00,50.255
1394.00,50.292
1395.00,50.318
1396.00,50.243
1397.00,50.282
1398.00,50.294
1399.00,50.281
1400.00,50.296
1401.00,50.289
1402.00,50.306
1403.00,50.300
1404.00,50.321
1405.00,50.338
1406.00,50.334
1407.00,50.359
1408.00,50.357
1409.00,50.336
1410.00,50.380
1411.00,50.368
1412.00,50.397
1413.00,50.371
1414.00,50.381
1415.00,50.395
1416.00,50.439
1417.00,50.425
1418.00,50.438
1419.00,50.443
1420.00,50.445
1421.00,50.477
1422.00,50.475
1423.00,50.485
1424.00,50.507
1425.00,50.526
1426.00,50.521
1427.00,50.551
1428.00,50.553
1429.00,50.569
1430.00,50.578
1431.00,50.602
1432.00,50.610
1433.00,50.629
1434.00,50.609
1435.00,50.647
1436.00,50.648
1437.00,50.661
1438.00,50.673
1439.00,50.701
1440.00,50.706
1441.00,50.718
1442.00,50.727
1443.00,50.761
1444.00,50.789
1445.00,50.773
1446.00,50.799
1447.00,50.820
1448.00,50.835
1449.00,50.857
1450.00,50.831
1451.00,50.863
1452.00,50.871
1453.00,50.886
1454.00,50.913
1455.00,50.934
1456.00,50.945
1457.00,50.956
1458.00,50.985
1459.00,50.989
1460.00,51.004
1461.00,51.012
1462.00,51.043
1463.00,51.058
1464.00,51.040
1465.00,51.072
1466.00,51.084
1467.00,51.093
1468.00,51.144
1469.00,51.128
1470.00,51.144
1471.00,51.161
1472.00,51.174
1473.00,51.181
1474.00,51.203
1475.00,51.206
1476.00,51.218
1477.00,51.211
1478.00,51.215
1479.00,51.241
1480.00,51.244
1481.00,51.251
1482.00,51.292
1483.00,51.288
1484.00,51.307
1485.00,51.323
1486.00,51.295
1487.00,51.344
1488.00,51.364
1489.00,51.332
1490.00,51.366
1491.00,51.372
1492.00,51.387
1493.00,51.380
1494.00,51.403
1495.00,51.419
1496.00,51.419
1497.00,51.421
1498.00,51.432
1499.00,51.453
1500.00,51.447
1501.00, 
1502.00, 
1503.00, 
1504.00, 
1505.00, 
1506.00, 
1507.00, 
1508.00, 
1509.00, 
1510.00, 
1511.00, 
1512.00, 
1513.00, 
1514.00, 
1515.00, 
1516.00, 
1517.00, 
1518.00, 
1519.00, 
1520.00, 
1521.00, 
1522.00, 
1523.00, 
1524.00, 
1525.00, 
1526.00, 
1527.00, 
1528.00, 
1529.00, 
1530.00, 
1531.00, 
1532.00, 
1533.00, 
1534.00, 
1535.00, 
1536.00, 
1537.00, 
1538.00, 
1539.00, 
1540.00, 
1541.00, 
1542.00, 
1543.00, 
1544.00, 
1545.00, 
1546.00, 
1547.00, 
1548.00, 
1549.00, 
1550.00, 
1551.00, 
1552.00, 
1553.00, 
1554.00, 
1555.00, 
1556.00, 
1557.00, 
1558.00, 
1559.00, 
1560.00, 
1561.00, 
1562.00, 
1563.00, 
1564.00, 
1565.00, 
1566.00, 
1567.00, 
1568.00, 
1569.00, 
1570.00, 
1571.00, 
1572.00, 
1573.00, 
1574.00, 
1575.00, 
1576.00, 
1577.00, 
1578.00, 
1579.00, 
1580.00, 
1581.00, 
1582.00, 
1583.00, 
1584.00, 
1585.00, 
1586.00, 
1587.00, 
1588.00, 
1589.00, 
1590.00, 
1591.00, 
1592.00, 
1593.00, 
1594.00, 
1595.00, 
1596.00, 
1597.00, 
1598.00, 
1599.00, 
1600.00, 
1601.00, 
1602.00, 
1603.00, 
1604.00, 
1605.00, 
1606.00, 
1607.00, 
1608.00, 
1609.00, 
1610.00, 
1611.00, 
1612.00, 
1613.00, 
1614.00, 
1615.00, 
1616.00, 
1617.00, 
1618.00, 
1619.00, 
1620.00, 
1621.00, 
1622.00, 
1623.00, 
1624.00, 
1625.00, 
1626.00, 
1627.00, 
1628.00, 
1629.00, 
1630.00, 
1631.00, 
1632.00, 
1633.00, 
1634.00, 
1635.00, 
1636.00, 
1637.00, 
1638.00, 
1639.00, 
1640.00, 
1641.00, 
1642.00, 
1643.00, 
1644.00, 
1645.00, 
1646.00, 
1647.00, 
1648.00, 
1649.00, 
1650.00, 
1651.00, 
1652.00, 
1653.00, 
1654.00, 
1655.00, 
1656.00, 
1657.00, 
1658.00, 
1659.00, 
1660.00, 
1661.00, 
1662.00, 
1663.00, 
1664.00, 
1665.00, 
1666.00, 
1667.00, 
1668.00, 
1669.00, 
1670.00, 
1671.00, 
1672.00, 
1673.00, 
1674.00, 
1675.00, 
1676.00, 
1677.00, 
1678.00, 
1679.00, 
1680.00, 
1681.00, 
1682.00, 
1683.00, 
1684.00, 
1685.00, 
1686.00, 
1687.00, 
1688.00, 
1689.00, 
1690.00, 
1691.00, 
1692.00, 
1693.00, 
1694.00, 
1695.00, 
1696.00, 
1697.00, 
1698.00, 
1699.00, 
1700.00, 
1701.00, 
1702.00, 
1703.00, 
1704.00, 
1705.00, 
1706.00, 
1707.00, 
1708.00, 
1709.00, 
1710.00, 
1711.00, 
1712.00, 
1713.00, 
1714.00, 
1715.00, 
1716.00, 
1717.00, 
1718.00, 
1719.00, 
1720.00, 
1721.00, 
1722.00, 
1723.00, 
1724.00, 
1725.00, 
1726.00, 
1727.00, 
1728.00, 
1729.00, 
1730.00, 
1731.00, 
1732.00, 
1733.00, 
1734.00, 
1735.00, 
1736.00, 
1737.00, 
1738.00, 
1739.00, 
1740.00, 
1741.00, 
1742.00, 
1743.00, 
1744.00, 
1745.00, 
1746.00, 
1747.00, 
1748.00, 
1749.00, 
1750.00, 
1751.00, 
1752.00, 
1753.00, 
1754.00, 
1755.00, 
1756.00, 
1757.00, 
1758.00, 
1759.00, 
1760.00, 
1761.00, 
1762.00, 
1763.00, 
1764.00, 
1765.00, 
1766.00, 
1767.00, 
1768.00, 
1769.00, 
1770.00, 
1771.00, 
1772.00, 
1773.00, 
1774.00, 
1775.00, 
1776.00, 
1777.00, 
1778.00, 
1779.00, 
1780.00, 
1781.00, 
1782.00, 
1783.00, 
1784.00, 
1785.00, 
1786.00, 
1787.00, 
1788.00, 
1789.00, 
1790.00, 
1791.00, 
1792.00, 
1793.00, 
1794.00, 
1795.00, 
1796.00, 
1797.00, 
1798.00, 
1799.00, 
1800.00, 
1801.00, 
1802.00, 
1803.00, 
1804.00, 
1805.00, 
1806.00, 
1807.00, 
1808.00, 
1809.00, 
1810.00, 
1811.00, 
1812.00, 
1813.00, 
1814.00, 
1815.00, 
1816.00, 
1817.00, 
1818.00, 
1819.00, 
1820.00, 
1821.00, 
1822.00, 
1823.00, 
1824.00, 
1825.00, 
1826.00, 
1827.00, 
1828.00, 
1829.00, 
1830.00, 
1831.00, 
1832.00, 
1833.00, 
1834.00, 
1835.00, 
1836.00, 
1837.00, 
1838.00, 
1839.00, 
1840.00, 
1841.00, 
1842.00, 
1843.00, 
1844.00, 
1845.00, 
1846.00, 
1847.00, 
1848.00, 
1849.00, 
1850.00, 
1851.00, 
1852.00, 
1853.00, 
1854.00, 
1855.00, 
1856.00, 
1857.00, 
1858.00, 
1859.00, 
1860.00, 
1861.00, 
1862.00, 
1863.00, 
1864.00, 
1865.00, 
1866.00, 
1867.00, 
1868.00, 
1869.00, 
1870.00, 
1871.00, 
1872.00, 
1873.00, 
1874.00, 
1875.00, 
1876.00, 
1877.00, 
1878.00, 
1879.00, 
1880.00, 
1881.00, 
1882.00, 
1883.00, 
1884.00, 
1885.00, 
1886.00, 
1887.00, 
1888.00, 
1889.00, 
1890.00, 
1891.00, 
1892.00, 
1893.00, 
1894.00, 
1895.00, 
1896.00, 
1897.00, 
1898.00, 
1899.00, 
1900.00, 
1901.00, 
1902.00, 
1903.00, 
1904.00, 
1905.00, 
1906.00, 
1907.00, 
1908.00, 
1909.00, 
1910.00, 
1911.00, 
1912.00, 
1913.00, 
1914.00, 
1915.00, 
1916.00, 
1917.00, 
1918.00, 
1919.00, 
1920.00, 
1921.00, 
1922.00, 
1923.00, 
1924.00, 
1925.00, 
1926.00, 
1927.00, 
1928.00, 
1929.00, 
1930.00, 
1931.00, 
1932.00, 
1933.00, 
1934.00, 
1935.00, 
1936.00, 
1937.00, 
1938.00, 
1939.00, 
1940.00, 
1941.00, 
1942.00, 
1943.00, 
1944.00, 
1945.00, 
1946.00, 
1947.00, 
1948.00, 
1949.00, 
1950.00, 
1951.00, 
1952.00, 
1953.00, 
1954.00, 
1955.00, 
1956.00, 
1957.00, 
1958.00, 
1959.00, 
1960.00, 
1961.00, 
1962.00, 
1963.00, 
1964.00, 
1965.00, 
1966.00, 
1967.00, 
1968.00, 
1969.00, 
1970.00, 
1971.00, 
1972.00, 
1973.00, 
1974.00, 
1975.00, 
1976.00, 
1977.00, 
1978.00, 
1979.00, 
1980.00, 
1981.00, 
1982.00, 
1983.00, 
1984.00, 
1985.00, 
1986.00, 
1987.00, 
1988.00, 
1989.00, 
1990.00, 
1991.00, 
1992.00, 
1993.00, 
1994.00, 
1995.00, 
1996.00, 
1997.00, 
1998.00, 
1999.00, 
2000.00, 
2001.00, 
2002.00, 
2003.00, 
2004.00, 
2005.00, 
2006.00, 
2007.00, 
2008.00, 
2009.00, 
2010.00, 
2011.00, 
2012.00, 
2013.00, 
2014.00, 
2015.00, 
2016.00, 
2017.00, 
2018.00, 
2019.00, 
2020.00, 
2021.00, 
2022.00, 
2023.00, 
2024.00, 
2025.00, 
2026.00, 
2027.00, 
2028.00, 
2029.00, 
2030.00, 
2031.00, 
2032.00, 
2033.00, 
2034.00, 
2035.00, 
2036.00, 
2037.00, 
2038.00, 
2039.00, 
2040.00, 
2041.00, 
2042.00, 
2043.00, 
2044.00, 
2045.00, 
2046.00, 
2047.00, 
2048.00, 
2049.00, 
2050.00, 
2051.00, 
2052.00, 
2053.00, 
2054.00, 
2055.00, 
2056.00, 
2057.00, 
2058.00, 
2059.00, 
2060.00, 
2061.00, 
2062.00, 
2063.00, 
2064.00, 
2065.00, 
2066.00, 
2067.00, 
2068.00, 
2069.00, 
2070.00, 
2071.00, 
2072.00, 
2073.00, 
2074.00, 
2075.00, 
2076.00, 
2077.00, 
2078.00, 
2079.00, 
2080.00, 
2081.00, 
2082.00, 
2083.00, 
2084.00, 
2085.00, 
2086.00, 
2087.00, 
2088.00, 
2089.00, 
2090.00, 
2091.00, 
2092.00, 
2093.00, 
2094.00, 
2095.00, 
2096.00, 
2097.00, 
2098.00, 
2099.00, 
2100.00, 
2101.00, 
2102.00, 
2103.00, 
2104.00, 
2105.00, 
2106.00, 
2107.00, 
2108.00, 
2109.00, 
2110.00, 
2111.00, 
2112.00, 
2113.00, 
2114.00, 
2115.00, 
2116.00, 
2117.00, 
2118.00, 
2119.00, 
2120.00, 
2121.00, 
2122.00, 
2123.00, 
2124.00, 
2125.00, 
2126.00, 
2127.00, 
2128.00, 
2129.00, 
2130.00, 
2131.00, 
2132.00, 
2133.00, 
2134.00, 
2135.00, 
2136.00, 
2137.00, 
2138.00, 
2139.00, 
2140.00, 
2141.00, 
2142.00, 
2143.00, 
2144.00, 
2145.00, 
2146.00, 
2147.00, 
2148.00, 
2149.00, 
2150.00, 
2151.00, 
2152.00, 
2153.00, 
2154.00, 
2155.00, 
2156.00, 
2157.00, 
2158.00, 
2159.00, 
2160.00, 
2161.00, 
2162.00, 
2163.00, 
2164.00, 
2165.00, 
2166.00, 
2167.00, 
2168.00, 
2169.00, 
2170.00, 
2171.00, 
2172.00, 
2173.00, 
2174.00, 
2175.00, 
2176.00, 
2177.00, 
2178.00, 
2179.00, 
2180.00, 
2181.00, 
2182.00, 
2183.00, 
2184.00, 
2185.00, 
2186.00, 
2187.00, 
2188.00, 
2189.00, 
2190.00, 
2191.00, 
2192.00, 
2193.00, 
2194.00, 
2195.00, 
2196.00, 
2197.00, 
2198.00, 
2199.00, 
2200.00, 
2201.00, 
2202.00, 
2203.00, 
2204.00, 
2205.00, 
2206.00, 
2207.00, 
2208.00, 
2209.00, 
2210.00, 
2211.00, 
2212.00, 
2213.00, 
2214.00, 
2215.00, 
2216.00, 
2217.00, 
2218.00, 
2219.00, 
2220.00, 
2221.00, 
2222.00, 
2223.00, 
2224.00, 
2225.00, 
2226.00, 
2227.00, 
2228.00, 
2229.00, 
2230.00, 
2231.00, 
2232.00, 
2233.00, 
2234.00, 
2235.00, 
2236.00, 
2237.00, 
2238.00, 
2239.00, 
2240.00, 
2241.00, 
2242.00, 
2243.00, 
2244.00, 
2245.00, 
2246.00, 
2247.00, 
2248.00, 
2249.00, 
2250.00, 
2251.00, 
2252.00, 
2253.00, 
2254.00, 
2255.00, 
2256.00, 
2257.00, 
2258.00, 
2259.00, 
2260.00, 
2261.00, 
2262.00, 
2263.00, 
2264.00, 
2265.00, 
2266.00, 
2267.00, 
2268.00, 
2269.00, 
2270.00, 
2271.00, 
2272.00, 
2273.00, 
2274.00, 
2275.00, 
2276.00, 
2277.00, 
2278.00, 
2279.00, 
2280.00, 
2281.00, 
2282.00, 
2283.00, 
2284.00, 
2285.00, 
2286.00, 
2287.00, 
2288.00, 
2289.00, 
2290.00, 
2291.00, 
2292.00, 
2293.00, 
2294.00, 
2295.00, 
2296.00, 
2297.00, 
2298.00, 
2299.00, 
2300.00, 
2301.00, 
2302.00, 
2303.00, 
2304.00, 
2305.00, 
2306.00, 
2307.00, 
2308.00, 
2309.00, 
2310.00, 
2311.00, 
2312.00, 
2313.00, 
2314.00, 
2315.00, 
2316.00, 
2317.00, 
2318.00, 
2319.00, 
2320.00, 
2321.00, 
2322.00, 
2323.00, 
2324.00, 
2325.00, 
2326.00, 
2327.00, 
2328.00, 
2329.00, 
2330.00, 
2331.00, 
2332.00, 
2333.00, 
2334.00, 
2335.00, 
2336.00, 
2337.00, 
2338.00, 
2339.00, 
2340.00, 
2341.00, 
2342.00, 
2343.00, 
2344.00, 
2345.00, 
2346.00, 
2347.00, 
2348.00, 
2349.00, 
2350.00, 
2351.00, 
2352.00, 
2353.00, 
2354.00, 
2355.00, 
2356.00, 
2357.00, 
2358.00, 
2359.00, 
2360.00, 
2361.00, 
2362.00, 
2363.00, 
2364.00, 
2365.00, 
2366.00, 
2367.00, 
2368.00, 
2369.00, 
2370.00, 
2371.00, 
2372.00, 
2373.00, 
2374.00, 
2375.00, 
2376.00, 
2377.00, 
2378.00, 
2379.00, 
2380.00, 
2381.00, 
2382.00, 
2383.00, 
2384.00, 
2385.00, 
2386.00, 
2387.00, 
2388.00, 
2389.00, 
2390.00, 
2391.00, 
2392.00, 
2393.00, 
2394.00, 
2395.00, 
2396.00, 
2397.00, 
2398.00, 
2399.00, 
2400.00, 
2401.00, 
2402.00, 
2403.00, 
2404.00, 
2405.00, 
2406.00, 
2407.00, 
2408.00, 
2409.00, 
2410.00, 
2411.00, 
2412.00, 
2413.00, 
2414.00, 
2415.00, 
2416.00, 
2417.00, 
2418.00, 
2419.00, 
2420.00, 
2421.00, 
2422.00, 
2423.00, 
2424.00, 
2425.00, 
2426.00, 
2427.00, 
2428.00, 
2429.00, 
2430.00, 
2431.00, 
2432.00, 
2433.00, 
2434.00, 
2435.00, 
2436.00, 
2437.00, 
2438.00, 
2439.00, 
2440.00, 
2441.00, 
2442.00, 
2443.00, 
2444.00, 
2445.00, 
2446.00, 
2447.00, 
2448.00, 
2449.00, 
2450.00, 
2451.00, 
2452.00, 
2453.00, 
2454.00, 
2455.00, 
2456.00, 
2457.00, 
2458.00, 
2459.00, 
2460.00, 
2461.00, 
2462.00, 
2463.00, 
2464.00, 
2465.00, 
2466.00, 
2467.00, 
2468.00, 
2469.00, 
2470.00, 
2471.00, 
2472.00, 
2473.00, 
2474.00, 
2475.00, 
2476.00, 
2477.00, 
2478.00, 
2479.00, 
2480.00, 
2481.00, 
2482.00, 
2483.00, 
2484.00, 
2485.00, 
2486.00, 
2487.00, 
2488.00, 
2489.00, 
2490.00, 
2491.00, 
2492.00, 
2493.00, 
2494.00, 
2495.00, 
2496.00, 
2497.00, 
2498.00, 
2499.00, 
2500.00, 
2501.00, 
2502.00, 
2503.00, 
2504.00, 
2505.00, 
2506.00, 
2507.00, 
2508.00, 
2509.00, 
2510.00, 
2511.00, 
2512.00, 
2513.00, 
2514.00, 
2515.00, 
2516.00, 
2517.00, 
2518.00, 
2519.00, 
2520.00, 
2521.00, 
2522.00, 
2523.00, 
2524.00, 
2525.00, 
2526.00, 
2527.00, 
2528.00, 
2529.00, 
2530.00, 
2531.00, 
2532.00, 
2533.00, 
2534.00, 
2535.00, 
2536.00, 
2537.00, 
2538.00, 
2539.00, 
2540.00, 
2541.00, 
2542.00, 
2543.00, 
2544.00, 
2545.00, 
2546.00, 
2547.00, 
2548.00, 
2549.00, 
2550.00, 
2551.00, 
2552.00, 
2553.00, 
2554.00, 
2555.00, 
2556.00, 
2557.00, 
2558.00, 
2559.00, 
2560.00, 
2561.00, 
2562.00, 
2563.00, 
2564.00, 
2565.00, 
2566.00, 
2567.00, 
2568.00, 
2569.00, 
2570.00, 
2571.00, 
2572.00, 
2573.00, 
2574.00, 
2575.00, 
2576.00, 
2577.00, 
2578.00, 
2579.00, 
2580.00, 
2581.00, 
2582.00, 
2583.00, 
2584.00, 
2585.00, 
2586.00, 
2587.00, 
2588.00, 
2589.00, 
2590.00, 
2591.00, 
2592.00, 
2593.00, 
2594.00, 
2595.00, 
2596.00, 
2597.00, 
2598.00, 
2599.00, 
2600.00, 
