"2cP3 - RawData"
"Wavelength nm.","T%"
200.00,0.001
201.00,0.001
202.00,0.000
203.00,0.001
204.00,0.002
205.00,0.003
206.00,0.001
207.00,0.001
208.00,0.002
209.00,-0.001
210.00,0.000
211.00,0.001
212.00,-0.000
213.00,0.001
214.00,0.001
215.00,0.001
216.00,0.001
217.00,0.000
218.00,0.005
219.00,0.001
220.00,-0.000
221.00,0.000
222.00,-0.000
223.00,-0.000
224.00,0.001
225.00,0.000
226.00,0.001
227.00,0.002
228.00,0.002
229.00,-0.000
230.00,-0.002
231.00,-0.002
232.00,0.001
233.00,-0.000
234.00,-0.000
235.00,-0.001
236.00,-0.001
237.00,0.001
238.00,0.001
239.00,0.001
240.00,-0.000
241.00,0.001
242.00,0.002
243.00,0.000
244.00,0.002
245.00,0.000
246.00,0.003
247.00,-0.001
248.00,0.000
249.00,-0.001
250.00,-0.001
251.00,0.000
252.00,0.001
253.00,-0.001
254.00,0.001
255.00,0.002
256.00,-0.001
257.00,0.000
258.00,0.000
259.00,0.001
260.00,-0.001
261.00,0.001
262.00,0.000
263.00,-0.001
264.00,-0.001
265.00,0.001
266.00,0.001
267.00,0.001
268.00,-0.001
269.00,0.001
270.00,0.001
271.00,0.001
272.00,0.001
273.00,-0.001
274.00,0.001
275.00,0.001
276.00,-0.001
277.00,-0.000
278.00,0.001
279.00,0.000
280.00,-0.000
281.00,0.000
282.00,-0.001
283.00,-0.001
284.00,0.003
285.00,0.002
286.00,-0.000
287.00,-0.000
288.00,0.000
289.00,-0.000
290.00,0.001
291.00,-0.001
292.00,0.002
293.00,-0.001
294.00,0.000
295.00,-0.000
296.00,-0.000
297.00,-0.000
298.00,0.000
299.00,0.001
300.00,-0.000
301.00,0.003
302.00,0.003
303.00,0.007
304.00,0.010
305.00,0.012
306.00,0.020
307.00,0.030
308.00,0.049
309.00,0.076
310.00,0.102
311.00,0.137
312.00,0.194
313.00,0.261
314.00,0.340
315.00,0.439
316.00,0.564
317.00,0.699
318.00,0.875
319.00,1.064
320.00,1.296
321.00,1.557
322.00,1.831
323.00,2.159
324.00,2.518
325.00,2.851
326.00,3.203
327.00,3.626
328.00,4.050
329.00,4.467
330.00,4.911
331.00,5.365
332.00,5.836
333.00,6.317
334.00,6.766
335.00,7.249
336.00,7.718
337.00,8.205
338.00,8.658
339.00,9.067
340.00,9.525
341.00,9.964
342.00,10.321
343.00,10.743
344.00,11.108
345.00,11.442
346.00,11.764
347.00,12.065
348.00,12.354
349.00,12.655
350.00,12.890
351.00,13.104
352.00,13.353
353.00,13.557
354.00,13.760
355.00,13.947
356.00,14.110
357.00,14.282
358.00,14.410
359.00,14.582
360.00,14.683
361.00,14.746
362.00,14.852
363.00,14.967
364.00,15.049
365.00,15.077
366.00,15.155
367.00,15.173
368.00,15.230
369.00,15.236
370.00,15.266
371.00,15.254
372.00,15.272
373.00,15.243
374.00,15.241
375.00,15.197
376.00,15.147
377.00,15.125
378.00,15.051
379.00,15.042
380.00,14.994
381.00,14.953
382.00,14.936
383.00,14.963
384.00,14.922
385.00,14.936
386.00,14.897
387.00,14.956
388.00,14.943
389.00,14.933
390.00,14.934
391.00,14.955
392.00,14.942
393.00,14.927
394.00,14.961
395.00,14.907
396.00,14.904
397.00,14.881
398.00,14.911
399.00,14.893
400.00,14.912
401.00,14.891
402.00,14.899
403.00,14.874
404.00,14.854
405.00,14.857
406.00,14.843
407.00,14.796
408.00,14.793
409.00,14.757
410.00,14.738
411.00,14.728
412.00,14.691
413.00,14.700
414.00,14.693
415.00,14.685
416.00,14.710
417.00,14.730
418.00,14.728
419.00,14.766
420.00,14.798
421.00,14.782
422.00,14.809
423.00,14.828
424.00,14.828
425.00,14.898
426.00,14.912
427.00,14.936
428.00,14.965
429.00,14.986
430.00,15.038
431.00,15.068
432.00,15.103
433.00,15.179
434.00,15.214
435.00,15.245
436.00,15.321
437.00,15.378
438.00,15.429
439.00,15.502
440.00,15.538
441.00,15.636
442.00,15.687
443.00,15.744
444.00,15.838
445.00,15.869
446.00,15.987
447.00,16.074
448.00,16.164
449.00,16.247
450.00,16.348
451.00,16.425
452.00,16.533
453.00,16.627
454.00,16.716
455.00,16.833
456.00,16.932
457.00,17.018
458.00,17.112
459.00,17.228
460.00,17.362
461.00,17.452
462.00,17.604
463.00,17.703
464.00,17.824
465.00,17.942
466.00,18.036
467.00,18.174
468.00,18.306
469.00,18.413
470.00,18.525
471.00,18.634
472.00,18.758
473.00,18.825
474.00,18.961
475.00,19.065
476.00,19.185
477.00,19.317
478.00,19.442
479.00,19.572
480.00,19.724
481.00,19.876
482.00,20.007
483.00,20.184
484.00,20.234
485.00,20.437
486.00,20.600
487.00,20.732
488.00,20.899
489.00,21.045
490.00,21.182
491.00,21.335
492.00,21.489
493.00,21.675
494.00,21.806
495.00,21.841
496.00,21.932
497.00,22.129
498.00,22.285
499.00,22.448
500.00,22.542
501.00,22.668
502.00,22.837
503.00,22.956
504.00,23.086
505.00,23.225
506.00,23.347
507.00,23.466
508.00,23.583
509.00,23.731
510.00,23.844
511.00,23.996
512.00,24.142
513.00,24.279
514.00,24.426
515.00,24.554
516.00,24.685
517.00,24.836
518.00,24.970
519.00,25.033
520.00,25.138
521.00,25.218
522.00,25.329
523.00,25.446
524.00,25.527
525.00,25.640
526.00,25.806
527.00,25.919
528.00,26.022
529.00,26.160
530.00,26.278
531.00,26.384
532.00,26.500
533.00,26.609
534.00,26.741
535.00,26.798
536.00,26.910
537.00,26.960
538.00,27.085
539.00,27.159
540.00,27.245
541.00,27.309
542.00,27.389
543.00,27.465
544.00,27.505
545.00,27.603
546.00,27.623
547.00,27.809
548.00,27.895
549.00,27.955
550.00,28.113
551.00,28.231
552.00,28.317
553.00,28.444
554.00,28.522
555.00,28.570
556.00,28.651
557.00,28.693
558.00,28.776
559.00,28.917
560.00,29.002
561.00,29.032
562.00,29.121
563.00,29.144
564.00,29.258
565.00,29.281
566.00,29.298
567.00,29.390
568.00,29.417
569.00,29.502
570.00,29.531
571.00,29.631
572.00,29.668
573.00,29.704
574.00,29.795
575.00,29.830
576.00,29.842
577.00,29.932
578.00,30.009
579.00,30.065
580.00,30.161
581.00,30.306
582.00,30.355
583.00,30.442
584.00,30.550
585.00,30.573
586.00,30.628
587.00,30.741
588.00,30.745
589.00,30.789
590.00,30.869
591.00,30.870
592.00,30.930
593.00,31.013
594.00,31.076
595.00,31.123
596.00,31.198
597.00,31.290
598.00,31.355
599.00,31.402
600.00,31.492
601.00,31.561
602.00,31.593
603.00,31.676
604.00,31.703
605.00,31.758
606.00,31.863
607.00,31.921
608.00,31.969
609.00,32.071
610.00,32.157
611.00,32.119
612.00,32.161
613.00,32.186
614.00,32.238
615.00,32.360
616.00,32.464
617.00,32.517
618.00,32.582
619.00,32.657
620.00,32.691
621.00,32.764
622.00,32.832
623.00,32.903
624.00,33.034
625.00,33.086
626.00,33.153
627.00,33.222
628.00,33.302
629.00,33.369
630.00,33.375
631.00,33.483
632.00,33.598
633.00,33.646
634.00,33.754
635.00,33.934
636.00,34.003
637.00,34.050
638.00,34.171
639.00,34.357
640.00,34.372
641.00,34.422
642.00,34.563
643.00,34.647
644.00,34.729
645.00,34.825
646.00,34.964
647.00,35.053
648.00,35.115
649.00,35.228
650.00,35.323
651.00,35.382
652.00,35.458
653.00,35.608
654.00,35.677
655.00,35.726
656.00,35.966
657.00,35.604
658.00,35.876
659.00,36.373
660.00,36.548
661.00,36.530
662.00,36.815
663.00,36.794
664.00,36.985
665.00,37.148
666.00,37.172
667.00,37.352
668.00,37.472
669.00,37.700
670.00,37.778
671.00,37.779
672.00,37.911
673.00,38.084
674.00,38.187
675.00,38.348
676.00,38.498
677.00,38.595
678.00,38.494
679.00,38.623
680.00,38.797
681.00,38.931
682.00,39.031
683.00,39.237
684.00,39.504
685.00,39.559
686.00,39.488
687.00,39.735
688.00,39.842
689.00,39.885
690.00,40.124
691.00,40.325
692.00,40.163
693.00,40.291
694.00,40.432
695.00,40.411
696.00,40.593
697.00,40.751
698.00,40.901
699.00,41.207
700.00,41.230
701.00,41.383
702.00,41.597
703.00,41.728
704.00,41.976
705.00,41.982
706.00,42.078
707.00,42.201
708.00,42.194
709.00,42.327
710.00,42.707
711.00,42.530
712.00,42.556
713.00,42.733
714.00,42.837
715.00,42.990
716.00,42.978
717.00,43.115
718.00,43.251
719.00,43.301
720.00,43.477
721.00,47.536
722.00,47.556
723.00,47.596
724.00,47.682
725.00,47.719
726.00,47.768
727.00,47.832
728.00,47.900
729.00,48.003
730.00,48.120
731.00,48.106
732.00,48.150
733.00,48.334
734.00,48.338
735.00,48.460
736.00,48.497
737.00,48.567
738.00,48.629
739.00,48.656
740.00,48.795
741.00,48.832
742.00,48.880
743.00,48.917
744.00,48.996
745.00,49.062
746.00,49.062
747.00,49.068
748.00,49.084
749.00,49.099
750.00,49.169
751.00,49.242
752.00,49.250
753.00,49.290
754.00,49.336
755.00,49.389
756.00,49.357
757.00,49.479
758.00,49.462
759.00,49.538
760.00,49.527
761.00,49.632
762.00,49.621
763.00,49.609
764.00,49.744
765.00,49.829
766.00,49.731
767.00,49.801
768.00,49.928
769.00,49.868
770.00,49.971
771.00,49.991
772.00,50.047
773.00,49.955
774.00,50.043
775.00,50.095
776.00,50.141
777.00,50.193
778.00,50.164
779.00,50.244
780.00,50.248
781.00,50.213
782.00,50.293
783.00,50.300
784.00,50.279
785.00,50.287
786.00,50.370
787.00,50.386
788.00,50.393
789.00,50.426
790.00,50.392
791.00,50.417
792.00,50.375
793.00,50.396
794.00,50.435
795.00,50.418
796.00,50.456
797.00,50.381
798.00,50.465
799.00,50.448
800.00,50.408
801.00,50.379
802.00,50.436
803.00,50.446
804.00,50.409
805.00,50.501
806.00,50.403
807.00,50.449
808.00,50.482
809.00,50.412
810.00,50.512
811.00,50.422
812.00,50.469
813.00,50.417
814.00,50.442
815.00,50.444
816.00,50.480
817.00,50.600
818.00,50.396
819.00,50.473
820.00,50.440
821.00,50.472
822.00,50.438
823.00,50.424
824.00,50.370
825.00,50.450
826.00,50.453
827.00,50.563
828.00,50.446
829.00,50.476
830.00,50.455
831.00,53.007
832.00,53.059
833.00,52.979
834.00,53.028
835.00,53.017
836.00,53.024
837.00,53.019
838.00,52.987
839.00,52.963
840.00,52.938
841.00,52.937
842.00,52.909
843.00,52.928
844.00,52.916
845.00,52.856
846.00,52.936
847.00,52.865
848.00,52.865
849.00,52.806
850.00,52.823
851.00,52.728
852.00,52.765
853.00,52.733
854.00,52.725
855.00,52.672
856.00,52.701
857.00,52.661
858.00,52.632
859.00,52.608
860.00,52.632
861.00,52.615
862.00,52.582
863.00,52.588
864.00,52.542
865.00,52.566
866.00,52.541
867.00,52.555
868.00,52.574
869.00,52.523
870.00,52.575
871.00,52.547
872.00,52.554
873.00,52.537
874.00,52.532
875.00,52.525
876.00,52.538
877.00,52.502
878.00,52.500
879.00,52.480
880.00,52.503
881.00,52.449
882.00,52.513
883.00,52.480
884.00,52.422
885.00,52.399
886.00,52.414
887.00,52.407
888.00,52.382
889.00,52.380
890.00,52.374
891.00,52.349
892.00,52.311
893.00,52.304
894.00,52.315
895.00,52.261
896.00,52.229
897.00,52.224
898.00,52.209
899.00,52.204
900.00,52.181
901.00,52.196
902.00,52.196
903.00,52.178
904.00,52.142
905.00,52.156
906.00,52.127
907.00,52.108
908.00,52.054
909.00,52.058
910.00,52.036
911.00,52.017
912.00,52.022
913.00,51.975
914.00,52.050
915.00,51.923
916.00,51.964
917.00,51.933
918.00,51.903
919.00,51.950
920.00,51.868
921.00,51.863
922.00,51.844
923.00,51.830
924.00,51.783
925.00,51.791
926.00,51.789
927.00,51.770
928.00,51.724
929.00,51.747
930.00,51.727
931.00,51.707
932.00,51.647
933.00,51.682
934.00,51.660
935.00,51.636
936.00,51.624
937.00,51.619
938.00,51.602
939.00,51.606
940.00,51.548
941.00,51.563
942.00,51.518
943.00,51.503
944.00,51.463
945.00,51.473
946.00,51.467
947.00,51.431
948.00,51.430
949.00,51.407
950.00,51.379
951.00,51.367
952.00,51.345
953.00,51.298
954.00,51.291
955.00,51.249
956.00,51.249
957.00,51.200
958.00,51.221
959.00,51.163
960.00,51.166
961.00,51.128
962.00,51.150
963.00,51.106
964.00,51.081
965.00,51.102
966.00,51.081
967.00,51.079
968.00,51.039
969.00,51.086
970.00,51.049
971.00,51.045
972.00,50.994
973.00,51.087
974.00,51.083
975.00,51.028
976.00,51.067
977.00,51.037
978.00,51.083
979.00,51.036
980.00,51.062
981.00,51.076
982.00,51.021
983.00,51.048
984.00,51.026
985.00,51.054
986.00,50.995
987.00,51.009
988.00,50.994
989.00,50.972
990.00,50.978
991.00,50.957
992.00,50.984
993.00,50.932
994.00,50.914
995.00,50.928
996.00,50.902
997.00,50.909
998.00,50.887
999.00,50.900
1000.00,50.834
1001.00,50.842
1002.00,50.837
1003.00,50.804
1004.00,50.797
1005.00,50.755
1006.00,50.804
1007.00,50.761
1008.00,50.754
1009.00,50.756
1010.00,50.752
1011.00,50.742
1012.00,50.703
1013.00,50.734
1014.00,50.689
1015.00,50.702
1016.00,50.659
1017.00,50.662
1018.00,50.658
1019.00,50.608
1020.00,50.613
1021.00,50.577
1022.00,50.570
1023.00,50.525
1024.00,50.544
1025.00,50.526
1026.00,50.513
1027.00,50.482
1028.00,50.482
1029.00,50.493
1030.00,50.439
1031.00,50.459
1032.00,50.403
1033.00,50.406
1034.00,50.394
1035.00,50.333
1036.00,50.320
1037.00,50.298
1038.00,50.286
1039.00,50.249
1040.00,50.259
1041.00,50.215
1042.00,50.220
1043.00,50.196
1044.00,50.215
1045.00,50.200
1046.00,50.195
1047.00,50.227
1048.00,50.227
1049.00,50.236
1050.00,50.249
1051.00,50.281
1052.00,50.270
1053.00,50.284
1054.00,50.284
1055.00,50.303
1056.00,50.301
1057.00,50.298
1058.00,50.301
1059.00,50.293
1060.00,50.292
1061.00,50.283
1062.00,50.265
1063.00,50.275
1064.00,50.275
1065.00,50.253
1066.00,50.239
1067.00,50.229
1068.00,50.257
1069.00,50.214
1070.00,50.205
1071.00,50.188
1072.00,50.209
1073.00,50.175
1074.00,50.168
1075.00,50.165
1076.00,50.161
1077.00,50.134
1078.00,50.127
1079.00,50.133
1080.00,50.132
1081.00,50.105
1082.00,50.106
1083.00,50.087
1084.00,50.079
1085.00,50.094
1086.00,50.085
1087.00,50.075
1088.00,50.052
1089.00,50.052
1090.00,50.045
1091.00,50.047
1092.00,50.067
1093.00,50.060
1094.00,50.037
1095.00,49.997
1096.00,49.974
1097.00,49.977
1098.00,49.978
1099.00,49.961
1100.00,49.940
1101.00,49.933
1102.00,49.924
1103.00,49.931
1104.00,49.905
1105.00,49.897
1106.00,49.893
1107.00,49.881
1108.00,49.883
1109.00,49.873
1110.00,49.862
1111.00,49.860
1112.00,49.841
1113.00,49.836
1114.00,49.830
1115.00,49.841
1116.00,49.817
1117.00,49.805
1118.00,49.797
1119.00,49.792
1120.00,49.779
1121.00,49.768
1122.00,49.767
1123.00,49.764
1124.00,49.759
1125.00,49.752
1126.00,49.730
1127.00,49.736
1128.00,49.727
1129.00,49.719
1130.00,49.695
1131.00,49.704
1132.00,49.683
1133.00,49.683
1134.00,49.688
1135.00,49.682
1136.00,49.680
1137.00,49.656
1138.00,49.681
1139.00,49.698
1140.00,49.652
1141.00,49.656
1142.00,49.643
1143.00,49.643
1144.00,49.628
1145.00,49.626
1146.00,49.633
1147.00,49.611
1148.00,49.600
1149.00,49.618
1150.00,49.605
1151.00,49.619
1152.00,49.614
1153.00,49.596
1154.00,49.580
1155.00,49.605
1156.00,49.587
1157.00,49.593
1158.00,49.575
1159.00,49.571
1160.00,49.574
1161.00,49.582
1162.00,49.559
1163.00,49.565
1164.00,49.573
1165.00,49.560
1166.00,49.569
1167.00,49.556
1168.00,49.570
1169.00,49.556
1170.00,49.541
1171.00,49.530
1172.00,49.537
1173.00,49.525
1174.00,49.544
1175.00,49.532
1176.00,49.520
1177.00,49.515
1178.00,49.523
1179.00,49.539
1180.00,49.519
1181.00,49.543
1182.00,49.525
1183.00,49.526
1184.00,49.510
1185.00,49.524
1186.00,49.504
1187.00,49.510
1188.00,49.501
1189.00,49.499
1190.00,49.502
1191.00,49.495
1192.00,49.516
1193.00,49.498
1194.00,49.509
1195.00,49.485
1196.00,49.508
1197.00,49.505
1198.00,49.493
1199.00,49.494
1200.00,49.496
1201.00,49.496
1202.00,49.498
1203.00,49.491
1204.00,49.496
1205.00,49.501
1206.00,49.470
1207.00,49.470
1208.00,49.464
1209.00,49.462
1210.00,49.464
1211.00,49.464
1212.00,49.484
1213.00,49.447
1214.00,49.466
1215.00,49.448
1216.00,49.451
1217.00,49.454
1218.00,49.448
1219.00,49.472
1220.00,49.442
1221.00,49.468
1222.00,49.452
1223.00,49.476
1224.00,49.463
1225.00,49.433
1226.00,49.458
1227.00,49.445
1228.00,49.464
1229.00,49.452
1230.00,49.496
1231.00,49.480
1232.00,49.495
1233.00,49.504
1234.00,49.513
1235.00,49.513
1236.00,49.495
1237.00,49.507
1238.00,49.513
1239.00,49.519
1240.00,49.507
1241.00,49.517
1242.00,49.500
1243.00,49.520
1244.00,49.494
1245.00,49.524
1246.00,49.535
1247.00,49.525
1248.00,49.526
1249.00,49.536
1250.00,49.533
1251.00,49.526
1252.00,49.545
1253.00,49.518
1254.00,49.563
1255.00,49.538
1256.00,49.519
1257.00,49.514
1258.00,49.553
1259.00,49.547
1260.00,49.563
1261.00,49.576
1262.00,49.583
1263.00,49.559
1264.00,49.566
1265.00,49.573
1266.00,49.574
1267.00,49.587
1268.00,49.594
1269.00,49.573
1270.00,49.599
1271.00,49.607
1272.00,49.605
1273.00,49.615
1274.00,49.609
1275.00,49.613
1276.00,49.623
1277.00,49.618
1278.00,49.630
1279.00,49.635
1280.00,49.637
1281.00,49.657
1282.00,49.662
1283.00,49.633
1284.00,49.661
1285.00,49.646
1286.00,49.647
1287.00,49.643
1288.00,49.671
1289.00,49.664
1290.00,49.684
1291.00,49.674
1292.00,49.684
1293.00,49.691
1294.00,49.710
1295.00,49.717
1296.00,49.726
1297.00,49.728
1298.00,49.750
1299.00,49.739
1300.00,49.741
1301.00,49.759
1302.00,49.746
1303.00,49.742
1304.00,49.734
1305.00,49.746
1306.00,49.754
1307.00,49.770
1308.00,49.772
1309.00,49.783
1310.00,49.786
1311.00,49.780
1312.00,49.786
1313.00,49.784
1314.00,49.809
1315.00,49.812
1316.00,49.820
1317.00,49.852
1318.00,49.818
1319.00,49.816
1320.00,49.840
1321.00,49.970
1322.00,50.000
1323.00,49.971
1324.00,49.964
1325.00,49.957
1326.00,49.986
1327.00,49.959
1328.00,49.953
1329.00,49.943
1330.00,49.952
1331.00,49.962
1332.00,49.959
1333.00,49.971
1334.00,50.022
1335.00,50.011
1336.00,50.060
1337.00,50.086
1338.00,50.133
1339.00,50.185
1340.00,50.229
1341.00,50.300
1342.00,50.368
1343.00,50.408
1344.00,50.462
1345.00,50.518
1346.00,50.551
1347.00,50.589
1348.00,50.628
1349.00,50.625
1350.00,50.657
1351.00,50.659
1352.00,50.667
1353.00,50.681
1354.00,50.675
1355.00,50.647
1356.00,50.698
1357.00,50.668
1358.00,50.713
1359.00,50.735
1360.00,50.756
1361.00,50.753
1362.00,50.721
1363.00,50.738
1364.00,50.769
1365.00,50.700
1366.00,50.767
1367.00,50.738
1368.00,50.692
1369.00,50.713
1370.00,50.713
1371.00,50.671
1372.00,50.700
1373.00,50.685
1374.00,50.727
1375.00,50.695
1376.00,50.677
1377.00,50.653
1378.00,50.707
1379.00,50.672
1380.00,50.694
1381.00,50.723
1382.00,50.662
1383.00,50.687
1384.00,50.660
1385.00,50.642
1386.00,50.688
1387.00,50.680
1388.00,50.670
1389.00,50.634
1390.00,50.671
1391.00,50.715
1392.00,50.677
1393.00,50.647
1394.00,50.694
1395.00,50.725
1396.00,50.640
1397.00,50.644
1398.00,50.693
1399.00,50.700
1400.00,50.667
1401.00,50.677
1402.00,50.747
1403.00,50.720
1404.00,50.723
1405.00,50.737
1406.00,50.753
1407.00,50.762
1408.00,50.771
1409.00,50.758
1410.00,50.790
1411.00,50.764
1412.00,50.813
1413.00,50.802
1414.00,50.813
1415.00,50.798
1416.00,50.837
1417.00,50.845
1418.00,50.866
1419.00,50.873
1420.00,50.874
1421.00,50.903
1422.00,50.895
1423.00,50.925
1424.00,50.939
1425.00,50.967
1426.00,50.939
1427.00,50.969
1428.00,50.971
1429.00,50.993
1430.00,50.998
1431.00,51.025
1432.00,51.030
1433.00,51.063
1434.00,51.040
1435.00,51.098
1436.00,51.109
1437.00,51.130
1438.00,51.136
1439.00,51.154
1440.00,51.159
1441.00,51.163
1442.00,51.166
1443.00,51.206
1444.00,51.242
1445.00,51.211
1446.00,51.247
1447.00,51.273
1448.00,51.279
1449.00,51.292
1450.00,51.285
1451.00,51.315
1452.00,51.334
1453.00,51.341
1454.00,51.368
1455.00,51.394
1456.00,51.393
1457.00,51.405
1458.00,51.431
1459.00,51.422
1460.00,51.453
1461.00,51.456
1462.00,51.483
1463.00,51.502
1464.00,51.491
1465.00,51.529
1466.00,51.532
1467.00,51.535
1468.00,51.595
1469.00,51.579
1470.00,51.590
1471.00,51.618
1472.00,51.628
1473.00,51.642
1474.00,51.678
1475.00,51.673
1476.00,51.684
1477.00,51.677
1478.00,51.691
1479.00,51.719
1480.00,51.724
1481.00,51.726
1482.00,51.768
1483.00,51.768
1484.00,51.776
1485.00,51.807
1486.00,51.791
1487.00,51.832
1488.00,51.857
1489.00,51.819
1490.00,51.854
1491.00,51.851
1492.00,51.869
1493.00,51.870
1494.00,51.907
1495.00,51.909
1496.00,51.918
1497.00,51.920
1498.00,51.961
1499.00,51.960
1500.00,51.950
1501.00, 
1502.00, 
1503.00, 
1504.00, 
1505.00, 
1506.00, 
1507.00, 
1508.00, 
1509.00, 
1510.00, 
1511.00, 
1512.00, 
1513.00, 
1514.00, 
1515.00, 
1516.00, 
1517.00, 
1518.00, 
1519.00, 
1520.00, 
1521.00, 
1522.00, 
1523.00, 
1524.00, 
1525.00, 
1526.00, 
1527.00, 
1528.00, 
1529.00, 
1530.00, 
1531.00, 
1532.00, 
1533.00, 
1534.00, 
1535.00, 
1536.00, 
1537.00, 
1538.00, 
1539.00, 
1540.00, 
1541.00, 
1542.00, 
1543.00, 
1544.00, 
1545.00, 
1546.00, 
1547.00, 
1548.00, 
1549.00, 
1550.00, 
1551.00, 
1552.00, 
1553.00, 
1554.00, 
1555.00, 
1556.00, 
1557.00, 
1558.00, 
1559.00, 
1560.00, 
1561.00, 
1562.00, 
1563.00, 
1564.00, 
1565.00, 
1566.00, 
1567.00, 
1568.00, 
1569.00, 
1570.00, 
1571.00, 
1572.00, 
1573.00, 
1574.00, 
1575.00, 
1576.00, 
1577.00, 
1578.00, 
1579.00, 
1580.00, 
1581.00, 
1582.00, 
1583.00, 
1584.00, 
1585.00, 
1586.00, 
1587.00, 
1588.00, 
1589.00, 
1590.00, 
1591.00, 
1592.00, 
1593.00, 
1594.00, 
1595.00, 
1596.00, 
1597.00, 
1598.00, 
1599.00, 
1600.00, 
1601.00, 
1602.00, 
1603.00, 
1604.00, 
1605.00, 
1606.00, 
1607.00, 
1608.00, 
1609.00, 
1610.00, 
1611.00, 
1612.00, 
1613.00, 
1614.00, 
1615.00, 
1616.00, 
1617.00, 
1618.00, 
1619.00, 
1620.00, 
1621.00, 
1622.00, 
1623.00, 
1624.00, 
1625.00, 
1626.00, 
1627.00, 
1628.00, 
1629.00, 
1630.00, 
1631.00, 
1632.00, 
1633.00, 
1634.00, 
1635.00, 
1636.00, 
1637.00, 
1638.00, 
1639.00, 
1640.00, 
1641.00, 
1642.00, 
1643.00, 
1644.00, 
1645.00, 
1646.00, 
1647.00, 
1648.00, 
1649.00, 
1650.00, 
1651.00, 
1652.00, 
1653.00, 
1654.00, 
1655.00, 
1656.00, 
1657.00, 
1658.00, 
1659.00, 
1660.00, 
1661.00, 
1662.00, 
1663.00, 
1664.00, 
1665.00, 
1666.00, 
1667.00, 
1668.00, 
1669.00, 
1670.00, 
1671.00, 
1672.00, 
1673.00, 
1674.00, 
1675.00, 
1676.00, 
1677.00, 
1678.00, 
1679.00, 
1680.00, 
1681.00, 
1682.00, 
1683.00, 
1684.00, 
1685.00, 
1686.00, 
1687.00, 
1688.00, 
1689.00, 
1690.00, 
1691.00, 
1692.00, 
1693.00, 
1694.00, 
1695.00, 
1696.00, 
1697.00, 
1698.00, 
1699.00, 
1700.00, 
1701.00, 
1702.00, 
1703.00, 
1704.00, 
1705.00, 
1706.00, 
1707.00, 
1708.00, 
1709.00, 
1710.00, 
1711.00, 
1712.00, 
1713.00, 
1714.00, 
1715.00, 
1716.00, 
1717.00, 
1718.00, 
1719.00, 
1720.00, 
1721.00, 
1722.00, 
1723.00, 
1724.00, 
1725.00, 
1726.00, 
1727.00, 
1728.00, 
1729.00, 
1730.00, 
1731.00, 
1732.00, 
1733.00, 
1734.00, 
1735.00, 
1736.00, 
1737.00, 
1738.00, 
1739.00, 
1740.00, 
1741.00, 
1742.00, 
1743.00, 
1744.00, 
1745.00, 
1746.00, 
1747.00, 
1748.00, 
1749.00, 
1750.00, 
1751.00, 
1752.00, 
1753.00, 
1754.00, 
1755.00, 
1756.00, 
1757.00, 
1758.00, 
1759.00, 
1760.00, 
1761.00, 
1762.00, 
1763.00, 
1764.00, 
1765.00, 
1766.00, 
1767.00, 
1768.00, 
1769.00, 
1770.00, 
1771.00, 
1772.00, 
1773.00, 
1774.00, 
1775.00, 
1776.00, 
1777.00, 
1778.00, 
1779.00, 
1780.00, 
1781.00, 
1782.00, 
1783.00, 
1784.00, 
1785.00, 
1786.00, 
1787.00, 
1788.00, 
1789.00, 
1790.00, 
1791.00, 
1792.00, 
1793.00, 
1794.00, 
1795.00, 
1796.00, 
1797.00, 
1798.00, 
1799.00, 
1800.00, 
1801.00, 
1802.00, 
1803.00, 
1804.00, 
1805.00, 
1806.00, 
1807.00, 
1808.00, 
1809.00, 
1810.00, 
1811.00, 
1812.00, 
1813.00, 
1814.00, 
1815.00, 
1816.00, 
1817.00, 
1818.00, 
1819.00, 
1820.00, 
1821.00, 
1822.00, 
1823.00, 
1824.00, 
1825.00, 
1826.00, 
1827.00, 
1828.00, 
1829.00, 
1830.00, 
1831.00, 
1832.00, 
1833.00, 
1834.00, 
1835.00, 
1836.00, 
1837.00, 
1838.00, 
1839.00, 
1840.00, 
1841.00, 
1842.00, 
1843.00, 
1844.00, 
1845.00, 
1846.00, 
1847.00, 
1848.00, 
1849.00, 
1850.00, 
1851.00, 
1852.00, 
1853.00, 
1854.00, 
1855.00, 
1856.00, 
1857.00, 
1858.00, 
1859.00, 
1860.00, 
1861.00, 
1862.00, 
1863.00, 
1864.00, 
1865.00, 
1866.00, 
1867.00, 
1868.00, 
1869.00, 
1870.00, 
1871.00, 
1872.00, 
1873.00, 
1874.00, 
1875.00, 
1876.00, 
1877.00, 
1878.00, 
1879.00, 
1880.00, 
1881.00, 
1882.00, 
1883.00, 
1884.00, 
1885.00, 
1886.00, 
1887.00, 
1888.00, 
1889.00, 
1890.00, 
1891.00, 
1892.00, 
1893.00, 
1894.00, 
1895.00, 
1896.00, 
1897.00, 
1898.00, 
1899.00, 
1900.00, 
1901.00, 
1902.00, 
1903.00, 
1904.00, 
1905.00, 
1906.00, 
1907.00, 
1908.00, 
1909.00, 
1910.00, 
1911.00, 
1912.00, 
1913.00, 
1914.00, 
1915.00, 
1916.00, 
1917.00, 
1918.00, 
1919.00, 
1920.00, 
1921.00, 
1922.00, 
1923.00, 
1924.00, 
1925.00, 
1926.00, 
1927.00, 
1928.00, 
1929.00, 
1930.00, 
1931.00, 
1932.00, 
1933.00, 
1934.00, 
1935.00, 
1936.00, 
1937.00, 
1938.00, 
1939.00, 
1940.00, 
1941.00, 
1942.00, 
1943.00, 
1944.00, 
1945.00, 
1946.00, 
1947.00, 
1948.00, 
1949.00, 
1950.00, 
1951.00, 
1952.00, 
1953.00, 
1954.00, 
1955.00, 
1956.00, 
1957.00, 
1958.00, 
1959.00, 
1960.00, 
1961.00, 
1962.00, 
1963.00, 
1964.00, 
1965.00, 
1966.00, 
1967.00, 
1968.00, 
1969.00, 
1970.00, 
1971.00, 
1972.00, 
1973.00, 
1974.00, 
1975.00, 
1976.00, 
1977.00, 
1978.00, 
1979.00, 
1980.00, 
1981.00, 
1982.00, 
1983.00, 
1984.00, 
1985.00, 
1986.00, 
1987.00, 
1988.00, 
1989.00, 
1990.00, 
1991.00, 
1992.00, 
1993.00, 
1994.00, 
1995.00, 
1996.00, 
1997.00, 
1998.00, 
1999.00, 
2000.00, 
2001.00, 
2002.00, 
2003.00, 
2004.00, 
2005.00, 
2006.00, 
2007.00, 
2008.00, 
2009.00, 
2010.00, 
2011.00, 
2012.00, 
2013.00, 
2014.00, 
2015.00, 
2016.00, 
2017.00, 
2018.00, 
2019.00, 
2020.00, 
2021.00, 
2022.00, 
2023.00, 
2024.00, 
2025.00, 
2026.00, 
2027.00, 
2028.00, 
2029.00, 
2030.00, 
2031.00, 
2032.00, 
2033.00, 
2034.00, 
2035.00, 
2036.00, 
2037.00, 
2038.00, 
2039.00, 
2040.00, 
2041.00, 
2042.00, 
2043.00, 
2044.00, 
2045.00, 
2046.00, 
2047.00, 
2048.00, 
2049.00, 
2050.00, 
2051.00, 
2052.00, 
2053.00, 
2054.00, 
2055.00, 
2056.00, 
2057.00, 
2058.00, 
2059.00, 
2060.00, 
2061.00, 
2062.00, 
2063.00, 
2064.00, 
2065.00, 
2066.00, 
2067.00, 
2068.00, 
2069.00, 
2070.00, 
2071.00, 
2072.00, 
2073.00, 
2074.00, 
2075.00, 
2076.00, 
2077.00, 
2078.00, 
2079.00, 
2080.00, 
2081.00, 
2082.00, 
2083.00, 
2084.00, 
2085.00, 
2086.00, 
2087.00, 
2088.00, 
2089.00, 
2090.00, 
2091.00, 
2092.00, 
2093.00, 
2094.00, 
2095.00, 
2096.00, 
2097.00, 
2098.00, 
2099.00, 
2100.00, 
2101.00, 
2102.00, 
2103.00, 
2104.00, 
2105.00, 
2106.00, 
2107.00, 
2108.00, 
2109.00, 
2110.00, 
2111.00, 
2112.00, 
2113.00, 
2114.00, 
2115.00, 
2116.00, 
2117.00, 
2118.00, 
2119.00, 
2120.00, 
2121.00, 
2122.00, 
2123.00, 
2124.00, 
2125.00, 
2126.00, 
2127.00, 
2128.00, 
2129.00, 
2130.00, 
2131.00, 
2132.00, 
2133.00, 
2134.00, 
2135.00, 
2136.00, 
2137.00, 
2138.00, 
2139.00, 
2140.00, 
2141.00, 
2142.00, 
2143.00, 
2144.00, 
2145.00, 
2146.00, 
2147.00, 
2148.00, 
2149.00, 
2150.00, 
2151.00, 
2152.00, 
2153.00, 
2154.00, 
2155.00, 
2156.00, 
2157.00, 
2158.00, 
2159.00, 
2160.00, 
2161.00, 
2162.00, 
2163.00, 
2164.00, 
2165.00, 
2166.00, 
2167.00, 
2168.00, 
2169.00, 
2170.00, 
2171.00, 
2172.00, 
2173.00, 
2174.00, 
2175.00, 
2176.00, 
2177.00, 
2178.00, 
2179.00, 
2180.00, 
2181.00, 
2182.00, 
2183.00, 
2184.00, 
2185.00, 
2186.00, 
2187.00, 
2188.00, 
2189.00, 
2190.00, 
2191.00, 
2192.00, 
2193.00, 
2194.00, 
2195.00, 
2196.00, 
2197.00, 
2198.00, 
2199.00, 
2200.00, 
2201.00, 
2202.00, 
2203.00, 
2204.00, 
2205.00, 
2206.00, 
2207.00, 
2208.00, 
2209.00, 
2210.00, 
2211.00, 
2212.00, 
2213.00, 
2214.00, 
2215.00, 
2216.00, 
2217.00, 
2218.00, 
2219.00, 
2220.00, 
2221.00, 
2222.00, 
2223.00, 
2224.00, 
2225.00, 
2226.00, 
2227.00, 
2228.00, 
2229.00, 
2230.00, 
2231.00, 
2232.00, 
2233.00, 
2234.00, 
2235.00, 
2236.00, 
2237.00, 
2238.00, 
2239.00, 
2240.00, 
2241.00, 
2242.00, 
2243.00, 
2244.00, 
2245.00, 
2246.00, 
2247.00, 
2248.00, 
2249.00, 
2250.00, 
2251.00, 
2252.00, 
2253.00, 
2254.00, 
2255.00, 
2256.00, 
2257.00, 
2258.00, 
2259.00, 
2260.00, 
2261.00, 
2262.00, 
2263.00, 
2264.00, 
2265.00, 
2266.00, 
2267.00, 
2268.00, 
2269.00, 
2270.00, 
2271.00, 
2272.00, 
2273.00, 
2274.00, 
2275.00, 
2276.00, 
2277.00, 
2278.00, 
2279.00, 
2280.00, 
2281.00, 
2282.00, 
2283.00, 
2284.00, 
2285.00, 
2286.00, 
2287.00, 
2288.00, 
2289.00, 
2290.00, 
2291.00, 
2292.00, 
2293.00, 
2294.00, 
2295.00, 
2296.00, 
2297.00, 
2298.00, 
2299.00, 
2300.00, 
2301.00, 
2302.00, 
2303.00, 
2304.00, 
2305.00, 
2306.00, 
2307.00, 
2308.00, 
2309.00, 
2310.00, 
2311.00, 
2312.00, 
2313.00, 
2314.00, 
2315.00, 
2316.00, 
2317.00, 
2318.00, 
2319.00, 
2320.00, 
2321.00, 
2322.00, 
2323.00, 
2324.00, 
2325.00, 
2326.00, 
2327.00, 
2328.00, 
2329.00, 
2330.00, 
2331.00, 
2332.00, 
2333.00, 
2334.00, 
2335.00, 
2336.00, 
2337.00, 
2338.00, 
2339.00, 
2340.00, 
2341.00, 
2342.00, 
2343.00, 
2344.00, 
2345.00, 
2346.00, 
2347.00, 
2348.00, 
2349.00, 
2350.00, 
2351.00, 
2352.00, 
2353.00, 
2354.00, 
2355.00, 
2356.00, 
2357.00, 
2358.00, 
2359.00, 
2360.00, 
2361.00, 
2362.00, 
2363.00, 
2364.00, 
2365.00, 
2366.00, 
2367.00, 
2368.00, 
2369.00, 
2370.00, 
2371.00, 
2372.00, 
2373.00, 
2374.00, 
2375.00, 
2376.00, 
2377.00, 
2378.00, 
2379.00, 
2380.00, 
2381.00, 
2382.00, 
2383.00, 
2384.00, 
2385.00, 
2386.00, 
2387.00, 
2388.00, 
2389.00, 
2390.00, 
2391.00, 
2392.00, 
2393.00, 
2394.00, 
2395.00, 
2396.00, 
2397.00, 
2398.00, 
2399.00, 
2400.00, 
2401.00, 
2402.00, 
2403.00, 
2404.00, 
2405.00, 
2406.00, 
2407.00, 
2408.00, 
2409.00, 
2410.00, 
2411.00, 
2412.00, 
2413.00, 
2414.00, 
2415.00, 
2416.00, 
2417.00, 
2418.00, 
2419.00, 
2420.00, 
2421.00, 
2422.00, 
2423.00, 
2424.00, 
2425.00, 
2426.00, 
2427.00, 
2428.00, 
2429.00, 
2430.00, 
2431.00, 
2432.00, 
2433.00, 
2434.00, 
2435.00, 
2436.00, 
2437.00, 
2438.00, 
2439.00, 
2440.00, 
2441.00, 
2442.00, 
2443.00, 
2444.00, 
2445.00, 
2446.00, 
2447.00, 
2448.00, 
2449.00, 
2450.00, 
2451.00, 
2452.00, 
2453.00, 
2454.00, 
2455.00, 
2456.00, 
2457.00, 
2458.00, 
2459.00, 
2460.00, 
2461.00, 
2462.00, 
2463.00, 
2464.00, 
2465.00, 
2466.00, 
2467.00, 
2468.00, 
2469.00, 
2470.00, 
2471.00, 
2472.00, 
2473.00, 
2474.00, 
2475.00, 
2476.00, 
2477.00, 
2478.00, 
2479.00, 
2480.00, 
2481.00, 
2482.00, 
2483.00, 
2484.00, 
2485.00, 
2486.00, 
2487.00, 
2488.00, 
2489.00, 
2490.00, 
2491.00, 
2492.00, 
2493.00, 
2494.00, 
2495.00, 
2496.00, 
2497.00, 
2498.00, 
2499.00, 
2500.00, 
2501.00, 
2502.00, 
2503.00, 
2504.00, 
2505.00, 
2506.00, 
2507.00, 
2508.00, 
2509.00, 
2510.00, 
2511.00, 
2512.00, 
2513.00, 
2514.00, 
2515.00, 
2516.00, 
2517.00, 
2518.00, 
2519.00, 
2520.00, 
2521.00, 
2522.00, 
2523.00, 
2524.00, 
2525.00, 
2526.00, 
2527.00, 
2528.00, 
2529.00, 
2530.00, 
2531.00, 
2532.00, 
2533.00, 
2534.00, 
2535.00, 
2536.00, 
2537.00, 
2538.00, 
2539.00, 
2540.00, 
2541.00, 
2542.00, 
2543.00, 
2544.00, 
2545.00, 
2546.00, 
2547.00, 
2548.00, 
2549.00, 
2550.00, 
2551.00, 
2552.00, 
2553.00, 
2554.00, 
2555.00, 
2556.00, 
2557.00, 
2558.00, 
2559.00, 
2560.00, 
2561.00, 
2562.00, 
2563.00, 
2564.00, 
2565.00, 
2566.00, 
2567.00, 
2568.00, 
2569.00, 
2570.00, 
2571.00, 
2572.00, 
2573.00, 
2574.00, 
2575.00, 
2576.00, 
2577.00, 
2578.00, 
2579.00, 
2580.00, 
2581.00, 
2582.00, 
2583.00, 
2584.00, 
2585.00, 
2586.00, 
2587.00, 
2588.00, 
2589.00, 
2590.00, 
2591.00, 
2592.00, 
2593.00, 
2594.00, 
2595.00, 
2596.00, 
2597.00, 
2598.00, 
2599.00, 
2600.00, 
