"2cP5 - RawData"
"Wavelength nm.","T%"
200.00,0.002
201.00,0.000
202.00,-0.000
203.00,-0.002
204.00,0.003
205.00,0.001
206.00,0.001
207.00,-0.001
208.00,-0.000
209.00,0.001
210.00,-0.000
211.00,0.002
212.00,0.000
213.00,0.001
214.00,0.004
215.00,0.000
216.00,0.003
217.00,-0.000
218.00,0.002
219.00,-0.002
220.00,-0.001
221.00,0.000
222.00,0.003
223.00,0.002
224.00,0.001
225.00,0.002
226.00,-0.001
227.00,0.001
228.00,0.002
229.00,-0.000
230.00,-0.000
231.00,0.002
232.00,0.003
233.00,0.001
234.00,-0.000
235.00,-0.001
236.00,0.002
237.00,0.001
238.00,0.001
239.00,0.002
240.00,-0.001
241.00,0.001
242.00,0.001
243.00,0.000
244.00,0.002
245.00,-0.001
246.00,-0.001
247.00,0.001
248.00,-0.001
249.00,-0.002
250.00,0.000
251.00,0.002
252.00,-0.001
253.00,-0.000
254.00,0.000
255.00,0.001
256.00,0.000
257.00,0.001
258.00,-0.001
259.00,-0.000
260.00,-0.001
261.00,-0.000
262.00,-0.001
263.00,0.000
264.00,0.001
265.00,0.001
266.00,0.002
267.00,0.001
268.00,-0.000
269.00,-0.001
270.00,-0.001
271.00,-0.000
272.00,0.003
273.00,-0.000
274.00,-0.000
275.00,-0.001
276.00,0.001
277.00,-0.000
278.00,0.001
279.00,0.001
280.00,-0.000
281.00,-0.001
282.00,0.001
283.00,-0.001
284.00,-0.001
285.00,-0.000
286.00,0.002
287.00,-0.000
288.00,-0.000
289.00,0.001
290.00,0.000
291.00,-0.001
292.00,-0.004
293.00,0.001
294.00,0.001
295.00,0.001
296.00,-0.000
297.00,-0.001
298.00,0.002
299.00,0.002
300.00,0.001
301.00,0.003
302.00,0.004
303.00,0.005
304.00,0.007
305.00,0.011
306.00,0.017
307.00,0.026
308.00,0.040
309.00,0.063
310.00,0.084
311.00,0.113
312.00,0.160
313.00,0.215
314.00,0.280
315.00,0.364
316.00,0.466
317.00,0.580
318.00,0.713
319.00,0.874
320.00,1.058
321.00,1.266
322.00,1.497
323.00,1.778
324.00,2.042
325.00,2.317
326.00,2.620
327.00,2.950
328.00,3.297
329.00,3.642
330.00,3.993
331.00,4.360
332.00,4.740
333.00,5.137
334.00,5.498
335.00,5.883
336.00,6.255
337.00,6.642
338.00,6.983
339.00,7.348
340.00,7.681
341.00,8.043
342.00,8.316
343.00,8.625
344.00,8.963
345.00,9.220
346.00,9.442
347.00,9.693
348.00,9.920
349.00,10.105
350.00,10.313
351.00,10.489
352.00,10.665
353.00,10.822
354.00,10.975
355.00,11.114
356.00,11.222
357.00,11.322
358.00,11.437
359.00,11.547
360.00,11.644
361.00,11.666
362.00,11.749
363.00,11.810
364.00,11.848
365.00,11.868
366.00,11.896
367.00,11.914
368.00,11.946
369.00,11.936
370.00,11.968
371.00,11.927
372.00,11.886
373.00,11.907
374.00,11.907
375.00,11.831
376.00,11.775
377.00,11.753
378.00,11.690
379.00,11.655
380.00,11.614
381.00,11.548
382.00,11.534
383.00,11.490
384.00,11.529
385.00,11.488
386.00,11.484
387.00,11.524
388.00,11.507
389.00,11.466
390.00,11.452
391.00,11.476
392.00,11.451
393.00,11.438
394.00,11.452
395.00,11.424
396.00,11.391
397.00,11.409
398.00,11.387
399.00,11.365
400.00,11.368
401.00,11.330
402.00,11.354
403.00,11.354
404.00,11.322
405.00,11.298
406.00,11.302
407.00,11.245
408.00,11.266
409.00,11.221
410.00,11.200
411.00,11.218
412.00,11.188
413.00,11.193
414.00,11.169
415.00,11.175
416.00,11.201
417.00,11.210
418.00,11.215
419.00,11.266
420.00,11.307
421.00,11.281
422.00,11.295
423.00,11.318
424.00,11.333
425.00,11.354
426.00,11.404
427.00,11.431
428.00,11.460
429.00,11.502
430.00,11.542
431.00,11.575
432.00,11.610
433.00,11.666
434.00,11.717
435.00,11.767
436.00,11.829
437.00,11.875
438.00,11.929
439.00,12.006
440.00,12.057
441.00,12.140
442.00,12.201
443.00,12.268
444.00,12.351
445.00,12.433
446.00,12.507
447.00,12.583
448.00,12.675
449.00,12.768
450.00,12.849
451.00,12.925
452.00,13.027
453.00,13.137
454.00,13.200
455.00,13.350
456.00,13.405
457.00,13.538
458.00,13.633
459.00,13.737
460.00,13.876
461.00,13.970
462.00,14.090
463.00,14.198
464.00,14.332
465.00,14.444
466.00,14.578
467.00,14.679
468.00,14.768
469.00,14.904
470.00,15.051
471.00,15.065
472.00,15.273
473.00,15.366
474.00,15.496
475.00,15.618
476.00,15.722
477.00,15.851
478.00,15.988
479.00,16.140
480.00,16.277
481.00,16.444
482.00,16.593
483.00,16.740
484.00,16.849
485.00,16.990
486.00,17.161
487.00,17.313
488.00,17.475
489.00,17.622
490.00,17.758
491.00,17.904
492.00,18.079
493.00,18.277
494.00,18.419
495.00,18.444
496.00,18.589
497.00,18.712
498.00,18.869
499.00,19.046
500.00,19.189
501.00,19.295
502.00,19.485
503.00,19.612
504.00,19.692
505.00,19.868
506.00,20.008
507.00,20.124
508.00,20.228
509.00,20.414
510.00,20.536
511.00,20.660
512.00,20.829
513.00,20.979
514.00,21.085
515.00,21.231
516.00,21.365
517.00,21.486
518.00,21.642
519.00,21.698
520.00,21.815
521.00,21.937
522.00,22.023
523.00,22.071
524.00,22.197
525.00,22.353
526.00,22.484
527.00,22.573
528.00,22.674
529.00,22.843
530.00,22.978
531.00,23.066
532.00,23.146
533.00,23.281
534.00,23.412
535.00,23.493
536.00,23.589
537.00,23.704
538.00,23.783
539.00,23.820
540.00,23.956
541.00,23.974
542.00,24.095
543.00,24.185
544.00,24.263
545.00,24.352
546.00,24.391
547.00,24.537
548.00,24.629
549.00,24.678
550.00,24.785
551.00,24.909
552.00,24.991
553.00,25.027
554.00,25.094
555.00,25.187
556.00,25.230
557.00,25.298
558.00,25.403
559.00,25.471
560.00,25.570
561.00,25.624
562.00,25.695
563.00,25.762
564.00,25.800
565.00,25.839
566.00,25.822
567.00,25.987
568.00,26.042
569.00,26.028
570.00,26.069
571.00,26.208
572.00,26.162
573.00,26.247
574.00,26.280
575.00,26.338
576.00,26.366
577.00,26.435
578.00,26.534
579.00,26.627
580.00,26.652
581.00,26.789
582.00,26.868
583.00,26.892
584.00,26.980
585.00,27.069
586.00,27.124
587.00,27.202
588.00,27.225
589.00,27.241
590.00,27.299
591.00,27.361
592.00,27.395
593.00,27.451
594.00,27.545
595.00,27.598
596.00,27.674
597.00,27.760
598.00,27.798
599.00,27.834
600.00,27.897
601.00,27.985
602.00,28.023
603.00,28.100
604.00,28.133
605.00,28.199
606.00,28.307
607.00,28.337
608.00,28.384
609.00,28.482
610.00,28.637
611.00,28.558
612.00,28.619
613.00,28.671
614.00,28.717
615.00,28.855
616.00,28.930
617.00,28.948
618.00,28.966
619.00,29.074
620.00,29.182
621.00,29.242
622.00,29.324
623.00,29.355
624.00,29.499
625.00,29.608
626.00,29.677
627.00,29.733
628.00,29.785
629.00,29.904
630.00,29.960
631.00,30.048
632.00,30.141
633.00,30.254
634.00,30.370
635.00,30.481
636.00,30.563
637.00,30.665
638.00,30.725
639.00,30.934
640.00,30.993
641.00,30.995
642.00,31.087
643.00,31.240
644.00,31.359
645.00,31.467
646.00,31.639
647.00,31.756
648.00,31.814
649.00,31.937
650.00,31.977
651.00,32.166
652.00,32.282
653.00,32.356
654.00,32.479
655.00,32.652
656.00,32.966
657.00,32.863
658.00,33.029
659.00,33.137
660.00,33.313
661.00,33.395
662.00,33.589
663.00,33.657
664.00,33.949
665.00,34.142
666.00,34.154
667.00,34.237
668.00,34.311
669.00,34.702
670.00,34.892
671.00,34.880
672.00,35.001
673.00,35.148
674.00,35.238
675.00,35.413
676.00,35.677
677.00,35.785
678.00,35.712
679.00,35.997
680.00,36.059
681.00,36.329
682.00,36.410
683.00,36.455
684.00,36.722
685.00,36.915
686.00,36.825
687.00,36.846
688.00,37.292
689.00,37.467
690.00,37.687
691.00,37.951
692.00,37.727
693.00,37.869
694.00,38.012
695.00,38.273
696.00,38.487
697.00,38.389
698.00,38.562
699.00,39.099
700.00,39.190
701.00,39.139
702.00,39.377
703.00,39.589
704.00,39.835
705.00,39.824
706.00,39.920
707.00,39.960
708.00,40.011
709.00,40.445
710.00,40.781
711.00,40.555
712.00,40.625
713.00,40.865
714.00,40.992
715.00,41.084
716.00,41.147
717.00,41.336
718.00,41.614
719.00,41.603
720.00,41.733
721.00,46.078
722.00,46.120
723.00,46.168
724.00,46.261
725.00,46.356
726.00,46.478
727.00,46.499
728.00,46.675
729.00,46.804
730.00,46.835
731.00,46.917
732.00,46.941
733.00,47.144
734.00,47.201
735.00,47.317
736.00,47.398
737.00,47.529
738.00,47.605
739.00,47.691
740.00,47.790
741.00,47.889
742.00,47.993
743.00,48.008
744.00,48.102
745.00,48.217
746.00,48.236
747.00,48.258
748.00,48.323
749.00,48.304
750.00,48.387
751.00,48.500
752.00,48.611
753.00,48.613
754.00,48.683
755.00,48.764
756.00,48.746
757.00,48.851
758.00,48.832
759.00,49.010
760.00,48.979
761.00,49.100
762.00,49.106
763.00,49.182
764.00,49.316
765.00,49.368
766.00,49.290
767.00,49.448
768.00,49.470
769.00,49.519
770.00,49.610
771.00,49.586
772.00,49.703
773.00,49.731
774.00,49.826
775.00,49.810
776.00,49.852
777.00,49.926
778.00,49.866
779.00,50.061
780.00,50.019
781.00,50.001
782.00,50.074
783.00,50.086
784.00,50.133
785.00,50.138
786.00,50.268
787.00,50.165
788.00,50.262
789.00,50.338
790.00,50.207
791.00,50.378
792.00,50.335
793.00,50.369
794.00,50.422
795.00,50.351
796.00,50.419
797.00,50.335
798.00,50.468
799.00,50.430
800.00,50.459
801.00,50.457
802.00,50.501
803.00,50.529
804.00,50.454
805.00,50.541
806.00,50.461
807.00,50.530
808.00,50.550
809.00,50.501
810.00,50.605
811.00,50.553
812.00,50.614
813.00,50.560
814.00,50.602
815.00,50.561
816.00,50.596
817.00,50.652
818.00,50.531
819.00,50.642
820.00,50.488
821.00,50.627
822.00,50.555
823.00,50.597
824.00,50.657
825.00,50.519
826.00,50.620
827.00,50.675
828.00,50.670
829.00,50.636
830.00,50.629
831.00,52.840
832.00,52.878
833.00,52.834
834.00,52.902
835.00,52.814
836.00,52.874
837.00,52.873
838.00,52.834
839.00,52.772
840.00,52.742
841.00,52.808
842.00,52.783
843.00,52.796
844.00,52.838
845.00,52.750
846.00,52.804
847.00,52.758
848.00,52.802
849.00,52.695
850.00,52.735
851.00,52.668
852.00,52.701
853.00,52.638
854.00,52.666
855.00,52.611
856.00,52.626
857.00,52.591
858.00,52.562
859.00,52.567
860.00,52.573
861.00,52.585
862.00,52.546
863.00,52.598
864.00,52.534
865.00,52.581
866.00,52.544
867.00,52.561
868.00,52.563
869.00,52.509
870.00,52.562
871.00,52.540
872.00,52.569
873.00,52.534
874.00,52.565
875.00,52.529
876.00,52.573
877.00,52.515
878.00,52.540
879.00,52.498
880.00,52.494
881.00,52.504
882.00,52.533
883.00,52.466
884.00,52.417
885.00,52.437
886.00,52.448
887.00,52.429
888.00,52.411
889.00,52.392
890.00,52.419
891.00,52.376
892.00,52.356
893.00,52.350
894.00,52.362
895.00,52.297
896.00,52.282
897.00,52.271
898.00,52.267
899.00,52.277
900.00,52.230
901.00,52.246
902.00,52.250
903.00,52.176
904.00,52.174
905.00,52.198
906.00,52.206
907.00,52.167
908.00,52.116
909.00,52.144
910.00,52.111
911.00,52.087
912.00,52.109
913.00,52.058
914.00,52.126
915.00,51.999
916.00,52.055
917.00,52.024
918.00,52.031
919.00,52.017
920.00,51.947
921.00,51.956
922.00,51.931
923.00,51.929
924.00,51.877
925.00,51.898
926.00,51.874
927.00,51.889
928.00,51.838
929.00,51.877
930.00,51.837
931.00,51.822
932.00,51.755
933.00,51.804
934.00,51.754
935.00,51.718
936.00,51.704
937.00,51.704
938.00,51.694
939.00,51.698
940.00,51.648
941.00,51.673
942.00,51.632
943.00,51.633
944.00,51.578
945.00,51.582
946.00,51.659
947.00,51.526
948.00,51.530
949.00,51.504
950.00,51.490
951.00,51.468
952.00,51.470
953.00,51.408
954.00,51.407
955.00,51.362
956.00,51.365
957.00,51.324
958.00,51.330
959.00,51.266
960.00,51.293
961.00,51.324
962.00,51.281
963.00,51.241
964.00,51.217
965.00,51.244
966.00,51.213
967.00,51.211
968.00,51.192
969.00,51.230
970.00,51.183
971.00,51.216
972.00,51.175
973.00,51.214
974.00,51.244
975.00,51.188
976.00,51.226
977.00,51.206
978.00,51.248
979.00,51.187
980.00,51.220
981.00,51.230
982.00,51.173
983.00,51.207
984.00,51.173
985.00,51.213
986.00,51.150
987.00,51.177
988.00,51.149
989.00,51.134
990.00,51.138
991.00,51.115
992.00,51.144
993.00,51.100
994.00,51.076
995.00,51.085
996.00,51.068
997.00,51.062
998.00,51.024
999.00,51.058
1000.00,50.985
1001.00,50.995
1002.00,50.995
1003.00,50.982
1004.00,50.985
1005.00,50.947
1006.00,51.001
1007.00,50.950
1008.00,50.929
1009.00,50.910
1010.00,50.912
1011.00,50.892
1012.00,50.868
1013.00,50.905
1014.00,50.853
1015.00,50.865
1016.00,50.819
1017.00,50.817
1018.00,50.814
1019.00,50.761
1020.00,50.779
1021.00,50.741
1022.00,50.751
1023.00,50.747
1024.00,50.711
1025.00,50.679
1026.00,50.671
1027.00,50.646
1028.00,50.641
1029.00,50.649
1030.00,50.585
1031.00,50.611
1032.00,50.563
1033.00,50.555
1034.00,50.553
1035.00,50.505
1036.00,50.486
1037.00,50.475
1038.00,50.459
1039.00,50.416
1040.00,50.424
1041.00,50.381
1042.00,50.383
1043.00,50.376
1044.00,50.391
1045.00,50.381
1046.00,50.371
1047.00,50.402
1048.00,50.407
1049.00,50.419
1050.00,50.412
1051.00,50.460
1052.00,50.440
1053.00,50.442
1054.00,50.438
1055.00,50.459
1056.00,50.488
1057.00,50.481
1058.00,50.455
1059.00,50.454
1060.00,50.467
1061.00,50.446
1062.00,50.447
1063.00,50.435
1064.00,50.433
1065.00,50.405
1066.00,50.399
1067.00,50.404
1068.00,50.429
1069.00,50.364
1070.00,50.366
1071.00,50.355
1072.00,50.388
1073.00,50.367
1074.00,50.358
1075.00,50.338
1076.00,50.340
1077.00,50.301
1078.00,50.283
1079.00,50.292
1080.00,50.288
1081.00,50.281
1082.00,50.271
1083.00,50.275
1084.00,50.277
1085.00,50.268
1086.00,50.243
1087.00,50.247
1088.00,50.217
1089.00,50.223
1090.00,50.201
1091.00,50.189
1092.00,50.176
1093.00,50.160
1094.00,50.147
1095.00,50.164
1096.00,50.131
1097.00,50.135
1098.00,50.125
1099.00,50.112
1100.00,50.108
1101.00,50.106
1102.00,50.078
1103.00,50.103
1104.00,50.071
1105.00,50.064
1106.00,50.058
1107.00,50.052
1108.00,50.052
1109.00,50.067
1110.00,50.052
1111.00,50.040
1112.00,50.025
1113.00,50.013
1114.00,50.004
1115.00,50.009
1116.00,49.989
1117.00,49.983
1118.00,49.960
1119.00,49.961
1120.00,49.943
1121.00,49.931
1122.00,49.939
1123.00,49.952
1124.00,49.928
1125.00,49.944
1126.00,49.923
1127.00,49.932
1128.00,49.925
1129.00,49.905
1130.00,49.876
1131.00,49.879
1132.00,49.851
1133.00,49.861
1134.00,49.848
1135.00,49.837
1136.00,49.837
1137.00,49.832
1138.00,49.832
1139.00,49.852
1140.00,49.822
1141.00,49.817
1142.00,49.806
1143.00,49.812
1144.00,49.798
1145.00,49.793
1146.00,49.786
1147.00,49.783
1148.00,49.770
1149.00,49.787
1150.00,49.781
1151.00,49.770
1152.00,49.768
1153.00,49.770
1154.00,49.738
1155.00,49.755
1156.00,49.742
1157.00,49.743
1158.00,49.743
1159.00,49.743
1160.00,49.739
1161.00,49.761
1162.00,49.735
1163.00,49.736
1164.00,49.744
1165.00,49.728
1166.00,49.735
1167.00,49.708
1168.00,49.722
1169.00,49.722
1170.00,49.729
1171.00,49.719
1172.00,49.713
1173.00,49.690
1174.00,49.699
1175.00,49.701
1176.00,49.687
1177.00,49.692
1178.00,49.690
1179.00,49.695
1180.00,49.703
1181.00,49.716
1182.00,49.692
1183.00,49.694
1184.00,49.675
1185.00,49.679
1186.00,49.666
1187.00,49.662
1188.00,49.677
1189.00,49.665
1190.00,49.672
1191.00,49.664
1192.00,49.675
1193.00,49.681
1194.00,49.699
1195.00,49.665
1196.00,49.693
1197.00,49.665
1198.00,49.638
1199.00,49.634
1200.00,49.643
1201.00,49.649
1202.00,49.643
1203.00,49.642
1204.00,49.640
1205.00,49.664
1206.00,49.640
1207.00,49.646
1208.00,49.635
1209.00,49.623
1210.00,49.635
1211.00,49.621
1212.00,49.630
1213.00,49.607
1214.00,49.632
1215.00,49.608
1216.00,49.634
1217.00,49.619
1218.00,49.602
1219.00,49.630
1220.00,49.598
1221.00,49.633
1222.00,49.618
1223.00,49.644
1224.00,49.638
1225.00,49.609
1226.00,49.617
1227.00,49.617
1228.00,49.619
1229.00,49.611
1230.00,49.647
1231.00,49.625
1232.00,49.666
1233.00,49.682
1234.00,49.661
1235.00,49.667
1236.00,49.627
1237.00,49.663
1238.00,49.676
1239.00,49.678
1240.00,49.662
1241.00,49.670
1242.00,49.643
1243.00,49.666
1244.00,49.652
1245.00,49.679
1246.00,49.700
1247.00,49.681
1248.00,49.676
1249.00,49.707
1250.00,49.683
1251.00,49.697
1252.00,49.734
1253.00,49.709
1254.00,49.752
1255.00,49.708
1256.00,49.692
1257.00,49.683
1258.00,49.711
1259.00,49.699
1260.00,49.732
1261.00,49.727
1262.00,49.725
1263.00,49.727
1264.00,49.715
1265.00,49.730
1266.00,49.729
1267.00,49.733
1268.00,49.738
1269.00,49.731
1270.00,49.760
1271.00,49.769
1272.00,49.747
1273.00,49.767
1274.00,49.769
1275.00,49.768
1276.00,49.780
1277.00,49.785
1278.00,49.784
1279.00,49.796
1280.00,49.785
1281.00,49.797
1282.00,49.807
1283.00,49.795
1284.00,49.792
1285.00,49.793
1286.00,49.802
1287.00,49.804
1288.00,49.815
1289.00,49.782
1290.00,49.827
1291.00,49.812
1292.00,49.808
1293.00,49.831
1294.00,49.832
1295.00,49.829
1296.00,49.841
1297.00,49.831
1298.00,49.875
1299.00,49.858
1300.00,49.887
1301.00,49.874
1302.00,49.879
1303.00,49.887
1304.00,49.878
1305.00,49.891
1306.00,49.889
1307.00,49.901
1308.00,49.872
1309.00,49.902
1310.00,49.913
1311.00,49.897
1312.00,49.914
1313.00,49.916
1314.00,49.919
1315.00,49.943
1316.00,49.922
1317.00,49.973
1318.00,49.969
1319.00,49.961
1320.00,49.994
1321.00,50.129
1322.00,50.137
1323.00,50.131
1324.00,50.105
1325.00,50.091
1326.00,50.129
1327.00,50.104
1328.00,50.092
1329.00,50.105
1330.00,50.110
1331.00,50.113
1332.00,50.096
1333.00,50.105
1334.00,50.148
1335.00,50.143
1336.00,50.179
1337.00,50.226
1338.00,50.273
1339.00,50.323
1340.00,50.384
1341.00,50.443
1342.00,50.504
1343.00,50.536
1344.00,50.595
1345.00,50.668
1346.00,50.668
1347.00,50.695
1348.00,50.752
1349.00,50.740
1350.00,50.750
1351.00,50.776
1352.00,50.765
1353.00,50.813
1354.00,50.788
1355.00,50.744
1356.00,50.816
1357.00,50.767
1358.00,50.792
1359.00,50.830
1360.00,50.819
1361.00,50.836
1362.00,50.805
1363.00,50.830
1364.00,50.907
1365.00,50.783
1366.00,50.829
1367.00,50.834
1368.00,50.768
1369.00,50.815
1370.00,50.816
1371.00,50.764
1372.00,50.791
1373.00,50.799
1374.00,50.819
1375.00,50.787
1376.00,50.783
1377.00,50.756
1378.00,50.799
1379.00,50.756
1380.00,50.789
1381.00,50.797
1382.00,50.741
1383.00,50.780
1384.00,50.751
1385.00,50.767
1386.00,50.796
1387.00,50.796
1388.00,50.753
1389.00,50.768
1390.00,50.811
1391.00,50.805
1392.00,50.766
1393.00,50.718
1394.00,50.777
1395.00,50.773
1396.00,50.710
1397.00,50.710
1398.00,50.755
1399.00,50.761
1400.00,50.741
1401.00,50.740
1402.00,50.785
1403.00,50.788
1404.00,50.807
1405.00,50.813
1406.00,50.830
1407.00,50.830
1408.00,50.852
1409.00,50.813
1410.00,50.858
1411.00,50.835
1412.00,50.869
1413.00,50.838
1414.00,50.881
1415.00,50.875
1416.00,50.892
1417.00,50.906
1418.00,50.895
1419.00,50.920
1420.00,50.908
1421.00,50.945
1422.00,50.954
1423.00,50.977
1424.00,50.973
1425.00,51.024
1426.00,50.993
1427.00,51.023
1428.00,51.031
1429.00,51.025
1430.00,51.037
1431.00,51.065
1432.00,51.067
1433.00,51.097
1434.00,51.064
1435.00,51.120
1436.00,51.144
1437.00,51.149
1438.00,51.170
1439.00,51.197
1440.00,51.200
1441.00,51.199
1442.00,51.221
1443.00,51.231
1444.00,51.295
1445.00,51.266
1446.00,51.269
1447.00,51.302
1448.00,51.326
1449.00,51.336
1450.00,51.343
1451.00,51.342
1452.00,51.363
1453.00,51.366
1454.00,51.396
1455.00,51.420
1456.00,51.414
1457.00,51.410
1458.00,51.460
1459.00,51.471
1460.00,51.503
1461.00,51.498
1462.00,51.519
1463.00,51.515
1464.00,51.512
1465.00,51.534
1466.00,51.541
1467.00,51.538
1468.00,51.604
1469.00,51.586
1470.00,51.599
1471.00,51.624
1472.00,51.637
1473.00,51.637
1474.00,51.663
1475.00,51.669
1476.00,51.685
1477.00,51.674
1478.00,51.691
1479.00,51.710
1480.00,51.705
1481.00,51.709
1482.00,51.760
1483.00,51.761
1484.00,51.778
1485.00,51.799
1486.00,51.786
1487.00,51.829
1488.00,51.868
1489.00,51.829
1490.00,51.855
1491.00,51.867
1492.00,51.897
1493.00,51.871
1494.00,51.910
1495.00,51.897
1496.00,51.912
1497.00,51.900
1498.00,51.932
1499.00,51.974
1500.00,51.958
1501.00, 
1502.00, 
1503.00, 
1504.00, 
1505.00, 
1506.00, 
1507.00, 
1508.00, 
1509.00, 
1510.00, 
1511.00, 
1512.00, 
1513.00, 
1514.00, 
1515.00, 
1516.00, 
1517.00, 
1518.00, 
1519.00, 
1520.00, 
1521.00, 
1522.00, 
1523.00, 
1524.00, 
1525.00, 
1526.00, 
1527.00, 
1528.00, 
1529.00, 
1530.00, 
1531.00, 
1532.00, 
1533.00, 
1534.00, 
1535.00, 
1536.00, 
1537.00, 
1538.00, 
1539.00, 
1540.00, 
1541.00, 
1542.00, 
1543.00, 
1544.00, 
1545.00, 
1546.00, 
1547.00, 
1548.00, 
1549.00, 
1550.00, 
1551.00, 
1552.00, 
1553.00, 
1554.00, 
1555.00, 
1556.00, 
1557.00, 
1558.00, 
1559.00, 
1560.00, 
1561.00, 
1562.00, 
1563.00, 
1564.00, 
1565.00, 
1566.00, 
1567.00, 
1568.00, 
1569.00, 
1570.00, 
1571.00, 
1572.00, 
1573.00, 
1574.00, 
1575.00, 
1576.00, 
1577.00, 
1578.00, 
1579.00, 
1580.00, 
1581.00, 
1582.00, 
1583.00, 
1584.00, 
1585.00, 
1586.00, 
1587.00, 
1588.00, 
1589.00, 
1590.00, 
1591.00, 
1592.00, 
1593.00, 
1594.00, 
1595.00, 
1596.00, 
1597.00, 
1598.00, 
1599.00, 
1600.00, 
1601.00, 
1602.00, 
1603.00, 
1604.00, 
1605.00, 
1606.00, 
1607.00, 
1608.00, 
1609.00, 
1610.00, 
1611.00, 
1612.00, 
1613.00, 
1614.00, 
1615.00, 
1616.00, 
1617.00, 
1618.00, 
1619.00, 
1620.00, 
1621.00, 
1622.00, 
1623.00, 
1624.00, 
1625.00, 
1626.00, 
1627.00, 
1628.00, 
1629.00, 
1630.00, 
1631.00, 
1632.00, 
1633.00, 
1634.00, 
1635.00, 
1636.00, 
1637.00, 
1638.00, 
1639.00, 
1640.00, 
1641.00, 
1642.00, 
1643.00, 
1644.00, 
1645.00, 
1646.00, 
1647.00, 
1648.00, 
1649.00, 
1650.00, 
1651.00, 
1652.00, 
1653.00, 
1654.00, 
1655.00, 
1656.00, 
1657.00, 
1658.00, 
1659.00, 
1660.00, 
1661.00, 
1662.00, 
1663.00, 
1664.00, 
1665.00, 
1666.00, 
1667.00, 
1668.00, 
1669.00, 
1670.00, 
1671.00, 
1672.00, 
1673.00, 
1674.00, 
1675.00, 
1676.00, 
1677.00, 
1678.00, 
1679.00, 
1680.00, 
1681.00, 
1682.00, 
1683.00, 
1684.00, 
1685.00, 
1686.00, 
1687.00, 
1688.00, 
1689.00, 
1690.00, 
1691.00, 
1692.00, 
1693.00, 
1694.00, 
1695.00, 
1696.00, 
1697.00, 
1698.00, 
1699.00, 
1700.00, 
1701.00, 
1702.00, 
1703.00, 
1704.00, 
1705.00, 
1706.00, 
1707.00, 
1708.00, 
1709.00, 
1710.00, 
1711.00, 
1712.00, 
1713.00, 
1714.00, 
1715.00, 
1716.00, 
1717.00, 
1718.00, 
1719.00, 
1720.00, 
1721.00, 
1722.00, 
1723.00, 
1724.00, 
1725.00, 
1726.00, 
1727.00, 
1728.00, 
1729.00, 
1730.00, 
1731.00, 
1732.00, 
1733.00, 
1734.00, 
1735.00, 
1736.00, 
1737.00, 
1738.00, 
1739.00, 
1740.00, 
1741.00, 
1742.00, 
1743.00, 
1744.00, 
1745.00, 
1746.00, 
1747.00, 
1748.00, 
1749.00, 
1750.00, 
1751.00, 
1752.00, 
1753.00, 
1754.00, 
1755.00, 
1756.00, 
1757.00, 
1758.00, 
1759.00, 
1760.00, 
1761.00, 
1762.00, 
1763.00, 
1764.00, 
1765.00, 
1766.00, 
1767.00, 
1768.00, 
1769.00, 
1770.00, 
1771.00, 
1772.00, 
1773.00, 
1774.00, 
1775.00, 
1776.00, 
1777.00, 
1778.00, 
1779.00, 
1780.00, 
1781.00, 
1782.00, 
1783.00, 
1784.00, 
1785.00, 
1786.00, 
1787.00, 
1788.00, 
1789.00, 
1790.00, 
1791.00, 
1792.00, 
1793.00, 
1794.00, 
1795.00, 
1796.00, 
1797.00, 
1798.00, 
1799.00, 
1800.00, 
1801.00, 
1802.00, 
1803.00, 
1804.00, 
1805.00, 
1806.00, 
1807.00, 
1808.00, 
1809.00, 
1810.00, 
1811.00, 
1812.00, 
1813.00, 
1814.00, 
1815.00, 
1816.00, 
1817.00, 
1818.00, 
1819.00, 
1820.00, 
1821.00, 
1822.00, 
1823.00, 
1824.00, 
1825.00, 
1826.00, 
1827.00, 
1828.00, 
1829.00, 
1830.00, 
1831.00, 
1832.00, 
1833.00, 
1834.00, 
1835.00, 
1836.00, 
1837.00, 
1838.00, 
1839.00, 
1840.00, 
1841.00, 
1842.00, 
1843.00, 
1844.00, 
1845.00, 
1846.00, 
1847.00, 
1848.00, 
1849.00, 
1850.00, 
1851.00, 
1852.00, 
1853.00, 
1854.00, 
1855.00, 
1856.00, 
1857.00, 
1858.00, 
1859.00, 
1860.00, 
1861.00, 
1862.00, 
1863.00, 
1864.00, 
1865.00, 
1866.00, 
1867.00, 
1868.00, 
1869.00, 
1870.00, 
1871.00, 
1872.00, 
1873.00, 
1874.00, 
1875.00, 
1876.00, 
1877.00, 
1878.00, 
1879.00, 
1880.00, 
1881.00, 
1882.00, 
1883.00, 
1884.00, 
1885.00, 
1886.00, 
1887.00, 
1888.00, 
1889.00, 
1890.00, 
1891.00, 
1892.00, 
1893.00, 
1894.00, 
1895.00, 
1896.00, 
1897.00, 
1898.00, 
1899.00, 
1900.00, 
1901.00, 
1902.00, 
1903.00, 
1904.00, 
1905.00, 
1906.00, 
1907.00, 
1908.00, 
1909.00, 
1910.00, 
1911.00, 
1912.00, 
1913.00, 
1914.00, 
1915.00, 
1916.00, 
1917.00, 
1918.00, 
1919.00, 
1920.00, 
1921.00, 
1922.00, 
1923.00, 
1924.00, 
1925.00, 
1926.00, 
1927.00, 
1928.00, 
1929.00, 
1930.00, 
1931.00, 
1932.00, 
1933.00, 
1934.00, 
1935.00, 
1936.00, 
1937.00, 
1938.00, 
1939.00, 
1940.00, 
1941.00, 
1942.00, 
1943.00, 
1944.00, 
1945.00, 
1946.00, 
1947.00, 
1948.00, 
1949.00, 
1950.00, 
1951.00, 
1952.00, 
1953.00, 
1954.00, 
1955.00, 
1956.00, 
1957.00, 
1958.00, 
1959.00, 
1960.00, 
1961.00, 
1962.00, 
1963.00, 
1964.00, 
1965.00, 
1966.00, 
1967.00, 
1968.00, 
1969.00, 
1970.00, 
1971.00, 
1972.00, 
1973.00, 
1974.00, 
1975.00, 
1976.00, 
1977.00, 
1978.00, 
1979.00, 
1980.00, 
1981.00, 
1982.00, 
1983.00, 
1984.00, 
1985.00, 
1986.00, 
1987.00, 
1988.00, 
1989.00, 
1990.00, 
1991.00, 
1992.00, 
1993.00, 
1994.00, 
1995.00, 
1996.00, 
1997.00, 
1998.00, 
1999.00, 
2000.00, 
2001.00, 
2002.00, 
2003.00, 
2004.00, 
2005.00, 
2006.00, 
2007.00, 
2008.00, 
2009.00, 
2010.00, 
2011.00, 
2012.00, 
2013.00, 
2014.00, 
2015.00, 
2016.00, 
2017.00, 
2018.00, 
2019.00, 
2020.00, 
2021.00, 
2022.00, 
2023.00, 
2024.00, 
2025.00, 
2026.00, 
2027.00, 
2028.00, 
2029.00, 
2030.00, 
2031.00, 
2032.00, 
2033.00, 
2034.00, 
2035.00, 
2036.00, 
2037.00, 
2038.00, 
2039.00, 
2040.00, 
2041.00, 
2042.00, 
2043.00, 
2044.00, 
2045.00, 
2046.00, 
2047.00, 
2048.00, 
2049.00, 
2050.00, 
2051.00, 
2052.00, 
2053.00, 
2054.00, 
2055.00, 
2056.00, 
2057.00, 
2058.00, 
2059.00, 
2060.00, 
2061.00, 
2062.00, 
2063.00, 
2064.00, 
2065.00, 
2066.00, 
2067.00, 
2068.00, 
2069.00, 
2070.00, 
2071.00, 
2072.00, 
2073.00, 
2074.00, 
2075.00, 
2076.00, 
2077.00, 
2078.00, 
2079.00, 
2080.00, 
2081.00, 
2082.00, 
2083.00, 
2084.00, 
2085.00, 
2086.00, 
2087.00, 
2088.00, 
2089.00, 
2090.00, 
2091.00, 
2092.00, 
2093.00, 
2094.00, 
2095.00, 
2096.00, 
2097.00, 
2098.00, 
2099.00, 
2100.00, 
2101.00, 
2102.00, 
2103.00, 
2104.00, 
2105.00, 
2106.00, 
2107.00, 
2108.00, 
2109.00, 
2110.00, 
2111.00, 
2112.00, 
2113.00, 
2114.00, 
2115.00, 
2116.00, 
2117.00, 
2118.00, 
2119.00, 
2120.00, 
2121.00, 
2122.00, 
2123.00, 
2124.00, 
2125.00, 
2126.00, 
2127.00, 
2128.00, 
2129.00, 
2130.00, 
2131.00, 
2132.00, 
2133.00, 
2134.00, 
2135.00, 
2136.00, 
2137.00, 
2138.00, 
2139.00, 
2140.00, 
2141.00, 
2142.00, 
2143.00, 
2144.00, 
2145.00, 
2146.00, 
2147.00, 
2148.00, 
2149.00, 
2150.00, 
2151.00, 
2152.00, 
2153.00, 
2154.00, 
2155.00, 
2156.00, 
2157.00, 
2158.00, 
2159.00, 
2160.00, 
2161.00, 
2162.00, 
2163.00, 
2164.00, 
2165.00, 
2166.00, 
2167.00, 
2168.00, 
2169.00, 
2170.00, 
2171.00, 
2172.00, 
2173.00, 
2174.00, 
2175.00, 
2176.00, 
2177.00, 
2178.00, 
2179.00, 
2180.00, 
2181.00, 
2182.00, 
2183.00, 
2184.00, 
2185.00, 
2186.00, 
2187.00, 
2188.00, 
2189.00, 
2190.00, 
2191.00, 
2192.00, 
2193.00, 
2194.00, 
2195.00, 
2196.00, 
2197.00, 
2198.00, 
2199.00, 
2200.00, 
2201.00, 
2202.00, 
2203.00, 
2204.00, 
2205.00, 
2206.00, 
2207.00, 
2208.00, 
2209.00, 
2210.00, 
2211.00, 
2212.00, 
2213.00, 
2214.00, 
2215.00, 
2216.00, 
2217.00, 
2218.00, 
2219.00, 
2220.00, 
2221.00, 
2222.00, 
2223.00, 
2224.00, 
2225.00, 
2226.00, 
2227.00, 
2228.00, 
2229.00, 
2230.00, 
2231.00, 
2232.00, 
2233.00, 
2234.00, 
2235.00, 
2236.00, 
2237.00, 
2238.00, 
2239.00, 
2240.00, 
2241.00, 
2242.00, 
2243.00, 
2244.00, 
2245.00, 
2246.00, 
2247.00, 
2248.00, 
2249.00, 
2250.00, 
2251.00, 
2252.00, 
2253.00, 
2254.00, 
2255.00, 
2256.00, 
2257.00, 
2258.00, 
2259.00, 
2260.00, 
2261.00, 
2262.00, 
2263.00, 
2264.00, 
2265.00, 
2266.00, 
2267.00, 
2268.00, 
2269.00, 
2270.00, 
2271.00, 
2272.00, 
2273.00, 
2274.00, 
2275.00, 
2276.00, 
2277.00, 
2278.00, 
2279.00, 
2280.00, 
2281.00, 
2282.00, 
2283.00, 
2284.00, 
2285.00, 
2286.00, 
2287.00, 
2288.00, 
2289.00, 
2290.00, 
2291.00, 
2292.00, 
2293.00, 
2294.00, 
2295.00, 
2296.00, 
2297.00, 
2298.00, 
2299.00, 
2300.00, 
2301.00, 
2302.00, 
2303.00, 
2304.00, 
2305.00, 
2306.00, 
2307.00, 
2308.00, 
2309.00, 
2310.00, 
2311.00, 
2312.00, 
2313.00, 
2314.00, 
2315.00, 
2316.00, 
2317.00, 
2318.00, 
2319.00, 
2320.00, 
2321.00, 
2322.00, 
2323.00, 
2324.00, 
2325.00, 
2326.00, 
2327.00, 
2328.00, 
2329.00, 
2330.00, 
2331.00, 
2332.00, 
2333.00, 
2334.00, 
2335.00, 
2336.00, 
2337.00, 
2338.00, 
2339.00, 
2340.00, 
2341.00, 
2342.00, 
2343.00, 
2344.00, 
2345.00, 
2346.00, 
2347.00, 
2348.00, 
2349.00, 
2350.00, 
2351.00, 
2352.00, 
2353.00, 
2354.00, 
2355.00, 
2356.00, 
2357.00, 
2358.00, 
2359.00, 
2360.00, 
2361.00, 
2362.00, 
2363.00, 
2364.00, 
2365.00, 
2366.00, 
2367.00, 
2368.00, 
2369.00, 
2370.00, 
2371.00, 
2372.00, 
2373.00, 
2374.00, 
2375.00, 
2376.00, 
2377.00, 
2378.00, 
2379.00, 
2380.00, 
2381.00, 
2382.00, 
2383.00, 
2384.00, 
2385.00, 
2386.00, 
2387.00, 
2388.00, 
2389.00, 
2390.00, 
2391.00, 
2392.00, 
2393.00, 
2394.00, 
2395.00, 
2396.00, 
2397.00, 
2398.00, 
2399.00, 
2400.00, 
2401.00, 
2402.00, 
2403.00, 
2404.00, 
2405.00, 
2406.00, 
2407.00, 
2408.00, 
2409.00, 
2410.00, 
2411.00, 
2412.00, 
2413.00, 
2414.00, 
2415.00, 
2416.00, 
2417.00, 
2418.00, 
2419.00, 
2420.00, 
2421.00, 
2422.00, 
2423.00, 
2424.00, 
2425.00, 
2426.00, 
2427.00, 
2428.00, 
2429.00, 
2430.00, 
2431.00, 
2432.00, 
2433.00, 
2434.00, 
2435.00, 
2436.00, 
2437.00, 
2438.00, 
2439.00, 
2440.00, 
2441.00, 
2442.00, 
2443.00, 
2444.00, 
2445.00, 
2446.00, 
2447.00, 
2448.00, 
2449.00, 
2450.00, 
2451.00, 
2452.00, 
2453.00, 
2454.00, 
2455.00, 
2456.00, 
2457.00, 
2458.00, 
2459.00, 
2460.00, 
2461.00, 
2462.00, 
2463.00, 
2464.00, 
2465.00, 
2466.00, 
2467.00, 
2468.00, 
2469.00, 
2470.00, 
2471.00, 
2472.00, 
2473.00, 
2474.00, 
2475.00, 
2476.00, 
2477.00, 
2478.00, 
2479.00, 
2480.00, 
2481.00, 
2482.00, 
2483.00, 
2484.00, 
2485.00, 
2486.00, 
2487.00, 
2488.00, 
2489.00, 
2490.00, 
2491.00, 
2492.00, 
2493.00, 
2494.00, 
2495.00, 
2496.00, 
2497.00, 
2498.00, 
2499.00, 
2500.00, 
2501.00, 
2502.00, 
2503.00, 
2504.00, 
2505.00, 
2506.00, 
2507.00, 
2508.00, 
2509.00, 
2510.00, 
2511.00, 
2512.00, 
2513.00, 
2514.00, 
2515.00, 
2516.00, 
2517.00, 
2518.00, 
2519.00, 
2520.00, 
2521.00, 
2522.00, 
2523.00, 
2524.00, 
2525.00, 
2526.00, 
2527.00, 
2528.00, 
2529.00, 
2530.00, 
2531.00, 
2532.00, 
2533.00, 
2534.00, 
2535.00, 
2536.00, 
2537.00, 
2538.00, 
2539.00, 
2540.00, 
2541.00, 
2542.00, 
2543.00, 
2544.00, 
2545.00, 
2546.00, 
2547.00, 
2548.00, 
2549.00, 
2550.00, 
2551.00, 
2552.00, 
2553.00, 
2554.00, 
2555.00, 
2556.00, 
2557.00, 
2558.00, 
2559.00, 
2560.00, 
2561.00, 
2562.00, 
2563.00, 
2564.00, 
2565.00, 
2566.00, 
2567.00, 
2568.00, 
2569.00, 
2570.00, 
2571.00, 
2572.00, 
2573.00, 
2574.00, 
2575.00, 
2576.00, 
2577.00, 
2578.00, 
2579.00, 
2580.00, 
2581.00, 
2582.00, 
2583.00, 
2584.00, 
2585.00, 
2586.00, 
2587.00, 
2588.00, 
2589.00, 
2590.00, 
2591.00, 
2592.00, 
2593.00, 
2594.00, 
2595.00, 
2596.00, 
2597.00, 
2598.00, 
2599.00, 
2600.00, 
