"1aP2 - RawData"
"Wavelength nm.","T%"
200.00,0.004
201.00,0.001
202.00,-0.002
203.00,0.001
204.00,0.002
205.00,0.005
206.00,0.004
207.00,-0.000
208.00,0.001
209.00,-0.000
210.00,0.001
211.00,-0.002
212.00,0.001
213.00,0.000
214.00,0.002
215.00,0.000
216.00,-0.006
217.00,0.002
218.00,0.001
219.00,0.002
220.00,-0.001
221.00,0.000
222.00,-0.001
223.00,0.003
224.00,0.001
225.00,-0.002
226.00,0.004
227.00,-0.001
228.00,0.003
229.00,0.004
230.00,-0.000
231.00,-0.001
232.00,0.003
233.00,0.001
234.00,-0.001
235.00,0.001
236.00,0.001
237.00,-0.001
238.00,0.001
239.00,-0.000
240.00,0.001
241.00,0.001
242.00,0.001
243.00,0.001
244.00,-0.001
245.00,0.001
246.00,0.001
247.00,-0.001
248.00,-0.000
249.00,0.001
250.00,0.001
251.00,-0.000
252.00,-0.002
253.00,-0.000
254.00,-0.001
255.00,-0.001
256.00,0.000
257.00,0.001
258.00,0.002
259.00,-0.000
260.00,-0.001
261.00,0.001
262.00,-0.000
263.00,-0.001
264.00,0.000
265.00,-0.000
266.00,0.001
267.00,0.001
268.00,0.001
269.00,0.000
270.00,-0.001
271.00,-0.001
272.00,0.000
273.00,-0.001
274.00,-0.000
275.00,0.001
276.00,-0.000
277.00,-0.001
278.00,0.000
279.00,-0.001
280.00,0.001
281.00,0.000
282.00,0.001
283.00,-0.001
284.00,0.001
285.00,0.001
286.00,0.000
287.00,0.000
288.00,-0.000
289.00,-0.001
290.00,-0.000
291.00,-0.001
292.00,-0.001
293.00,0.001
294.00,0.003
295.00,-0.001
296.00,-0.001
297.00,0.002
298.00,0.001
299.00,0.003
300.00,0.002
301.00,0.006
302.00,0.006
303.00,0.015
304.00,0.019
305.00,0.032
306.00,0.046
307.00,0.073
308.00,0.108
309.00,0.168
310.00,0.236
311.00,0.317
312.00,0.433
313.00,0.578
314.00,0.749
315.00,0.973
316.00,1.232
317.00,1.556
318.00,1.903
319.00,2.313
320.00,2.808
321.00,3.339
322.00,3.927
323.00,4.562
324.00,5.222
325.00,5.941
326.00,6.653
327.00,7.437
328.00,8.276
329.00,9.094
330.00,9.931
331.00,10.757
332.00,11.623
333.00,12.559
334.00,13.381
335.00,14.284
336.00,15.125
337.00,15.938
338.00,16.768
339.00,17.534
340.00,18.352
341.00,19.116
342.00,19.736
343.00,20.455
344.00,20.905
345.00,21.731
346.00,22.228
347.00,22.763
348.00,23.342
349.00,23.745
350.00,24.192
351.00,24.647
352.00,25.106
353.00,25.375
354.00,25.754
355.00,26.031
356.00,26.321
357.00,26.576
358.00,26.835
359.00,27.108
360.00,27.343
361.00,27.479
362.00,27.676
363.00,27.881
364.00,27.970
365.00,28.110
366.00,28.209
367.00,28.278
368.00,28.373
369.00,28.410
370.00,28.453
371.00,28.516
372.00,28.475
373.00,28.448
374.00,28.450
375.00,28.430
376.00,28.409
377.00,28.367
378.00,28.295
379.00,28.168
380.00,28.163
381.00,28.161
382.00,28.154
383.00,28.150
384.00,28.195
385.00,28.232
386.00,28.250
387.00,28.325
388.00,28.396
389.00,28.409
390.00,28.478
391.00,28.511
392.00,28.524
393.00,28.559
394.00,28.551
395.00,28.598
396.00,28.596
397.00,28.622
398.00,28.624
399.00,28.645
400.00,28.677
401.00,28.669
402.00,28.661
403.00,28.616
404.00,28.620
405.00,28.607
406.00,28.599
407.00,28.549
408.00,28.542
409.00,28.510
410.00,28.426
411.00,28.455
412.00,28.397
413.00,28.477
414.00,28.413
415.00,28.439
416.00,28.464
417.00,28.464
418.00,28.500
419.00,28.557
420.00,28.580
421.00,28.682
422.00,28.721
423.00,28.657
424.00,28.738
425.00,28.822
426.00,28.824
427.00,28.879
428.00,28.947
429.00,28.960
430.00,28.983
431.00,29.073
432.00,29.086
433.00,29.150
434.00,29.233
435.00,29.316
436.00,29.388
437.00,29.422
438.00,29.467
439.00,29.512
440.00,29.596
441.00,29.662
442.00,29.782
443.00,29.850
444.00,29.950
445.00,30.011
446.00,30.119
447.00,30.224
448.00,30.259
449.00,30.436
450.00,30.542
451.00,30.608
452.00,30.738
453.00,30.843
454.00,30.961
455.00,31.041
456.00,31.137
457.00,31.282
458.00,31.357
459.00,31.501
460.00,31.605
461.00,31.716
462.00,31.861
463.00,31.934
464.00,32.108
465.00,32.235
466.00,32.323
467.00,32.497
468.00,32.613
469.00,32.719
470.00,32.802
471.00,32.900
472.00,33.013
473.00,33.072
474.00,33.178
475.00,33.336
476.00,33.402
477.00,33.527
478.00,33.628
479.00,33.773
480.00,33.923
481.00,34.023
482.00,34.156
483.00,34.282
484.00,34.436
485.00,34.631
486.00,34.754
487.00,34.867
488.00,34.989
489.00,35.192
490.00,35.282
491.00,35.390
492.00,35.646
493.00,35.696
494.00,35.761
495.00,35.885
496.00,35.882
497.00,36.131
498.00,36.311
499.00,36.445
500.00,36.497
501.00,36.627
502.00,36.776
503.00,36.863
504.00,36.940
505.00,37.055
506.00,37.213
507.00,37.254
508.00,37.357
509.00,37.531
510.00,37.600
511.00,37.739
512.00,37.834
513.00,37.933
514.00,38.065
515.00,38.208
516.00,38.289
517.00,38.375
518.00,38.458
519.00,38.518
520.00,38.643
521.00,38.683
522.00,38.709
523.00,38.827
524.00,38.913
525.00,38.942
526.00,39.090
527.00,39.120
528.00,39.236
529.00,39.328
530.00,39.418
531.00,39.620
532.00,39.670
533.00,39.742
534.00,39.846
535.00,39.900
536.00,40.005
537.00,40.023
538.00,40.099
539.00,40.154
540.00,40.212
541.00,40.233
542.00,40.263
543.00,40.305
544.00,40.418
545.00,40.408
546.00,40.511
547.00,40.568
548.00,40.617
549.00,40.729
550.00,40.770
551.00,40.905
552.00,40.951
553.00,40.985
554.00,41.026
555.00,41.042
556.00,41.134
557.00,41.157
558.00,41.200
559.00,41.270
560.00,41.332
561.00,41.311
562.00,41.411
563.00,41.436
564.00,41.459
565.00,41.478
566.00,41.514
567.00,41.483
568.00,41.639
569.00,41.552
570.00,41.446
571.00,41.721
572.00,41.720
573.00,41.744
574.00,41.797
575.00,41.786
576.00,41.783
577.00,41.806
578.00,41.916
579.00,41.924
580.00,41.952
581.00,42.105
582.00,42.114
583.00,42.159
584.00,42.220
585.00,42.215
586.00,42.360
587.00,42.377
588.00,42.384
589.00,42.399
590.00,42.431
591.00,42.439
592.00,42.418
593.00,42.463
594.00,42.503
595.00,42.580
596.00,42.618
597.00,42.580
598.00,42.721
599.00,42.712
600.00,42.865
601.00,42.936
602.00,42.904
603.00,42.953
604.00,42.909
605.00,42.999
606.00,43.033
607.00,43.011
608.00,43.154
609.00,43.178
610.00,43.167
611.00,43.129
612.00,43.145
613.00,43.215
614.00,43.263
615.00,43.263
616.00,43.402
617.00,43.417
618.00,43.393
619.00,43.402
620.00,43.426
621.00,43.557
622.00,43.629
623.00,43.683
624.00,43.706
625.00,43.715
626.00,43.764
627.00,43.811
628.00,43.868
629.00,43.900
630.00,43.937
631.00,43.972
632.00,44.061
633.00,44.105
634.00,44.172
635.00,44.318
636.00,44.349
637.00,44.420
638.00,44.456
639.00,44.445
640.00,44.482
641.00,44.475
642.00,44.559
643.00,44.736
644.00,44.780
645.00,44.823
646.00,44.957
647.00,44.941
648.00,45.067
649.00,45.131
650.00,45.066
651.00,45.135
652.00,45.132
653.00,45.263
654.00,45.383
655.00,45.391
656.00,45.583
657.00,45.655
658.00,45.766
659.00,45.944
660.00,45.793
661.00,45.711
662.00,45.933
663.00,46.024
664.00,46.139
665.00,46.245
666.00,46.247
667.00,46.442
668.00,46.355
669.00,46.545
670.00,46.677
671.00,46.638
672.00,46.745
673.00,46.827
674.00,46.831
675.00,46.945
676.00,47.067
677.00,47.044
678.00,46.995
679.00,47.179
680.00,47.183
681.00,47.382
682.00,47.278
683.00,47.527
684.00,47.601
685.00,47.574
686.00,47.622
687.00,47.725
688.00,47.814
689.00,47.800
690.00,47.921
691.00,48.086
692.00,48.004
693.00,47.941
694.00,48.152
695.00,48.261
696.00,48.283
697.00,48.444
698.00,48.384
699.00,48.520
700.00,48.566
701.00,48.673
702.00,48.693
703.00,48.811
704.00,48.960
705.00,48.761
706.00,48.846
707.00,48.901
708.00,48.697
709.00,49.102
710.00,49.333
711.00,49.088
712.00,49.273
713.00,49.286
714.00,49.301
715.00,49.379
716.00,49.373
717.00,49.536
718.00,49.494
719.00,49.579
720.00,49.732
721.00,53.980
722.00,54.010
723.00,53.977
724.00,54.014
725.00,54.040
726.00,54.012
727.00,53.959
728.00,53.988
729.00,54.052
730.00,54.007
731.00,54.059
732.00,54.013
733.00,54.057
734.00,54.112
735.00,54.071
736.00,54.129
737.00,54.111
738.00,54.244
739.00,54.271
740.00,54.205
741.00,54.275
742.00,54.241
743.00,54.225
744.00,54.239
745.00,54.152
746.00,54.201
747.00,54.176
748.00,54.206
749.00,54.240
750.00,54.141
751.00,54.065
752.00,54.137
753.00,54.178
754.00,54.221
755.00,54.126
756.00,54.225
757.00,54.135
758.00,54.086
759.00,54.173
760.00,54.098
761.00,54.173
762.00,54.107
763.00,54.132
764.00,54.113
765.00,54.172
766.00,54.138
767.00,54.217
768.00,54.105
769.00,54.099
770.00,54.232
771.00,54.189
772.00,54.177
773.00,54.166
774.00,54.223
775.00,54.128
776.00,54.144
777.00,54.236
778.00,54.134
779.00,54.116
780.00,54.200
781.00,54.156
782.00,54.168
783.00,54.120
784.00,54.107
785.00,54.021
786.00,54.153
787.00,54.112
788.00,54.049
789.00,54.081
790.00,54.005
791.00,53.996
792.00,53.996
793.00,53.994
794.00,54.033
795.00,54.055
796.00,53.989
797.00,53.827
798.00,53.970
799.00,53.787
800.00,53.868
801.00,53.839
802.00,53.862
803.00,53.804
804.00,53.793
805.00,53.822
806.00,53.845
807.00,53.747
808.00,53.767
809.00,53.807
810.00,53.672
811.00,53.731
812.00,53.732
813.00,53.675
814.00,53.733
815.00,53.705
816.00,53.658
817.00,53.678
818.00,53.543
819.00,53.636
820.00,53.455
821.00,53.605
822.00,53.533
823.00,53.458
824.00,53.534
825.00,53.404
826.00,53.502
827.00,53.530
828.00,53.496
829.00,53.447
830.00,53.301
831.00,55.939
832.00,55.938
833.00,55.852
834.00,55.848
835.00,55.819
836.00,55.925
837.00,55.809
838.00,55.776
839.00,55.794
840.00,55.771
841.00,55.745
842.00,55.729
843.00,55.763
844.00,55.734
845.00,55.710
846.00,55.608
847.00,55.647
848.00,55.655
849.00,55.570
850.00,55.541
851.00,55.499
852.00,55.533
853.00,55.453
854.00,55.429
855.00,55.373
856.00,55.391
857.00,55.341
858.00,55.355
859.00,55.312
860.00,55.307
861.00,55.308
862.00,55.268
863.00,55.282
864.00,55.238
865.00,55.257
866.00,55.257
867.00,55.246
868.00,55.194
869.00,55.206
870.00,55.227
871.00,55.203
872.00,55.186
873.00,55.162
874.00,55.178
875.00,55.138
876.00,55.112
877.00,55.148
878.00,55.128
879.00,55.102
880.00,55.088
881.00,55.083
882.00,55.115
883.00,55.059
884.00,54.995
885.00,55.033
886.00,55.020
887.00,54.982
888.00,54.963
889.00,54.956
890.00,54.919
891.00,54.943
892.00,54.894
893.00,54.870
894.00,54.878
895.00,54.837
896.00,54.815
897.00,54.815
898.00,54.786
899.00,54.804
900.00,54.769
901.00,54.742
902.00,54.781
903.00,54.708
904.00,54.676
905.00,54.688
906.00,54.682
907.00,54.651
908.00,54.626
909.00,54.633
910.00,54.586
911.00,54.580
912.00,54.553
913.00,54.536
914.00,54.521
915.00,54.506
916.00,54.500
917.00,54.460
918.00,54.470
919.00,54.418
920.00,54.402
921.00,54.370
922.00,54.458
923.00,54.330
924.00,54.299
925.00,54.335
926.00,54.304
927.00,54.279
928.00,54.195
929.00,54.369
930.00,54.226
931.00,54.245
932.00,54.199
933.00,54.196
934.00,54.183
935.00,54.144
936.00,54.137
937.00,54.118
938.00,54.126
939.00,54.123
940.00,54.081
941.00,54.069
942.00,54.043
943.00,54.033
944.00,54.064
945.00,53.996
946.00,53.986
947.00,53.937
948.00,53.935
949.00,53.919
950.00,53.914
951.00,53.900
952.00,53.845
953.00,53.821
954.00,53.821
955.00,53.758
956.00,53.753
957.00,53.718
958.00,53.725
959.00,53.674
960.00,53.678
961.00,53.673
962.00,53.676
963.00,53.614
964.00,53.629
965.00,53.641
966.00,53.588
967.00,53.602
968.00,53.564
969.00,53.596
970.00,53.575
971.00,53.568
972.00,53.544
973.00,53.566
974.00,53.558
975.00,53.569
976.00,53.591
977.00,53.572
978.00,53.626
979.00,53.585
980.00,53.592
981.00,53.596
982.00,53.539
983.00,53.579
984.00,53.557
985.00,53.564
986.00,53.545
987.00,53.556
988.00,53.513
989.00,53.515
990.00,53.507
991.00,53.497
992.00,53.501
993.00,53.455
994.00,53.447
995.00,53.447
996.00,53.431
997.00,53.442
998.00,53.395
999.00,53.409
1000.00,53.421
1001.00,53.363
1002.00,53.388
1003.00,53.361
1004.00,53.344
1005.00,53.336
1006.00,53.370
1007.00,53.340
1008.00,53.335
1009.00,53.318
1010.00,53.291
1011.00,53.295
1012.00,53.265
1013.00,53.268
1014.00,53.228
1015.00,53.226
1016.00,53.210
1017.00,53.195
1018.00,53.168
1019.00,53.140
1020.00,53.184
1021.00,53.167
1022.00,53.122
1023.00,53.078
1024.00,53.088
1025.00,53.082
1026.00,53.070
1027.00,53.055
1028.00,53.036
1029.00,53.011
1030.00,52.999
1031.00,53.002
1032.00,52.947
1033.00,52.974
1034.00,52.939
1035.00,52.923
1036.00,52.887
1037.00,52.876
1038.00,52.858
1039.00,52.826
1040.00,52.820
1041.00,52.808
1042.00,52.801
1043.00,52.764
1044.00,52.815
1045.00,52.785
1046.00,52.772
1047.00,52.787
1048.00,52.801
1049.00,52.814
1050.00,52.825
1051.00,52.851
1052.00,52.861
1053.00,52.861
1054.00,52.857
1055.00,52.884
1056.00,52.894
1057.00,52.896
1058.00,52.892
1059.00,52.878
1060.00,52.881
1061.00,52.873
1062.00,52.854
1063.00,52.888
1064.00,52.872
1065.00,52.866
1066.00,52.862
1067.00,52.855
1068.00,52.882
1069.00,52.850
1070.00,52.840
1071.00,52.822
1072.00,52.832
1073.00,52.798
1074.00,52.809
1075.00,52.787
1076.00,52.776
1077.00,52.781
1078.00,52.755
1079.00,52.762
1080.00,52.766
1081.00,52.737
1082.00,52.756
1083.00,52.736
1084.00,52.729
1085.00,52.746
1086.00,52.721
1087.00,52.705
1088.00,52.714
1089.00,52.704
1090.00,52.699
1091.00,52.707
1092.00,52.700
1093.00,52.678
1094.00,52.663
1095.00,52.641
1096.00,52.641
1097.00,52.627
1098.00,52.614
1099.00,52.618
1100.00,52.614
1101.00,52.616
1102.00,52.607
1103.00,52.606
1104.00,52.594
1105.00,52.580
1106.00,52.556
1107.00,52.569
1108.00,52.543
1109.00,52.514
1110.00,52.535
1111.00,52.504
1112.00,52.506
1113.00,52.507
1114.00,52.497
1115.00,52.513
1116.00,52.499
1117.00,52.480
1118.00,52.482
1119.00,52.489
1120.00,52.473
1121.00,52.470
1122.00,52.452
1123.00,52.437
1124.00,52.430
1125.00,52.428
1126.00,52.425
1127.00,52.418
1128.00,52.399
1129.00,52.400
1130.00,52.379
1131.00,52.388
1132.00,52.399
1133.00,52.381
1134.00,52.369
1135.00,52.355
1136.00,52.371
1137.00,52.376
1138.00,52.361
1139.00,52.346
1140.00,52.357
1141.00,52.356
1142.00,52.325
1143.00,52.347
1144.00,52.326
1145.00,52.335
1146.00,52.326
1147.00,52.341
1148.00,52.332
1149.00,52.349
1150.00,52.357
1151.00,52.356
1152.00,52.334
1153.00,52.330
1154.00,52.316
1155.00,52.309
1156.00,52.301
1157.00,52.331
1158.00,52.317
1159.00,52.317
1160.00,52.302
1161.00,52.315
1162.00,52.331
1163.00,52.319
1164.00,52.314
1165.00,52.317
1166.00,52.306
1167.00,52.307
1168.00,52.326
1169.00,52.317
1170.00,52.334
1171.00,52.323
1172.00,52.325
1173.00,52.340
1174.00,52.322
1175.00,52.301
1176.00,52.309
1177.00,52.290
1178.00,52.307
1179.00,52.323
1180.00,52.303
1181.00,52.323
1182.00,52.308
1183.00,52.304
1184.00,52.303
1185.00,52.309
1186.00,52.289
1187.00,52.302
1188.00,52.289
1189.00,52.298
1190.00,52.282
1191.00,52.272
1192.00,52.315
1193.00,52.284
1194.00,52.281
1195.00,52.274
1196.00,52.305
1197.00,52.295
1198.00,52.285
1199.00,52.292
1200.00,52.308
1201.00,52.318
1202.00,52.283
1203.00,52.297
1204.00,52.285
1205.00,52.291
1206.00,52.296
1207.00,52.291
1208.00,52.273
1209.00,52.305
1210.00,52.285
1211.00,52.285
1212.00,52.298
1213.00,52.245
1214.00,52.275
1215.00,52.270
1216.00,52.275
1217.00,52.294
1218.00,52.302
1219.00,52.316
1220.00,52.315
1221.00,52.328
1222.00,52.316
1223.00,52.330
1224.00,52.301
1225.00,52.302
1226.00,52.307
1227.00,52.295
1228.00,52.325
1229.00,52.319
1230.00,52.347
1231.00,52.353
1232.00,52.357
1233.00,52.364
1234.00,52.374
1235.00,52.350
1236.00,52.366
1237.00,52.348
1238.00,52.329
1239.00,52.360
1240.00,52.331
1241.00,52.334
1242.00,52.341
1243.00,52.352
1244.00,52.340
1245.00,52.375
1246.00,52.385
1247.00,52.391
1248.00,52.374
1249.00,52.391
1250.00,52.414
1251.00,52.394
1252.00,52.389
1253.00,52.391
1254.00,52.414
1255.00,52.402
1256.00,52.374
1257.00,52.359
1258.00,52.414
1259.00,52.392
1260.00,52.416
1261.00,52.446
1262.00,52.436
1263.00,52.421
1264.00,52.437
1265.00,52.442
1266.00,52.434
1267.00,52.457
1268.00,52.458
1269.00,52.456
1270.00,52.461
1271.00,52.457
1272.00,52.495
1273.00,52.498
1274.00,52.486
1275.00,52.501
1276.00,52.505
1277.00,52.510
1278.00,52.515
1279.00,52.515
1280.00,52.514
1281.00,52.543
1282.00,52.549
1283.00,52.541
1284.00,52.556
1285.00,52.524
1286.00,52.552
1287.00,52.560
1288.00,52.567
1289.00,52.548
1290.00,52.558
1291.00,52.585
1292.00,52.574
1293.00,52.593
1294.00,52.604
1295.00,52.585
1296.00,52.574
1297.00,52.595
1298.00,52.616
1299.00,52.586
1300.00,52.608
1301.00,52.603
1302.00,52.643
1303.00,52.643
1304.00,52.618
1305.00,52.660
1306.00,52.652
1307.00,52.664
1308.00,52.676
1309.00,52.673
1310.00,52.661
1311.00,52.657
1312.00,52.661
1313.00,52.669
1314.00,52.700
1315.00,52.697
1316.00,52.720
1317.00,52.729
1318.00,52.720
1319.00,52.742
1320.00,52.722
1321.00,52.899
1322.00,52.906
1323.00,52.888
1324.00,52.879
1325.00,52.859
1326.00,52.883
1327.00,52.870
1328.00,52.860
1329.00,52.872
1330.00,52.882
1331.00,52.862
1332.00,52.846
1333.00,52.868
1334.00,52.888
1335.00,52.906
1336.00,52.931
1337.00,52.978
1338.00,53.050
1339.00,53.088
1340.00,53.149
1341.00,53.212
1342.00,53.271
1343.00,53.331
1344.00,53.371
1345.00,53.431
1346.00,53.450
1347.00,53.468
1348.00,53.505
1349.00,53.520
1350.00,53.523
1351.00,53.546
1352.00,53.553
1353.00,53.525
1354.00,53.561
1355.00,53.546
1356.00,53.568
1357.00,53.569
1358.00,53.641
1359.00,53.646
1360.00,53.615
1361.00,53.540
1362.00,53.637
1363.00,53.664
1364.00,53.592
1365.00,53.566
1366.00,53.593
1367.00,53.555
1368.00,53.574
1369.00,53.466
1370.00,53.568
1371.00,53.511
1372.00,53.558
1373.00,53.591
1374.00,53.620
1375.00,53.602
1376.00,53.576
1377.00,53.546
1378.00,53.640
1379.00,53.605
1380.00,53.595
1381.00,53.623
1382.00,53.597
1383.00,53.617
1384.00,53.557
1385.00,53.563
1386.00,53.623
1387.00,53.566
1388.00,53.532
1389.00,53.512
1390.00,53.611
1391.00,53.543
1392.00,53.598
1393.00,53.629
1394.00,53.758
1395.00,53.559
1396.00,53.543
1397.00,53.485
1398.00,53.617
1399.00,53.620
1400.00,53.603
1401.00,53.569
1402.00,53.658
1403.00,53.568
1404.00,53.582
1405.00,53.640
1406.00,53.639
1407.00,53.640
1408.00,53.684
1409.00,53.620
1410.00,53.661
1411.00,53.612
1412.00,53.729
1413.00,53.646
1414.00,53.610
1415.00,53.666
1416.00,53.694
1417.00,53.747
1418.00,53.699
1419.00,53.688
1420.00,53.716
1421.00,53.770
1422.00,53.750
1423.00,53.759
1424.00,53.754
1425.00,53.783
1426.00,53.777
1427.00,53.806
1428.00,53.793
1429.00,53.831
1430.00,53.827
1431.00,53.836
1432.00,53.866
1433.00,53.894
1434.00,53.863
1435.00,53.939
1436.00,53.958
1437.00,53.918
1438.00,53.922
1439.00,53.972
1440.00,53.982
1441.00,53.981
1442.00,53.982
1443.00,54.054
1444.00,54.101
1445.00,53.998
1446.00,54.073
1447.00,54.080
1448.00,54.127
1449.00,54.118
1450.00,54.119
1451.00,54.146
1452.00,54.142
1453.00,54.164
1454.00,54.176
1455.00,54.190
1456.00,54.190
1457.00,54.187
1458.00,54.215
1459.00,54.238
1460.00,54.260
1461.00,54.262
1462.00,54.297
1463.00,54.293
1464.00,54.308
1465.00,54.347
1466.00,54.328
1467.00,54.353
1468.00,54.407
1469.00,54.390
1470.00,54.397
1471.00,54.412
1472.00,54.429
1473.00,54.419
1474.00,54.444
1475.00,54.472
1476.00,54.491
1477.00,54.477
1478.00,54.499
1479.00,54.508
1480.00,54.510
1481.00,54.526
1482.00,54.540
1483.00,54.558
1484.00,54.583
1485.00,54.576
1486.00,54.607
1487.00,54.631
1488.00,54.640
1489.00,54.612
1490.00,54.622
1491.00,54.666
1492.00,54.669
1493.00,54.646
1494.00,54.677
1495.00,54.668
1496.00,54.703
1497.00,54.694
1498.00,54.716
1499.00,54.716
1500.00,54.722
1501.00, 
1502.00, 
1503.00, 
1504.00, 
1505.00, 
1506.00, 
1507.00, 
1508.00, 
1509.00, 
1510.00, 
1511.00, 
1512.00, 
1513.00, 
1514.00, 
1515.00, 
1516.00, 
1517.00, 
1518.00, 
1519.00, 
1520.00, 
1521.00, 
1522.00, 
1523.00, 
1524.00, 
1525.00, 
1526.00, 
1527.00, 
1528.00, 
1529.00, 
1530.00, 
1531.00, 
1532.00, 
1533.00, 
1534.00, 
1535.00, 
1536.00, 
1537.00, 
1538.00, 
1539.00, 
1540.00, 
1541.00, 
1542.00, 
1543.00, 
1544.00, 
1545.00, 
1546.00, 
1547.00, 
1548.00, 
1549.00, 
1550.00, 
1551.00, 
1552.00, 
1553.00, 
1554.00, 
1555.00, 
1556.00, 
1557.00, 
1558.00, 
1559.00, 
1560.00, 
1561.00, 
1562.00, 
1563.00, 
1564.00, 
1565.00, 
1566.00, 
1567.00, 
1568.00, 
1569.00, 
1570.00, 
1571.00, 
1572.00, 
1573.00, 
1574.00, 
1575.00, 
1576.00, 
1577.00, 
1578.00, 
1579.00, 
1580.00, 
1581.00, 
1582.00, 
1583.00, 
1584.00, 
1585.00, 
1586.00, 
1587.00, 
1588.00, 
1589.00, 
1590.00, 
1591.00, 
1592.00, 
1593.00, 
1594.00, 
1595.00, 
1596.00, 
1597.00, 
1598.00, 
1599.00, 
1600.00, 
1601.00, 
1602.00, 
1603.00, 
1604.00, 
1605.00, 
1606.00, 
1607.00, 
1608.00, 
1609.00, 
1610.00, 
1611.00, 
1612.00, 
1613.00, 
1614.00, 
1615.00, 
1616.00, 
1617.00, 
1618.00, 
1619.00, 
1620.00, 
1621.00, 
1622.00, 
1623.00, 
1624.00, 
1625.00, 
1626.00, 
1627.00, 
1628.00, 
1629.00, 
1630.00, 
1631.00, 
1632.00, 
1633.00, 
1634.00, 
1635.00, 
1636.00, 
1637.00, 
1638.00, 
1639.00, 
1640.00, 
1641.00, 
1642.00, 
1643.00, 
1644.00, 
1645.00, 
1646.00, 
1647.00, 
1648.00, 
1649.00, 
1650.00, 
1651.00, 
1652.00, 
1653.00, 
1654.00, 
1655.00, 
1656.00, 
1657.00, 
1658.00, 
1659.00, 
1660.00, 
1661.00, 
1662.00, 
1663.00, 
1664.00, 
1665.00, 
1666.00, 
1667.00, 
1668.00, 
1669.00, 
1670.00, 
1671.00, 
1672.00, 
1673.00, 
1674.00, 
1675.00, 
1676.00, 
1677.00, 
1678.00, 
1679.00, 
1680.00, 
1681.00, 
1682.00, 
1683.00, 
1684.00, 
1685.00, 
1686.00, 
1687.00, 
1688.00, 
1689.00, 
1690.00, 
1691.00, 
1692.00, 
1693.00, 
1694.00, 
1695.00, 
1696.00, 
1697.00, 
1698.00, 
1699.00, 
1700.00, 
1701.00, 
1702.00, 
1703.00, 
1704.00, 
1705.00, 
1706.00, 
1707.00, 
1708.00, 
1709.00, 
1710.00, 
1711.00, 
1712.00, 
1713.00, 
1714.00, 
1715.00, 
1716.00, 
1717.00, 
1718.00, 
1719.00, 
1720.00, 
1721.00, 
1722.00, 
1723.00, 
1724.00, 
1725.00, 
1726.00, 
1727.00, 
1728.00, 
1729.00, 
1730.00, 
1731.00, 
1732.00, 
1733.00, 
1734.00, 
1735.00, 
1736.00, 
1737.00, 
1738.00, 
1739.00, 
1740.00, 
1741.00, 
1742.00, 
1743.00, 
1744.00, 
1745.00, 
1746.00, 
1747.00, 
1748.00, 
1749.00, 
1750.00, 
1751.00, 
1752.00, 
1753.00, 
1754.00, 
1755.00, 
1756.00, 
1757.00, 
1758.00, 
1759.00, 
1760.00, 
1761.00, 
1762.00, 
1763.00, 
1764.00, 
1765.00, 
1766.00, 
1767.00, 
1768.00, 
1769.00, 
1770.00, 
1771.00, 
1772.00, 
1773.00, 
1774.00, 
1775.00, 
1776.00, 
1777.00, 
1778.00, 
1779.00, 
1780.00, 
1781.00, 
1782.00, 
1783.00, 
1784.00, 
1785.00, 
1786.00, 
1787.00, 
1788.00, 
1789.00, 
1790.00, 
1791.00, 
1792.00, 
1793.00, 
1794.00, 
1795.00, 
1796.00, 
1797.00, 
1798.00, 
1799.00, 
1800.00, 
1801.00, 
1802.00, 
1803.00, 
1804.00, 
1805.00, 
1806.00, 
1807.00, 
1808.00, 
1809.00, 
1810.00, 
1811.00, 
1812.00, 
1813.00, 
1814.00, 
1815.00, 
1816.00, 
1817.00, 
1818.00, 
1819.00, 
1820.00, 
1821.00, 
1822.00, 
1823.00, 
1824.00, 
1825.00, 
1826.00, 
1827.00, 
1828.00, 
1829.00, 
1830.00, 
1831.00, 
1832.00, 
1833.00, 
1834.00, 
1835.00, 
1836.00, 
1837.00, 
1838.00, 
1839.00, 
1840.00, 
1841.00, 
1842.00, 
1843.00, 
1844.00, 
1845.00, 
1846.00, 
1847.00, 
1848.00, 
1849.00, 
1850.00, 
1851.00, 
1852.00, 
1853.00, 
1854.00, 
1855.00, 
1856.00, 
1857.00, 
1858.00, 
1859.00, 
1860.00, 
1861.00, 
1862.00, 
1863.00, 
1864.00, 
1865.00, 
1866.00, 
1867.00, 
1868.00, 
1869.00, 
1870.00, 
1871.00, 
1872.00, 
1873.00, 
1874.00, 
1875.00, 
1876.00, 
1877.00, 
1878.00, 
1879.00, 
1880.00, 
1881.00, 
1882.00, 
1883.00, 
1884.00, 
1885.00, 
1886.00, 
1887.00, 
1888.00, 
1889.00, 
1890.00, 
1891.00, 
1892.00, 
1893.00, 
1894.00, 
1895.00, 
1896.00, 
1897.00, 
1898.00, 
1899.00, 
1900.00, 
1901.00, 
1902.00, 
1903.00, 
1904.00, 
1905.00, 
1906.00, 
1907.00, 
1908.00, 
1909.00, 
1910.00, 
1911.00, 
1912.00, 
1913.00, 
1914.00, 
1915.00, 
1916.00, 
1917.00, 
1918.00, 
1919.00, 
1920.00, 
1921.00, 
1922.00, 
1923.00, 
1924.00, 
1925.00, 
1926.00, 
1927.00, 
1928.00, 
1929.00, 
1930.00, 
1931.00, 
1932.00, 
1933.00, 
1934.00, 
1935.00, 
1936.00, 
1937.00, 
1938.00, 
1939.00, 
1940.00, 
1941.00, 
1942.00, 
1943.00, 
1944.00, 
1945.00, 
1946.00, 
1947.00, 
1948.00, 
1949.00, 
1950.00, 
1951.00, 
1952.00, 
1953.00, 
1954.00, 
1955.00, 
1956.00, 
1957.00, 
1958.00, 
1959.00, 
1960.00, 
1961.00, 
1962.00, 
1963.00, 
1964.00, 
1965.00, 
1966.00, 
1967.00, 
1968.00, 
1969.00, 
1970.00, 
1971.00, 
1972.00, 
1973.00, 
1974.00, 
1975.00, 
1976.00, 
1977.00, 
1978.00, 
1979.00, 
1980.00, 
1981.00, 
1982.00, 
1983.00, 
1984.00, 
1985.00, 
1986.00, 
1987.00, 
1988.00, 
1989.00, 
1990.00, 
1991.00, 
1992.00, 
1993.00, 
1994.00, 
1995.00, 
1996.00, 
1997.00, 
1998.00, 
1999.00, 
2000.00, 
2001.00, 
2002.00, 
2003.00, 
2004.00, 
2005.00, 
2006.00, 
2007.00, 
2008.00, 
2009.00, 
2010.00, 
2011.00, 
2012.00, 
2013.00, 
2014.00, 
2015.00, 
2016.00, 
2017.00, 
2018.00, 
2019.00, 
2020.00, 
2021.00, 
2022.00, 
2023.00, 
2024.00, 
2025.00, 
2026.00, 
2027.00, 
2028.00, 
2029.00, 
2030.00, 
2031.00, 
2032.00, 
2033.00, 
2034.00, 
2035.00, 
2036.00, 
2037.00, 
2038.00, 
2039.00, 
2040.00, 
2041.00, 
2042.00, 
2043.00, 
2044.00, 
2045.00, 
2046.00, 
2047.00, 
2048.00, 
2049.00, 
2050.00, 
2051.00, 
2052.00, 
2053.00, 
2054.00, 
2055.00, 
2056.00, 
2057.00, 
2058.00, 
2059.00, 
2060.00, 
2061.00, 
2062.00, 
2063.00, 
2064.00, 
2065.00, 
2066.00, 
2067.00, 
2068.00, 
2069.00, 
2070.00, 
2071.00, 
2072.00, 
2073.00, 
2074.00, 
2075.00, 
2076.00, 
2077.00, 
2078.00, 
2079.00, 
2080.00, 
2081.00, 
2082.00, 
2083.00, 
2084.00, 
2085.00, 
2086.00, 
2087.00, 
2088.00, 
2089.00, 
2090.00, 
2091.00, 
2092.00, 
2093.00, 
2094.00, 
2095.00, 
2096.00, 
2097.00, 
2098.00, 
2099.00, 
2100.00, 
2101.00, 
2102.00, 
2103.00, 
2104.00, 
2105.00, 
2106.00, 
2107.00, 
2108.00, 
2109.00, 
2110.00, 
2111.00, 
2112.00, 
2113.00, 
2114.00, 
2115.00, 
2116.00, 
2117.00, 
2118.00, 
2119.00, 
2120.00, 
2121.00, 
2122.00, 
2123.00, 
2124.00, 
2125.00, 
2126.00, 
2127.00, 
2128.00, 
2129.00, 
2130.00, 
2131.00, 
2132.00, 
2133.00, 
2134.00, 
2135.00, 
2136.00, 
2137.00, 
2138.00, 
2139.00, 
2140.00, 
2141.00, 
2142.00, 
2143.00, 
2144.00, 
2145.00, 
2146.00, 
2147.00, 
2148.00, 
2149.00, 
2150.00, 
2151.00, 
2152.00, 
2153.00, 
2154.00, 
2155.00, 
2156.00, 
2157.00, 
2158.00, 
2159.00, 
2160.00, 
2161.00, 
2162.00, 
2163.00, 
2164.00, 
2165.00, 
2166.00, 
2167.00, 
2168.00, 
2169.00, 
2170.00, 
2171.00, 
2172.00, 
2173.00, 
2174.00, 
2175.00, 
2176.00, 
2177.00, 
2178.00, 
2179.00, 
2180.00, 
2181.00, 
2182.00, 
2183.00, 
2184.00, 
2185.00, 
2186.00, 
2187.00, 
2188.00, 
2189.00, 
2190.00, 
2191.00, 
2192.00, 
2193.00, 
2194.00, 
2195.00, 
2196.00, 
2197.00, 
2198.00, 
2199.00, 
2200.00, 
2201.00, 
2202.00, 
2203.00, 
2204.00, 
2205.00, 
2206.00, 
2207.00, 
2208.00, 
2209.00, 
2210.00, 
2211.00, 
2212.00, 
2213.00, 
2214.00, 
2215.00, 
2216.00, 
2217.00, 
2218.00, 
2219.00, 
2220.00, 
2221.00, 
2222.00, 
2223.00, 
2224.00, 
2225.00, 
2226.00, 
2227.00, 
2228.00, 
2229.00, 
2230.00, 
2231.00, 
2232.00, 
2233.00, 
2234.00, 
2235.00, 
2236.00, 
2237.00, 
2238.00, 
2239.00, 
2240.00, 
2241.00, 
2242.00, 
2243.00, 
2244.00, 
2245.00, 
2246.00, 
2247.00, 
2248.00, 
2249.00, 
2250.00, 
2251.00, 
2252.00, 
2253.00, 
2254.00, 
2255.00, 
2256.00, 
2257.00, 
2258.00, 
2259.00, 
2260.00, 
2261.00, 
2262.00, 
2263.00, 
2264.00, 
2265.00, 
2266.00, 
2267.00, 
2268.00, 
2269.00, 
2270.00, 
2271.00, 
2272.00, 
2273.00, 
2274.00, 
2275.00, 
2276.00, 
2277.00, 
2278.00, 
2279.00, 
2280.00, 
2281.00, 
2282.00, 
2283.00, 
2284.00, 
2285.00, 
2286.00, 
2287.00, 
2288.00, 
2289.00, 
2290.00, 
2291.00, 
2292.00, 
2293.00, 
2294.00, 
2295.00, 
2296.00, 
2297.00, 
2298.00, 
2299.00, 
2300.00, 
2301.00, 
2302.00, 
2303.00, 
2304.00, 
2305.00, 
2306.00, 
2307.00, 
2308.00, 
2309.00, 
2310.00, 
2311.00, 
2312.00, 
2313.00, 
2314.00, 
2315.00, 
2316.00, 
2317.00, 
2318.00, 
2319.00, 
2320.00, 
2321.00, 
2322.00, 
2323.00, 
2324.00, 
2325.00, 
2326.00, 
2327.00, 
2328.00, 
2329.00, 
2330.00, 
2331.00, 
2332.00, 
2333.00, 
2334.00, 
2335.00, 
2336.00, 
2337.00, 
2338.00, 
2339.00, 
2340.00, 
2341.00, 
2342.00, 
2343.00, 
2344.00, 
2345.00, 
2346.00, 
2347.00, 
2348.00, 
2349.00, 
2350.00, 
2351.00, 
2352.00, 
2353.00, 
2354.00, 
2355.00, 
2356.00, 
2357.00, 
2358.00, 
2359.00, 
2360.00, 
2361.00, 
2362.00, 
2363.00, 
2364.00, 
2365.00, 
2366.00, 
2367.00, 
2368.00, 
2369.00, 
2370.00, 
2371.00, 
2372.00, 
2373.00, 
2374.00, 
2375.00, 
2376.00, 
2377.00, 
2378.00, 
2379.00, 
2380.00, 
2381.00, 
2382.00, 
2383.00, 
2384.00, 
2385.00, 
2386.00, 
2387.00, 
2388.00, 
2389.00, 
2390.00, 
2391.00, 
2392.00, 
2393.00, 
2394.00, 
2395.00, 
2396.00, 
2397.00, 
2398.00, 
2399.00, 
2400.00, 
2401.00, 
2402.00, 
2403.00, 
2404.00, 
2405.00, 
2406.00, 
2407.00, 
2408.00, 
2409.00, 
2410.00, 
2411.00, 
2412.00, 
2413.00, 
2414.00, 
2415.00, 
2416.00, 
2417.00, 
2418.00, 
2419.00, 
2420.00, 
2421.00, 
2422.00, 
2423.00, 
2424.00, 
2425.00, 
2426.00, 
2427.00, 
2428.00, 
2429.00, 
2430.00, 
2431.00, 
2432.00, 
2433.00, 
2434.00, 
2435.00, 
2436.00, 
2437.00, 
2438.00, 
2439.00, 
2440.00, 
2441.00, 
2442.00, 
2443.00, 
2444.00, 
2445.00, 
2446.00, 
2447.00, 
2448.00, 
2449.00, 
2450.00, 
2451.00, 
2452.00, 
2453.00, 
2454.00, 
2455.00, 
2456.00, 
2457.00, 
2458.00, 
2459.00, 
2460.00, 
2461.00, 
2462.00, 
2463.00, 
2464.00, 
2465.00, 
2466.00, 
2467.00, 
2468.00, 
2469.00, 
2470.00, 
2471.00, 
2472.00, 
2473.00, 
2474.00, 
2475.00, 
2476.00, 
2477.00, 
2478.00, 
2479.00, 
2480.00, 
2481.00, 
2482.00, 
2483.00, 
2484.00, 
2485.00, 
2486.00, 
2487.00, 
2488.00, 
2489.00, 
2490.00, 
2491.00, 
2492.00, 
2493.00, 
2494.00, 
2495.00, 
2496.00, 
2497.00, 
2498.00, 
2499.00, 
2500.00, 
2501.00, 
2502.00, 
2503.00, 
2504.00, 
2505.00, 
2506.00, 
2507.00, 
2508.00, 
2509.00, 
2510.00, 
2511.00, 
2512.00, 
2513.00, 
2514.00, 
2515.00, 
2516.00, 
2517.00, 
2518.00, 
2519.00, 
2520.00, 
2521.00, 
2522.00, 
2523.00, 
2524.00, 
2525.00, 
2526.00, 
2527.00, 
2528.00, 
2529.00, 
2530.00, 
2531.00, 
2532.00, 
2533.00, 
2534.00, 
2535.00, 
2536.00, 
2537.00, 
2538.00, 
2539.00, 
2540.00, 
2541.00, 
2542.00, 
2543.00, 
2544.00, 
2545.00, 
2546.00, 
2547.00, 
2548.00, 
2549.00, 
2550.00, 
2551.00, 
2552.00, 
2553.00, 
2554.00, 
2555.00, 
2556.00, 
2557.00, 
2558.00, 
2559.00, 
2560.00, 
2561.00, 
2562.00, 
2563.00, 
2564.00, 
2565.00, 
2566.00, 
2567.00, 
2568.00, 
2569.00, 
2570.00, 
2571.00, 
2572.00, 
2573.00, 
2574.00, 
2575.00, 
2576.00, 
2577.00, 
2578.00, 
2579.00, 
2580.00, 
2581.00, 
2582.00, 
2583.00, 
2584.00, 
2585.00, 
2586.00, 
2587.00, 
2588.00, 
2589.00, 
2590.00, 
2591.00, 
2592.00, 
2593.00, 
2594.00, 
2595.00, 
2596.00, 
2597.00, 
2598.00, 
2599.00, 
2600.00, 
