"1cP1 - RawData"
"Wavelength nm.","T%"
200.00,0.003
201.00,-0.003
202.00,0.002
203.00,0.001
204.00,0.002
205.00,0.003
206.00,-0.002
207.00,0.003
208.00,-0.000
209.00,0.001
210.00,0.002
211.00,0.002
212.00,-0.001
213.00,0.002
214.00,0.001
215.00,-0.000
216.00,-0.002
217.00,0.000
218.00,0.000
219.00,0.002
220.00,0.001
221.00,0.004
222.00,0.003
223.00,0.000
224.00,-0.002
225.00,-0.000
226.00,0.002
227.00,0.000
228.00,0.002
229.00,0.000
230.00,0.001
231.00,0.001
232.00,0.001
233.00,0.001
234.00,0.002
235.00,0.000
236.00,-0.001
237.00,-0.002
238.00,0.001
239.00,-0.001
240.00,-0.000
241.00,0.000
242.00,-0.000
243.00,-0.000
244.00,0.000
245.00,0.002
246.00,0.001
247.00,0.001
248.00,0.001
249.00,0.000
250.00,-0.001
251.00,-0.001
252.00,-0.001
253.00,0.002
254.00,0.001
255.00,-0.002
256.00,0.001
257.00,0.002
258.00,0.001
259.00,0.000
260.00,0.001
261.00,0.003
262.00,0.001
263.00,0.001
264.00,0.001
265.00,0.001
266.00,-0.000
267.00,0.001
268.00,0.001
269.00,-0.000
270.00,-0.000
271.00,-0.000
272.00,0.001
273.00,-0.002
274.00,-0.000
275.00,0.000
276.00,-0.001
277.00,-0.000
278.00,0.001
279.00,0.002
280.00,0.000
281.00,0.001
282.00,0.000
283.00,0.002
284.00,0.001
285.00,-0.000
286.00,-0.000
287.00,-0.000
288.00,0.001
289.00,0.002
290.00,0.001
291.00,0.000
292.00,-0.001
293.00,-0.001
294.00,-0.000
295.00,0.001
296.00,0.001
297.00,0.002
298.00,0.001
299.00,-0.001
300.00,0.002
301.00,0.001
302.00,0.001
303.00,-0.001
304.00,0.000
305.00,0.001
306.00,0.002
307.00,0.003
308.00,0.006
309.00,0.010
310.00,0.017
311.00,0.027
312.00,0.047
313.00,0.070
314.00,0.104
315.00,0.150
316.00,0.215
317.00,0.311
318.00,0.419
319.00,0.564
320.00,0.750
321.00,0.988
322.00,1.210
323.00,1.580
324.00,1.952
325.00,2.366
326.00,2.793
327.00,3.316
328.00,3.891
329.00,4.483
330.00,5.156
331.00,5.798
332.00,6.531
333.00,7.329
334.00,8.056
335.00,8.862
336.00,9.649
337.00,10.483
338.00,11.291
339.00,12.081
340.00,12.872
341.00,13.672
342.00,14.425
343.00,15.163
344.00,15.850
345.00,16.601
346.00,17.167
347.00,17.794
348.00,18.435
349.00,18.957
350.00,19.497
351.00,20.048
352.00,20.492
353.00,20.892
354.00,21.312
355.00,21.699
356.00,22.044
357.00,22.378
358.00,22.654
359.00,23.091
360.00,23.363
361.00,23.529
362.00,23.846
363.00,24.008
364.00,24.155
365.00,24.253
366.00,24.451
367.00,24.574
368.00,24.660
369.00,24.736
370.00,24.830
371.00,24.920
372.00,24.860
373.00,24.849
374.00,24.866
375.00,24.871
376.00,24.721
377.00,24.698
378.00,24.614
379.00,24.495
380.00,24.471
381.00,24.503
382.00,24.528
383.00,24.519
384.00,24.619
385.00,24.713
386.00,24.689
387.00,24.891
388.00,24.867
389.00,25.015
390.00,25.073
391.00,25.187
392.00,25.217
393.00,25.249
394.00,25.287
395.00,25.348
396.00,25.341
397.00,25.326
398.00,25.395
399.00,25.416
400.00,25.430
401.00,25.454
402.00,25.416
403.00,25.420
404.00,25.406
405.00,25.374
406.00,25.370
407.00,25.340
408.00,25.350
409.00,25.287
410.00,25.206
411.00,25.211
412.00,25.171
413.00,25.199
414.00,25.165
415.00,25.174
416.00,25.192
417.00,25.176
418.00,25.188
419.00,25.267
420.00,25.339
421.00,25.352
422.00,25.357
423.00,25.386
424.00,25.421
425.00,25.465
426.00,25.472
427.00,25.514
428.00,25.601
429.00,25.587
430.00,25.598
431.00,25.676
432.00,25.662
433.00,25.775
434.00,25.829
435.00,25.886
436.00,25.959
437.00,25.985
438.00,26.045
439.00,26.097
440.00,26.201
441.00,26.211
442.00,26.311
443.00,26.389
444.00,26.483
445.00,26.561
446.00,26.633
447.00,26.671
448.00,26.820
449.00,26.907
450.00,27.050
451.00,27.106
452.00,27.242
453.00,27.342
454.00,27.423
455.00,27.514
456.00,27.646
457.00,27.767
458.00,27.851
459.00,27.969
460.00,28.101
461.00,28.224
462.00,28.332
463.00,28.464
464.00,28.592
465.00,28.698
466.00,28.814
467.00,28.933
468.00,29.049
469.00,29.110
470.00,29.193
471.00,29.289
472.00,29.417
473.00,29.479
474.00,29.621
475.00,29.717
476.00,29.709
477.00,29.894
478.00,30.000
479.00,30.213
480.00,30.340
481.00,30.447
482.00,30.575
483.00,30.702
484.00,30.893
485.00,30.995
486.00,31.175
487.00,31.304
488.00,31.403
489.00,31.583
490.00,31.725
491.00,31.812
492.00,32.040
493.00,32.175
494.00,32.147
495.00,32.306
496.00,32.436
497.00,32.507
498.00,32.664
499.00,32.827
500.00,32.972
501.00,33.000
502.00,33.149
503.00,33.261
504.00,33.271
505.00,33.480
506.00,33.635
507.00,33.694
508.00,33.783
509.00,33.987
510.00,34.035
511.00,34.110
512.00,34.268
513.00,34.352
514.00,34.517
515.00,34.667
516.00,34.638
517.00,34.667
518.00,35.006
519.00,35.058
520.00,35.061
521.00,35.184
522.00,35.244
523.00,35.292
524.00,35.414
525.00,35.519
526.00,35.607
527.00,35.669
528.00,35.767
529.00,35.906
530.00,36.049
531.00,36.158
532.00,36.237
533.00,36.349
534.00,36.425
535.00,36.504
536.00,36.564
537.00,36.604
538.00,36.721
539.00,36.721
540.00,36.825
541.00,36.798
542.00,36.916
543.00,37.010
544.00,37.124
545.00,37.167
546.00,37.149
547.00,37.315
548.00,37.417
549.00,37.490
550.00,37.524
551.00,37.653
552.00,37.707
553.00,37.685
554.00,37.764
555.00,37.819
556.00,37.916
557.00,37.975
558.00,38.038
559.00,38.023
560.00,38.056
561.00,38.149
562.00,38.327
563.00,38.285
564.00,38.378
565.00,38.402
566.00,38.417
567.00,38.439
568.00,38.536
569.00,38.574
570.00,38.621
571.00,38.652
572.00,38.667
573.00,38.674
574.00,38.720
575.00,38.719
576.00,38.743
577.00,38.805
578.00,38.906
579.00,38.934
580.00,38.970
581.00,39.128
582.00,39.140
583.00,39.160
584.00,39.291
585.00,39.258
586.00,39.325
587.00,39.369
588.00,39.393
589.00,39.452
590.00,39.526
591.00,39.556
592.00,39.374
593.00,39.562
594.00,39.746
595.00,39.785
596.00,39.821
597.00,39.866
598.00,39.962
599.00,39.937
600.00,39.988
601.00,39.997
602.00,39.973
603.00,40.080
604.00,40.110
605.00,40.168
606.00,40.212
607.00,40.199
608.00,40.389
609.00,40.474
610.00,40.299
611.00,40.317
612.00,40.414
613.00,40.430
614.00,40.497
615.00,40.568
616.00,40.668
617.00,40.653
618.00,40.636
619.00,40.692
620.00,40.757
621.00,40.801
622.00,40.874
623.00,40.935
624.00,41.028
625.00,41.040
626.00,41.060
627.00,41.087
628.00,41.149
629.00,41.137
630.00,41.200
631.00,41.250
632.00,41.344
633.00,41.427
634.00,41.531
635.00,41.578
636.00,41.627
637.00,41.647
638.00,41.728
639.00,41.751
640.00,41.838
641.00,41.825
642.00,41.938
643.00,41.979
644.00,42.075
645.00,42.119
646.00,42.235
647.00,42.219
648.00,42.344
649.00,42.327
650.00,42.337
651.00,42.471
652.00,42.588
653.00,42.561
654.00,42.593
655.00,42.753
656.00,43.059
657.00,42.911
658.00,43.009
659.00,43.140
660.00,43.088
661.00,43.170
662.00,43.146
663.00,43.260
664.00,43.494
665.00,43.647
666.00,43.505
667.00,43.641
668.00,43.711
669.00,43.938
670.00,44.030
671.00,43.899
672.00,44.076
673.00,44.120
674.00,44.133
675.00,44.175
676.00,44.383
677.00,44.523
678.00,44.294
679.00,44.531
680.00,44.660
681.00,44.824
682.00,44.785
683.00,44.702
684.00,44.866
685.00,44.911
686.00,44.824
687.00,44.874
688.00,45.049
689.00,45.028
690.00,45.142
691.00,45.553
692.00,45.360
693.00,45.265
694.00,45.469
695.00,45.661
696.00,45.709
697.00,45.622
698.00,45.638
699.00,45.847
700.00,45.938
701.00,45.925
702.00,45.998
703.00,46.191
704.00,46.153
705.00,46.089
706.00,46.176
707.00,46.187
708.00,46.091
709.00,46.585
710.00,46.858
711.00,46.386
712.00,46.581
713.00,46.674
714.00,46.664
715.00,46.684
716.00,46.681
717.00,46.886
718.00,46.957
719.00,46.842
720.00,46.931
721.00,51.589
722.00,51.532
723.00,51.532
724.00,51.525
725.00,51.555
726.00,51.549
727.00,51.576
728.00,51.520
729.00,51.574
730.00,51.590
731.00,51.547
732.00,51.577
733.00,51.599
734.00,51.693
735.00,51.681
736.00,51.672
737.00,51.644
738.00,51.793
739.00,51.805
740.00,51.786
741.00,51.705
742.00,51.810
743.00,51.779
744.00,51.768
745.00,51.737
746.00,51.842
747.00,51.721
748.00,51.762
749.00,51.773
750.00,51.717
751.00,51.640
752.00,51.669
753.00,51.653
754.00,51.724
755.00,51.656
756.00,51.683
757.00,51.672
758.00,51.636
759.00,51.639
760.00,51.682
761.00,51.702
762.00,51.674
763.00,51.699
764.00,51.588
765.00,51.700
766.00,51.687
767.00,51.713
768.00,51.623
769.00,51.679
770.00,51.716
771.00,51.719
772.00,51.706
773.00,51.658
774.00,51.677
775.00,51.588
776.00,51.592
777.00,51.695
778.00,51.684
779.00,51.686
780.00,51.646
781.00,51.606
782.00,51.666
783.00,51.615
784.00,51.578
785.00,51.547
786.00,51.535
787.00,51.600
788.00,51.560
789.00,51.528
790.00,51.509
791.00,51.505
792.00,51.356
793.00,51.418
794.00,51.475
795.00,51.496
796.00,51.469
797.00,51.292
798.00,51.409
799.00,51.294
800.00,51.317
801.00,51.279
802.00,51.339
803.00,51.261
804.00,51.277
805.00,51.238
806.00,51.229
807.00,51.199
808.00,51.180
809.00,51.185
810.00,51.054
811.00,51.095
812.00,51.174
813.00,51.046
814.00,51.084
815.00,51.073
816.00,51.057
817.00,51.011
818.00,51.000
819.00,50.960
820.00,50.854
821.00,50.945
822.00,50.911
823.00,50.834
824.00,50.949
825.00,50.835
826.00,50.771
827.00,50.890
828.00,50.816
829.00,50.733
830.00,50.878
831.00,53.124
832.00,53.094
833.00,53.045
834.00,53.054
835.00,53.008
836.00,53.061
837.00,53.002
838.00,52.949
839.00,52.960
840.00,52.890
841.00,52.893
842.00,52.856
843.00,52.874
844.00,52.858
845.00,52.867
846.00,52.704
847.00,52.753
848.00,52.761
849.00,52.691
850.00,52.676
851.00,52.591
852.00,52.595
853.00,52.532
854.00,52.518
855.00,52.447
856.00,52.496
857.00,52.424
858.00,52.420
859.00,52.387
860.00,52.367
861.00,52.361
862.00,52.329
863.00,52.369
864.00,52.302
865.00,52.327
866.00,52.455
867.00,52.324
868.00,52.279
869.00,52.295
870.00,52.279
871.00,52.271
872.00,52.261
873.00,52.212
874.00,52.211
875.00,52.195
876.00,52.167
877.00,52.166
878.00,52.181
879.00,52.116
880.00,52.101
881.00,52.169
882.00,52.113
883.00,52.076
884.00,52.015
885.00,52.016
886.00,52.006
887.00,51.976
888.00,51.949
889.00,51.950
890.00,51.917
891.00,51.898
892.00,51.865
893.00,51.845
894.00,51.857
895.00,51.799
896.00,51.772
897.00,51.757
898.00,51.719
899.00,51.709
900.00,51.715
901.00,51.701
902.00,51.715
903.00,51.671
904.00,51.661
905.00,51.647
906.00,51.648
907.00,51.594
908.00,51.567
909.00,51.550
910.00,51.514
911.00,51.515
912.00,51.509
913.00,51.454
914.00,51.435
915.00,51.425
916.00,51.393
917.00,51.363
918.00,51.387
919.00,51.344
920.00,51.327
921.00,51.281
922.00,51.366
923.00,51.218
924.00,51.230
925.00,51.224
926.00,51.197
927.00,51.186
928.00,51.165
929.00,51.184
930.00,51.139
931.00,51.135
932.00,51.099
933.00,51.096
934.00,51.064
935.00,51.029
936.00,51.015
937.00,51.008
938.00,50.971
939.00,50.969
940.00,50.928
941.00,50.941
942.00,50.897
943.00,50.901
944.00,50.845
945.00,50.854
946.00,50.839
947.00,50.808
948.00,50.811
949.00,50.756
950.00,50.738
951.00,50.767
952.00,50.710
953.00,50.660
954.00,50.648
955.00,50.590
956.00,50.586
957.00,50.556
958.00,50.580
959.00,50.538
960.00,50.529
961.00,50.515
962.00,50.509
963.00,50.444
964.00,50.469
965.00,50.442
966.00,50.405
967.00,50.451
968.00,50.389
969.00,50.432
970.00,50.381
971.00,50.382
972.00,50.366
973.00,50.401
974.00,50.416
975.00,50.385
976.00,50.402
977.00,50.379
978.00,50.433
979.00,50.372
980.00,50.386
981.00,50.399
982.00,50.358
983.00,50.379
984.00,50.347
985.00,50.367
986.00,50.334
987.00,50.347
988.00,50.325
989.00,50.319
990.00,50.314
991.00,50.306
992.00,50.327
993.00,50.275
994.00,50.269
995.00,50.266
996.00,50.244
997.00,50.231
998.00,50.202
999.00,50.214
1000.00,50.172
1001.00,50.165
1002.00,50.163
1003.00,50.143
1004.00,50.109
1005.00,50.091
1006.00,50.121
1007.00,50.091
1008.00,50.081
1009.00,50.076
1010.00,50.068
1011.00,50.065
1012.00,50.049
1013.00,50.027
1014.00,49.979
1015.00,49.991
1016.00,49.948
1017.00,49.947
1018.00,49.926
1019.00,49.909
1020.00,49.915
1021.00,49.884
1022.00,49.877
1023.00,49.829
1024.00,49.836
1025.00,49.851
1026.00,49.807
1027.00,49.791
1028.00,49.821
1029.00,49.775
1030.00,49.766
1031.00,49.775
1032.00,49.722
1033.00,49.726
1034.00,49.696
1035.00,49.661
1036.00,49.638
1037.00,49.637
1038.00,49.615
1039.00,49.592
1040.00,49.593
1041.00,49.545
1042.00,49.548
1043.00,49.532
1044.00,49.565
1045.00,49.533
1046.00,49.516
1047.00,49.548
1048.00,49.541
1049.00,49.555
1050.00,49.558
1051.00,49.580
1052.00,49.586
1053.00,49.601
1054.00,49.605
1055.00,49.627
1056.00,49.624
1057.00,49.623
1058.00,49.612
1059.00,49.600
1060.00,49.609
1061.00,49.597
1062.00,49.576
1063.00,49.590
1064.00,49.594
1065.00,49.584
1066.00,49.578
1067.00,49.569
1068.00,49.595
1069.00,49.566
1070.00,49.537
1071.00,49.533
1072.00,49.567
1073.00,49.542
1074.00,49.521
1075.00,49.510
1076.00,49.504
1077.00,49.475
1078.00,49.449
1079.00,49.470
1080.00,49.471
1081.00,49.448
1082.00,49.451
1083.00,49.440
1084.00,49.433
1085.00,49.446
1086.00,49.433
1087.00,49.426
1088.00,49.438
1089.00,49.451
1090.00,49.393
1091.00,49.402
1092.00,49.386
1093.00,49.373
1094.00,49.364
1095.00,49.348
1096.00,49.335
1097.00,49.330
1098.00,49.317
1099.00,49.317
1100.00,49.305
1101.00,49.309
1102.00,49.295
1103.00,49.288
1104.00,49.275
1105.00,49.266
1106.00,49.244
1107.00,49.247
1108.00,49.228
1109.00,49.213
1110.00,49.219
1111.00,49.205
1112.00,49.206
1113.00,49.202
1114.00,49.175
1115.00,49.195
1116.00,49.178
1117.00,49.157
1118.00,49.146
1119.00,49.142
1120.00,49.130
1121.00,49.134
1122.00,49.122
1123.00,49.121
1124.00,49.114
1125.00,49.120
1126.00,49.125
1127.00,49.121
1128.00,49.096
1129.00,49.097
1130.00,49.076
1131.00,49.079
1132.00,49.063
1133.00,49.057
1134.00,49.070
1135.00,49.074
1136.00,49.061
1137.00,49.057
1138.00,49.046
1139.00,49.048
1140.00,49.035
1141.00,49.026
1142.00,48.994
1143.00,48.998
1144.00,48.982
1145.00,48.994
1146.00,48.994
1147.00,48.970
1148.00,48.993
1149.00,49.028
1150.00,49.012
1151.00,49.003
1152.00,49.001
1153.00,48.993
1154.00,48.982
1155.00,48.994
1156.00,48.989
1157.00,49.006
1158.00,48.984
1159.00,48.999
1160.00,48.989
1161.00,48.990
1162.00,48.992
1163.00,48.990
1164.00,48.988
1165.00,48.977
1166.00,48.990
1167.00,48.974
1168.00,48.999
1169.00,48.982
1170.00,48.982
1171.00,48.954
1172.00,48.935
1173.00,48.949
1174.00,48.962
1175.00,48.955
1176.00,48.968
1177.00,48.954
1178.00,48.966
1179.00,48.984
1180.00,48.964
1181.00,48.986
1182.00,48.969
1183.00,48.962
1184.00,48.954
1185.00,48.962
1186.00,48.940
1187.00,48.956
1188.00,48.949
1189.00,48.944
1190.00,48.942
1191.00,48.925
1192.00,48.960
1193.00,48.943
1194.00,48.951
1195.00,48.936
1196.00,48.966
1197.00,48.965
1198.00,48.945
1199.00,48.934
1200.00,48.945
1201.00,48.976
1202.00,48.936
1203.00,48.942
1204.00,48.941
1205.00,48.957
1206.00,48.958
1207.00,48.952
1208.00,48.934
1209.00,48.945
1210.00,48.953
1211.00,48.966
1212.00,48.982
1213.00,48.926
1214.00,48.948
1215.00,48.931
1216.00,48.928
1217.00,48.939
1218.00,48.941
1219.00,48.951
1220.00,48.939
1221.00,48.949
1222.00,48.946
1223.00,48.965
1224.00,48.941
1225.00,48.948
1226.00,48.953
1227.00,48.946
1228.00,48.974
1229.00,48.967
1230.00,48.993
1231.00,48.993
1232.00,49.014
1233.00,49.018
1234.00,49.029
1235.00,49.022
1236.00,49.022
1237.00,49.028
1238.00,49.015
1239.00,49.035
1240.00,49.005
1241.00,49.014
1242.00,49.018
1243.00,49.020
1244.00,49.006
1245.00,49.052
1246.00,49.049
1247.00,49.034
1248.00,49.043
1249.00,49.049
1250.00,49.063
1251.00,49.047
1252.00,49.065
1253.00,49.059
1254.00,49.079
1255.00,49.087
1256.00,49.069
1257.00,49.036
1258.00,49.113
1259.00,49.101
1260.00,49.116
1261.00,49.113
1262.00,49.105
1263.00,49.105
1264.00,49.109
1265.00,49.108
1266.00,49.111
1267.00,49.140
1268.00,49.133
1269.00,49.134
1270.00,49.156
1271.00,49.144
1272.00,49.161
1273.00,49.184
1274.00,49.173
1275.00,49.181
1276.00,49.170
1277.00,49.185
1278.00,49.195
1279.00,49.189
1280.00,49.190
1281.00,49.218
1282.00,49.221
1283.00,49.223
1284.00,49.233
1285.00,49.219
1286.00,49.245
1287.00,49.239
1288.00,49.240
1289.00,49.230
1290.00,49.254
1291.00,49.250
1292.00,49.256
1293.00,49.254
1294.00,49.270
1295.00,49.278
1296.00,49.285
1297.00,49.296
1298.00,49.328
1299.00,49.306
1300.00,49.331
1301.00,49.316
1302.00,49.344
1303.00,49.359
1304.00,49.333
1305.00,49.374
1306.00,49.384
1307.00,49.387
1308.00,49.384
1309.00,49.385
1310.00,49.391
1311.00,49.375
1312.00,49.375
1313.00,49.387
1314.00,49.426
1315.00,49.420
1316.00,49.425
1317.00,49.460
1318.00,49.446
1319.00,49.446
1320.00,49.454
1321.00,49.638
1322.00,49.641
1323.00,49.629
1324.00,49.628
1325.00,49.620
1326.00,49.653
1327.00,49.609
1328.00,49.602
1329.00,49.620
1330.00,49.652
1331.00,49.600
1332.00,49.611
1333.00,49.646
1334.00,49.671
1335.00,49.702
1336.00,49.695
1337.00,49.763
1338.00,49.826
1339.00,49.851
1340.00,49.907
1341.00,49.960
1342.00,50.018
1343.00,50.102
1344.00,50.132
1345.00,50.205
1346.00,50.248
1347.00,50.249
1348.00,50.290
1349.00,50.297
1350.00,50.336
1351.00,50.329
1352.00,50.335
1353.00,50.393
1354.00,50.361
1355.00,50.320
1356.00,50.368
1357.00,50.439
1358.00,50.417
1359.00,50.370
1360.00,50.845
1361.00,50.322
1362.00,50.417
1363.00,50.475
1364.00,50.445
1365.00,50.413
1366.00,50.431
1367.00,50.401
1368.00,50.393
1369.00,50.468
1370.00,50.390
1371.00,50.337
1372.00,50.394
1373.00,50.419
1374.00,50.431
1375.00,50.406
1376.00,50.406
1377.00,50.388
1378.00,50.467
1379.00,50.431
1380.00,50.406
1381.00,50.435
1382.00,50.346
1383.00,50.440
1384.00,50.380
1385.00,50.426
1386.00,50.455
1387.00,50.372
1388.00,50.368
1389.00,50.377
1390.00,50.447
1391.00,50.364
1392.00,50.424
1393.00,50.389
1394.00,50.414
1395.00,50.373
1396.00,50.340
1397.00,50.363
1398.00,50.459
1399.00,50.427
1400.00,50.410
1401.00,50.388
1402.00,50.524
1403.00,50.407
1404.00,50.441
1405.00,50.480
1406.00,50.498
1407.00,50.364
1408.00,50.515
1409.00,50.468
1410.00,50.508
1411.00,50.527
1412.00,50.595
1413.00,50.489
1414.00,50.523
1415.00,50.554
1416.00,50.568
1417.00,50.607
1418.00,50.572
1419.00,50.570
1420.00,50.600
1421.00,50.651
1422.00,50.619
1423.00,50.629
1424.00,50.644
1425.00,50.679
1426.00,50.680
1427.00,50.714
1428.00,50.702
1429.00,50.711
1430.00,50.744
1431.00,50.755
1432.00,50.774
1433.00,50.792
1434.00,50.773
1435.00,50.838
1436.00,50.872
1437.00,50.854
1438.00,50.870
1439.00,50.917
1440.00,50.916
1441.00,50.910
1442.00,50.930
1443.00,50.958
1444.00,51.032
1445.00,50.967
1446.00,50.997
1447.00,51.029
1448.00,51.094
1449.00,51.079
1450.00,51.080
1451.00,51.101
1452.00,51.133
1453.00,51.145
1454.00,51.140
1455.00,51.166
1456.00,51.186
1457.00,51.185
1458.00,51.237
1459.00,51.240
1460.00,51.261
1461.00,51.277
1462.00,51.329
1463.00,51.299
1464.00,51.319
1465.00,51.323
1466.00,51.340
1467.00,51.377
1468.00,51.454
1469.00,51.413
1470.00,51.425
1471.00,51.440
1472.00,51.456
1473.00,51.451
1474.00,51.493
1475.00,51.499
1476.00,51.513
1477.00,51.507
1478.00,51.527
1479.00,51.559
1480.00,51.572
1481.00,51.598
1482.00,51.610
1483.00,51.647
1484.00,51.663
1485.00,51.632
1486.00,51.650
1487.00,51.657
1488.00,51.687
1489.00,51.680
1490.00,51.701
1491.00,51.731
1492.00,51.750
1493.00,51.730
1494.00,51.773
1495.00,51.753
1496.00,51.773
1497.00,51.759
1498.00,51.783
1499.00,51.797
1500.00,51.808
1501.00, 
1502.00, 
1503.00, 
1504.00, 
1505.00, 
1506.00, 
1507.00, 
1508.00, 
1509.00, 
1510.00, 
1511.00, 
1512.00, 
1513.00, 
1514.00, 
1515.00, 
1516.00, 
1517.00, 
1518.00, 
1519.00, 
1520.00, 
1521.00, 
1522.00, 
1523.00, 
1524.00, 
1525.00, 
1526.00, 
1527.00, 
1528.00, 
1529.00, 
1530.00, 
1531.00, 
1532.00, 
1533.00, 
1534.00, 
1535.00, 
1536.00, 
1537.00, 
1538.00, 
1539.00, 
1540.00, 
1541.00, 
1542.00, 
1543.00, 
1544.00, 
1545.00, 
1546.00, 
1547.00, 
1548.00, 
1549.00, 
1550.00, 
1551.00, 
1552.00, 
1553.00, 
1554.00, 
1555.00, 
1556.00, 
1557.00, 
1558.00, 
1559.00, 
1560.00, 
1561.00, 
1562.00, 
1563.00, 
1564.00, 
1565.00, 
1566.00, 
1567.00, 
1568.00, 
1569.00, 
1570.00, 
1571.00, 
1572.00, 
1573.00, 
1574.00, 
1575.00, 
1576.00, 
1577.00, 
1578.00, 
1579.00, 
1580.00, 
1581.00, 
1582.00, 
1583.00, 
1584.00, 
1585.00, 
1586.00, 
1587.00, 
1588.00, 
1589.00, 
1590.00, 
1591.00, 
1592.00, 
1593.00, 
1594.00, 
1595.00, 
1596.00, 
1597.00, 
1598.00, 
1599.00, 
1600.00, 
1601.00, 
1602.00, 
1603.00, 
1604.00, 
1605.00, 
1606.00, 
1607.00, 
1608.00, 
1609.00, 
1610.00, 
1611.00, 
1612.00, 
1613.00, 
1614.00, 
1615.00, 
1616.00, 
1617.00, 
1618.00, 
1619.00, 
1620.00, 
1621.00, 
1622.00, 
1623.00, 
1624.00, 
1625.00, 
1626.00, 
1627.00, 
1628.00, 
1629.00, 
1630.00, 
1631.00, 
1632.00, 
1633.00, 
1634.00, 
1635.00, 
1636.00, 
1637.00, 
1638.00, 
1639.00, 
1640.00, 
1641.00, 
1642.00, 
1643.00, 
1644.00, 
1645.00, 
1646.00, 
1647.00, 
1648.00, 
1649.00, 
1650.00, 
1651.00, 
1652.00, 
1653.00, 
1654.00, 
1655.00, 
1656.00, 
1657.00, 
1658.00, 
1659.00, 
1660.00, 
1661.00, 
1662.00, 
1663.00, 
1664.00, 
1665.00, 
1666.00, 
1667.00, 
1668.00, 
1669.00, 
1670.00, 
1671.00, 
1672.00, 
1673.00, 
1674.00, 
1675.00, 
1676.00, 
1677.00, 
1678.00, 
1679.00, 
1680.00, 
1681.00, 
1682.00, 
1683.00, 
1684.00, 
1685.00, 
1686.00, 
1687.00, 
1688.00, 
1689.00, 
1690.00, 
1691.00, 
1692.00, 
1693.00, 
1694.00, 
1695.00, 
1696.00, 
1697.00, 
1698.00, 
1699.00, 
1700.00, 
1701.00, 
1702.00, 
1703.00, 
1704.00, 
1705.00, 
1706.00, 
1707.00, 
1708.00, 
1709.00, 
1710.00, 
1711.00, 
1712.00, 
1713.00, 
1714.00, 
1715.00, 
1716.00, 
1717.00, 
1718.00, 
1719.00, 
1720.00, 
1721.00, 
1722.00, 
1723.00, 
1724.00, 
1725.00, 
1726.00, 
1727.00, 
1728.00, 
1729.00, 
1730.00, 
1731.00, 
1732.00, 
1733.00, 
1734.00, 
1735.00, 
1736.00, 
1737.00, 
1738.00, 
1739.00, 
1740.00, 
1741.00, 
1742.00, 
1743.00, 
1744.00, 
1745.00, 
1746.00, 
1747.00, 
1748.00, 
1749.00, 
1750.00, 
1751.00, 
1752.00, 
1753.00, 
1754.00, 
1755.00, 
1756.00, 
1757.00, 
1758.00, 
1759.00, 
1760.00, 
1761.00, 
1762.00, 
1763.00, 
1764.00, 
1765.00, 
1766.00, 
1767.00, 
1768.00, 
1769.00, 
1770.00, 
1771.00, 
1772.00, 
1773.00, 
1774.00, 
1775.00, 
1776.00, 
1777.00, 
1778.00, 
1779.00, 
1780.00, 
1781.00, 
1782.00, 
1783.00, 
1784.00, 
1785.00, 
1786.00, 
1787.00, 
1788.00, 
1789.00, 
1790.00, 
1791.00, 
1792.00, 
1793.00, 
1794.00, 
1795.00, 
1796.00, 
1797.00, 
1798.00, 
1799.00, 
1800.00, 
1801.00, 
1802.00, 
1803.00, 
1804.00, 
1805.00, 
1806.00, 
1807.00, 
1808.00, 
1809.00, 
1810.00, 
1811.00, 
1812.00, 
1813.00, 
1814.00, 
1815.00, 
1816.00, 
1817.00, 
1818.00, 
1819.00, 
1820.00, 
1821.00, 
1822.00, 
1823.00, 
1824.00, 
1825.00, 
1826.00, 
1827.00, 
1828.00, 
1829.00, 
1830.00, 
1831.00, 
1832.00, 
1833.00, 
1834.00, 
1835.00, 
1836.00, 
1837.00, 
1838.00, 
1839.00, 
1840.00, 
1841.00, 
1842.00, 
1843.00, 
1844.00, 
1845.00, 
1846.00, 
1847.00, 
1848.00, 
1849.00, 
1850.00, 
1851.00, 
1852.00, 
1853.00, 
1854.00, 
1855.00, 
1856.00, 
1857.00, 
1858.00, 
1859.00, 
1860.00, 
1861.00, 
1862.00, 
1863.00, 
1864.00, 
1865.00, 
1866.00, 
1867.00, 
1868.00, 
1869.00, 
1870.00, 
1871.00, 
1872.00, 
1873.00, 
1874.00, 
1875.00, 
1876.00, 
1877.00, 
1878.00, 
1879.00, 
1880.00, 
1881.00, 
1882.00, 
1883.00, 
1884.00, 
1885.00, 
1886.00, 
1887.00, 
1888.00, 
1889.00, 
1890.00, 
1891.00, 
1892.00, 
1893.00, 
1894.00, 
1895.00, 
1896.00, 
1897.00, 
1898.00, 
1899.00, 
1900.00, 
1901.00, 
1902.00, 
1903.00, 
1904.00, 
1905.00, 
1906.00, 
1907.00, 
1908.00, 
1909.00, 
1910.00, 
1911.00, 
1912.00, 
1913.00, 
1914.00, 
1915.00, 
1916.00, 
1917.00, 
1918.00, 
1919.00, 
1920.00, 
1921.00, 
1922.00, 
1923.00, 
1924.00, 
1925.00, 
1926.00, 
1927.00, 
1928.00, 
1929.00, 
1930.00, 
1931.00, 
1932.00, 
1933.00, 
1934.00, 
1935.00, 
1936.00, 
1937.00, 
1938.00, 
1939.00, 
1940.00, 
1941.00, 
1942.00, 
1943.00, 
1944.00, 
1945.00, 
1946.00, 
1947.00, 
1948.00, 
1949.00, 
1950.00, 
1951.00, 
1952.00, 
1953.00, 
1954.00, 
1955.00, 
1956.00, 
1957.00, 
1958.00, 
1959.00, 
1960.00, 
1961.00, 
1962.00, 
1963.00, 
1964.00, 
1965.00, 
1966.00, 
1967.00, 
1968.00, 
1969.00, 
1970.00, 
1971.00, 
1972.00, 
1973.00, 
1974.00, 
1975.00, 
1976.00, 
1977.00, 
1978.00, 
1979.00, 
1980.00, 
1981.00, 
1982.00, 
1983.00, 
1984.00, 
1985.00, 
1986.00, 
1987.00, 
1988.00, 
1989.00, 
1990.00, 
1991.00, 
1992.00, 
1993.00, 
1994.00, 
1995.00, 
1996.00, 
1997.00, 
1998.00, 
1999.00, 
2000.00, 
2001.00, 
2002.00, 
2003.00, 
2004.00, 
2005.00, 
2006.00, 
2007.00, 
2008.00, 
2009.00, 
2010.00, 
2011.00, 
2012.00, 
2013.00, 
2014.00, 
2015.00, 
2016.00, 
2017.00, 
2018.00, 
2019.00, 
2020.00, 
2021.00, 
2022.00, 
2023.00, 
2024.00, 
2025.00, 
2026.00, 
2027.00, 
2028.00, 
2029.00, 
2030.00, 
2031.00, 
2032.00, 
2033.00, 
2034.00, 
2035.00, 
2036.00, 
2037.00, 
2038.00, 
2039.00, 
2040.00, 
2041.00, 
2042.00, 
2043.00, 
2044.00, 
2045.00, 
2046.00, 
2047.00, 
2048.00, 
2049.00, 
2050.00, 
2051.00, 
2052.00, 
2053.00, 
2054.00, 
2055.00, 
2056.00, 
2057.00, 
2058.00, 
2059.00, 
2060.00, 
2061.00, 
2062.00, 
2063.00, 
2064.00, 
2065.00, 
2066.00, 
2067.00, 
2068.00, 
2069.00, 
2070.00, 
2071.00, 
2072.00, 
2073.00, 
2074.00, 
2075.00, 
2076.00, 
2077.00, 
2078.00, 
2079.00, 
2080.00, 
2081.00, 
2082.00, 
2083.00, 
2084.00, 
2085.00, 
2086.00, 
2087.00, 
2088.00, 
2089.00, 
2090.00, 
2091.00, 
2092.00, 
2093.00, 
2094.00, 
2095.00, 
2096.00, 
2097.00, 
2098.00, 
2099.00, 
2100.00, 
2101.00, 
2102.00, 
2103.00, 
2104.00, 
2105.00, 
2106.00, 
2107.00, 
2108.00, 
2109.00, 
2110.00, 
2111.00, 
2112.00, 
2113.00, 
2114.00, 
2115.00, 
2116.00, 
2117.00, 
2118.00, 
2119.00, 
2120.00, 
2121.00, 
2122.00, 
2123.00, 
2124.00, 
2125.00, 
2126.00, 
2127.00, 
2128.00, 
2129.00, 
2130.00, 
2131.00, 
2132.00, 
2133.00, 
2134.00, 
2135.00, 
2136.00, 
2137.00, 
2138.00, 
2139.00, 
2140.00, 
2141.00, 
2142.00, 
2143.00, 
2144.00, 
2145.00, 
2146.00, 
2147.00, 
2148.00, 
2149.00, 
2150.00, 
2151.00, 
2152.00, 
2153.00, 
2154.00, 
2155.00, 
2156.00, 
2157.00, 
2158.00, 
2159.00, 
2160.00, 
2161.00, 
2162.00, 
2163.00, 
2164.00, 
2165.00, 
2166.00, 
2167.00, 
2168.00, 
2169.00, 
2170.00, 
2171.00, 
2172.00, 
2173.00, 
2174.00, 
2175.00, 
2176.00, 
2177.00, 
2178.00, 
2179.00, 
2180.00, 
2181.00, 
2182.00, 
2183.00, 
2184.00, 
2185.00, 
2186.00, 
2187.00, 
2188.00, 
2189.00, 
2190.00, 
2191.00, 
2192.00, 
2193.00, 
2194.00, 
2195.00, 
2196.00, 
2197.00, 
2198.00, 
2199.00, 
2200.00, 
2201.00, 
2202.00, 
2203.00, 
2204.00, 
2205.00, 
2206.00, 
2207.00, 
2208.00, 
2209.00, 
2210.00, 
2211.00, 
2212.00, 
2213.00, 
2214.00, 
2215.00, 
2216.00, 
2217.00, 
2218.00, 
2219.00, 
2220.00, 
2221.00, 
2222.00, 
2223.00, 
2224.00, 
2225.00, 
2226.00, 
2227.00, 
2228.00, 
2229.00, 
2230.00, 
2231.00, 
2232.00, 
2233.00, 
2234.00, 
2235.00, 
2236.00, 
2237.00, 
2238.00, 
2239.00, 
2240.00, 
2241.00, 
2242.00, 
2243.00, 
2244.00, 
2245.00, 
2246.00, 
2247.00, 
2248.00, 
2249.00, 
2250.00, 
2251.00, 
2252.00, 
2253.00, 
2254.00, 
2255.00, 
2256.00, 
2257.00, 
2258.00, 
2259.00, 
2260.00, 
2261.00, 
2262.00, 
2263.00, 
2264.00, 
2265.00, 
2266.00, 
2267.00, 
2268.00, 
2269.00, 
2270.00, 
2271.00, 
2272.00, 
2273.00, 
2274.00, 
2275.00, 
2276.00, 
2277.00, 
2278.00, 
2279.00, 
2280.00, 
2281.00, 
2282.00, 
2283.00, 
2284.00, 
2285.00, 
2286.00, 
2287.00, 
2288.00, 
2289.00, 
2290.00, 
2291.00, 
2292.00, 
2293.00, 
2294.00, 
2295.00, 
2296.00, 
2297.00, 
2298.00, 
2299.00, 
2300.00, 
2301.00, 
2302.00, 
2303.00, 
2304.00, 
2305.00, 
2306.00, 
2307.00, 
2308.00, 
2309.00, 
2310.00, 
2311.00, 
2312.00, 
2313.00, 
2314.00, 
2315.00, 
2316.00, 
2317.00, 
2318.00, 
2319.00, 
2320.00, 
2321.00, 
2322.00, 
2323.00, 
2324.00, 
2325.00, 
2326.00, 
2327.00, 
2328.00, 
2329.00, 
2330.00, 
2331.00, 
2332.00, 
2333.00, 
2334.00, 
2335.00, 
2336.00, 
2337.00, 
2338.00, 
2339.00, 
2340.00, 
2341.00, 
2342.00, 
2343.00, 
2344.00, 
2345.00, 
2346.00, 
2347.00, 
2348.00, 
2349.00, 
2350.00, 
2351.00, 
2352.00, 
2353.00, 
2354.00, 
2355.00, 
2356.00, 
2357.00, 
2358.00, 
2359.00, 
2360.00, 
2361.00, 
2362.00, 
2363.00, 
2364.00, 
2365.00, 
2366.00, 
2367.00, 
2368.00, 
2369.00, 
2370.00, 
2371.00, 
2372.00, 
2373.00, 
2374.00, 
2375.00, 
2376.00, 
2377.00, 
2378.00, 
2379.00, 
2380.00, 
2381.00, 
2382.00, 
2383.00, 
2384.00, 
2385.00, 
2386.00, 
2387.00, 
2388.00, 
2389.00, 
2390.00, 
2391.00, 
2392.00, 
2393.00, 
2394.00, 
2395.00, 
2396.00, 
2397.00, 
2398.00, 
2399.00, 
2400.00, 
2401.00, 
2402.00, 
2403.00, 
2404.00, 
2405.00, 
2406.00, 
2407.00, 
2408.00, 
2409.00, 
2410.00, 
2411.00, 
2412.00, 
2413.00, 
2414.00, 
2415.00, 
2416.00, 
2417.00, 
2418.00, 
2419.00, 
2420.00, 
2421.00, 
2422.00, 
2423.00, 
2424.00, 
2425.00, 
2426.00, 
2427.00, 
2428.00, 
2429.00, 
2430.00, 
2431.00, 
2432.00, 
2433.00, 
2434.00, 
2435.00, 
2436.00, 
2437.00, 
2438.00, 
2439.00, 
2440.00, 
2441.00, 
2442.00, 
2443.00, 
2444.00, 
2445.00, 
2446.00, 
2447.00, 
2448.00, 
2449.00, 
2450.00, 
2451.00, 
2452.00, 
2453.00, 
2454.00, 
2455.00, 
2456.00, 
2457.00, 
2458.00, 
2459.00, 
2460.00, 
2461.00, 
2462.00, 
2463.00, 
2464.00, 
2465.00, 
2466.00, 
2467.00, 
2468.00, 
2469.00, 
2470.00, 
2471.00, 
2472.00, 
2473.00, 
2474.00, 
2475.00, 
2476.00, 
2477.00, 
2478.00, 
2479.00, 
2480.00, 
2481.00, 
2482.00, 
2483.00, 
2484.00, 
2485.00, 
2486.00, 
2487.00, 
2488.00, 
2489.00, 
2490.00, 
2491.00, 
2492.00, 
2493.00, 
2494.00, 
2495.00, 
2496.00, 
2497.00, 
2498.00, 
2499.00, 
2500.00, 
2501.00, 
2502.00, 
2503.00, 
2504.00, 
2505.00, 
2506.00, 
2507.00, 
2508.00, 
2509.00, 
2510.00, 
2511.00, 
2512.00, 
2513.00, 
2514.00, 
2515.00, 
2516.00, 
2517.00, 
2518.00, 
2519.00, 
2520.00, 
2521.00, 
2522.00, 
2523.00, 
2524.00, 
2525.00, 
2526.00, 
2527.00, 
2528.00, 
2529.00, 
2530.00, 
2531.00, 
2532.00, 
2533.00, 
2534.00, 
2535.00, 
2536.00, 
2537.00, 
2538.00, 
2539.00, 
2540.00, 
2541.00, 
2542.00, 
2543.00, 
2544.00, 
2545.00, 
2546.00, 
2547.00, 
2548.00, 
2549.00, 
2550.00, 
2551.00, 
2552.00, 
2553.00, 
2554.00, 
2555.00, 
2556.00, 
2557.00, 
2558.00, 
2559.00, 
2560.00, 
2561.00, 
2562.00, 
2563.00, 
2564.00, 
2565.00, 
2566.00, 
2567.00, 
2568.00, 
2569.00, 
2570.00, 
2571.00, 
2572.00, 
2573.00, 
2574.00, 
2575.00, 
2576.00, 
2577.00, 
2578.00, 
2579.00, 
2580.00, 
2581.00, 
2582.00, 
2583.00, 
2584.00, 
2585.00, 
2586.00, 
2587.00, 
2588.00, 
2589.00, 
2590.00, 
2591.00, 
2592.00, 
2593.00, 
2594.00, 
2595.00, 
2596.00, 
2597.00, 
2598.00, 
2599.00, 
2600.00, 
