"1cP2 - RawData"
"Wavelength nm.","T%"
200.00,0.001
201.00,0.002
202.00,0.001
203.00,-0.003
204.00,-0.001
205.00,-0.001
206.00,-0.000
207.00,0.004
208.00,0.005
209.00,-0.002
210.00,0.002
211.00,0.002
212.00,0.004
213.00,0.001
214.00,-0.000
215.00,-0.000
216.00,0.003
217.00,-0.000
218.00,0.000
219.00,0.002
220.00,0.004
221.00,0.002
222.00,-0.000
223.00,0.001
224.00,0.000
225.00,0.004
226.00,-0.002
227.00,0.001
228.00,0.001
229.00,0.000
230.00,0.001
231.00,-0.000
232.00,0.001
233.00,0.000
234.00,0.001
235.00,0.002
236.00,0.001
237.00,0.001
238.00,0.001
239.00,0.002
240.00,-0.001
241.00,0.001
242.00,0.002
243.00,-0.000
244.00,0.001
245.00,0.002
246.00,0.000
247.00,-0.001
248.00,-0.001
249.00,-0.001
250.00,-0.001
251.00,0.000
252.00,0.002
253.00,-0.000
254.00,-0.001
255.00,-0.001
256.00,-0.001
257.00,0.004
258.00,0.001
259.00,-0.002
260.00,0.001
261.00,0.001
262.00,-0.002
263.00,-0.001
264.00,-0.000
265.00,-0.000
266.00,-0.000
267.00,0.002
268.00,0.001
269.00,0.001
270.00,0.000
271.00,0.000
272.00,-0.001
273.00,0.001
274.00,0.001
275.00,-0.000
276.00,0.000
277.00,0.000
278.00,0.001
279.00,0.000
280.00,0.001
281.00,0.000
282.00,0.001
283.00,0.000
284.00,-0.001
285.00,0.003
286.00,0.001
287.00,-0.000
288.00,-0.001
289.00,-0.000
290.00,-0.001
291.00,0.000
292.00,-0.000
293.00,0.001
294.00,0.001
295.00,-0.000
296.00,-0.000
297.00,0.001
298.00,0.001
299.00,-0.000
300.00,0.000
301.00,0.000
302.00,0.002
303.00,-0.001
304.00,0.001
305.00,0.001
306.00,0.003
307.00,0.006
308.00,0.011
309.00,0.018
310.00,0.028
311.00,0.040
312.00,0.068
313.00,0.103
314.00,0.161
315.00,0.237
316.00,0.340
317.00,0.478
318.00,0.651
319.00,0.885
320.00,1.168
321.00,1.525
322.00,1.948
323.00,2.489
324.00,3.070
325.00,3.698
326.00,4.392
327.00,5.253
328.00,6.156
329.00,7.100
330.00,8.118
331.00,9.194
332.00,10.351
333.00,11.585
334.00,12.810
335.00,14.074
336.00,15.418
337.00,16.738
338.00,18.027
339.00,19.286
340.00,20.540
341.00,21.875
342.00,23.091
343.00,24.340
344.00,25.429
345.00,26.619
346.00,27.677
347.00,28.653
348.00,29.691
349.00,30.537
350.00,31.456
351.00,32.362
352.00,33.180
353.00,33.787
354.00,34.607
355.00,35.066
356.00,35.881
357.00,36.435
358.00,36.988
359.00,37.653
360.00,38.205
361.00,38.526
362.00,39.043
363.00,39.468
364.00,39.640
365.00,40.014
366.00,40.360
367.00,40.581
368.00,40.788
369.00,40.920
370.00,41.191
371.00,41.348
372.00,41.234
373.00,41.410
374.00,41.456
375.00,41.521
376.00,41.375
377.00,41.359
378.00,41.296
379.00,41.139
380.00,41.222
381.00,41.250
382.00,41.302
383.00,41.448
384.00,41.680
385.00,41.871
386.00,41.975
387.00,42.258
388.00,42.456
389.00,42.619
390.00,42.815
391.00,42.912
392.00,43.099
393.00,43.195
394.00,43.311
395.00,43.469
396.00,43.516
397.00,43.597
398.00,43.651
399.00,43.755
400.00,43.793
401.00,43.843
402.00,43.850
403.00,43.835
404.00,43.883
405.00,43.890
406.00,43.932
407.00,43.826
408.00,43.840
409.00,43.726
410.00,43.651
411.00,43.687
412.00,43.555
413.00,43.666
414.00,43.527
415.00,43.571
416.00,43.608
417.00,43.522
418.00,43.613
419.00,43.698
420.00,43.768
421.00,43.765
422.00,43.764
423.00,43.809
424.00,43.806
425.00,43.799
426.00,43.789
427.00,43.806
428.00,43.941
429.00,43.912
430.00,43.949
431.00,43.994
432.00,43.972
433.00,44.008
434.00,44.033
435.00,44.080
436.00,44.131
437.00,44.077
438.00,44.153
439.00,44.143
440.00,44.149
441.00,44.190
442.00,44.232
443.00,44.303
444.00,44.412
445.00,44.433
446.00,44.488
447.00,44.527
448.00,44.644
449.00,44.655
450.00,44.764
451.00,44.790
452.00,44.840
453.00,44.929
454.00,44.909
455.00,44.972
456.00,45.082
457.00,45.147
458.00,45.181
459.00,45.298
460.00,45.372
461.00,45.446
462.00,45.481
463.00,45.596
464.00,45.658
465.00,45.667
466.00,45.738
467.00,45.835
468.00,45.864
469.00,45.883
470.00,45.874
471.00,45.881
472.00,45.958
473.00,45.905
474.00,46.016
475.00,46.024
476.00,46.021
477.00,46.085
478.00,46.092
479.00,46.284
480.00,46.340
481.00,46.365
482.00,46.456
483.00,46.502
484.00,46.653
485.00,46.672
486.00,46.787
487.00,46.906
488.00,46.863
489.00,47.005
490.00,47.144
491.00,47.119
492.00,47.304
493.00,47.417
494.00,47.309
495.00,47.342
496.00,47.480
497.00,47.445
498.00,47.552
499.00,47.644
500.00,47.686
501.00,47.698
502.00,47.792
503.00,47.911
504.00,47.873
505.00,47.874
506.00,47.985
507.00,47.977
508.00,47.965
509.00,48.151
510.00,48.224
511.00,48.187
512.00,48.315
513.00,48.447
514.00,48.479
515.00,48.586
516.00,48.616
517.00,48.615
518.00,48.730
519.00,48.692
520.00,48.679
521.00,48.727
522.00,48.763
523.00,48.664
524.00,48.759
525.00,48.839
526.00,48.896
527.00,48.831
528.00,48.909
529.00,49.050
530.00,49.159
531.00,49.235
532.00,49.234
533.00,49.314
534.00,49.297
535.00,49.397
536.00,49.404
537.00,49.380
538.00,49.332
539.00,49.509
540.00,49.536
541.00,49.552
542.00,49.531
543.00,49.585
544.00,49.651
545.00,49.617
546.00,49.657
547.00,49.746
548.00,49.828
549.00,49.897
550.00,49.900
551.00,50.065
552.00,50.029
553.00,50.012
554.00,50.021
555.00,49.977
556.00,50.025
557.00,50.076
558.00,50.102
559.00,50.151
560.00,50.201
561.00,50.242
562.00,50.323
563.00,50.302
564.00,50.220
565.00,50.238
566.00,50.277
567.00,50.214
568.00,50.320
569.00,50.362
570.00,50.343
571.00,50.270
572.00,50.377
573.00,50.196
574.00,50.324
575.00,50.301
576.00,50.245
577.00,50.299
578.00,50.383
579.00,50.420
580.00,50.425
581.00,50.550
582.00,50.606
583.00,50.614
584.00,50.685
585.00,50.685
586.00,50.728
587.00,50.750
588.00,50.691
589.00,50.698
590.00,50.733
591.00,50.754
592.00,50.624
593.00,50.694
594.00,50.869
595.00,50.918
596.00,50.861
597.00,50.911
598.00,50.940
599.00,50.908
600.00,50.920
601.00,50.918
602.00,50.907
603.00,50.908
604.00,50.900
605.00,50.916
606.00,50.900
607.00,50.906
608.00,51.042
609.00,51.155
610.00,51.007
611.00,50.907
612.00,50.890
613.00,50.861
614.00,50.927
615.00,51.114
616.00,51.164
617.00,51.104
618.00,50.947
619.00,50.958
620.00,51.052
621.00,50.996
622.00,51.029
623.00,51.109
624.00,51.070
625.00,51.065
626.00,51.077
627.00,50.993
628.00,50.902
629.00,51.029
630.00,51.090
631.00,51.026
632.00,51.068
633.00,51.139
634.00,51.216
635.00,51.235
636.00,51.194
637.00,51.146
638.00,51.208
639.00,51.202
640.00,51.185
641.00,51.115
642.00,51.213
643.00,51.209
644.00,51.201
645.00,51.208
646.00,51.293
647.00,51.210
648.00,51.277
649.00,51.219
650.00,51.107
651.00,51.188
652.00,51.218
653.00,51.153
654.00,51.143
655.00,51.286
656.00,51.598
657.00,51.256
658.00,51.380
659.00,51.484
660.00,51.347
661.00,51.232
662.00,51.182
663.00,51.312
664.00,51.568
665.00,51.621
666.00,51.342
667.00,51.421
668.00,51.385
669.00,51.630
670.00,51.699
671.00,51.588
672.00,51.498
673.00,51.490
674.00,51.449
675.00,51.433
676.00,51.564
677.00,51.708
678.00,51.352
679.00,51.453
680.00,51.538
681.00,51.716
682.00,51.534
683.00,51.461
684.00,51.623
685.00,51.509
686.00,51.254
687.00,51.256
688.00,51.346
689.00,51.324
690.00,51.540
691.00,51.621
692.00,51.345
693.00,51.147
694.00,51.140
695.00,51.544
696.00,51.685
697.00,51.376
698.00,51.317
699.00,51.532
700.00,51.486
701.00,51.364
702.00,51.400
703.00,51.515
704.00,51.543
705.00,51.326
706.00,51.422
707.00,51.340
708.00,51.145
709.00,51.590
710.00,51.899
711.00,51.224
712.00,51.251
713.00,51.402
714.00,51.200
715.00,51.149
716.00,51.163
717.00,51.231
718.00,51.184
719.00,51.099
720.00,51.064
721.00,56.041
722.00,56.069
723.00,55.992
724.00,55.920
725.00,55.812
726.00,55.766
727.00,55.750
728.00,55.622
729.00,55.600
730.00,55.608
731.00,55.558
732.00,55.402
733.00,55.426
734.00,55.386
735.00,55.329
736.00,55.293
737.00,55.232
738.00,55.304
739.00,55.232
740.00,55.242
741.00,55.162
742.00,55.179
743.00,55.083
744.00,54.927
745.00,54.902
746.00,55.030
747.00,54.717
748.00,54.762
749.00,54.731
750.00,54.640
751.00,54.521
752.00,54.553
753.00,54.403
754.00,54.465
755.00,54.395
756.00,54.416
757.00,54.360
758.00,54.205
759.00,54.317
760.00,54.215
761.00,54.250
762.00,54.086
763.00,54.106
764.00,54.017
765.00,54.017
766.00,54.014
767.00,53.936
768.00,53.926
769.00,53.876
770.00,53.983
771.00,53.933
772.00,53.816
773.00,53.761
774.00,53.734
775.00,53.623
776.00,53.596
777.00,53.664
778.00,53.598
779.00,53.512
780.00,53.560
781.00,53.483
782.00,53.430
783.00,53.447
784.00,53.375
785.00,53.310
786.00,53.337
787.00,53.284
788.00,53.205
789.00,53.203
790.00,53.120
791.00,53.061
792.00,52.956
793.00,52.946
794.00,52.976
795.00,53.036
796.00,52.934
797.00,52.802
798.00,52.820
799.00,52.711
800.00,52.707
801.00,52.720
802.00,52.714
803.00,52.639
804.00,52.566
805.00,52.578
806.00,52.570
807.00,52.451
808.00,52.454
809.00,52.391
810.00,52.349
811.00,52.321
812.00,52.355
813.00,52.288
814.00,52.244
815.00,52.271
816.00,52.231
817.00,52.158
818.00,52.068
819.00,52.157
820.00,51.982
821.00,51.998
822.00,52.003
823.00,51.856
824.00,51.984
825.00,51.854
826.00,51.834
827.00,51.907
828.00,51.824
829.00,51.709
830.00,51.776
831.00,54.138
832.00,54.088
833.00,53.993
834.00,54.005
835.00,53.950
836.00,54.003
837.00,53.941
838.00,53.880
839.00,53.895
840.00,53.813
841.00,53.804
842.00,53.774
843.00,53.755
844.00,53.707
845.00,53.714
846.00,53.552
847.00,53.588
848.00,53.595
849.00,53.522
850.00,53.484
851.00,53.401
852.00,53.413
853.00,53.349
854.00,53.318
855.00,53.232
856.00,53.264
857.00,53.214
858.00,53.206
859.00,53.126
860.00,53.095
861.00,53.249
862.00,53.053
863.00,53.078
864.00,53.012
865.00,53.029
866.00,53.014
867.00,52.994
868.00,52.961
869.00,52.939
870.00,52.937
871.00,52.914
872.00,52.903
873.00,52.823
874.00,52.829
875.00,52.762
876.00,52.745
877.00,52.759
878.00,52.727
879.00,52.715
880.00,52.672
881.00,52.676
882.00,52.690
883.00,52.646
884.00,52.587
885.00,52.600
886.00,52.565
887.00,52.531
888.00,52.503
889.00,52.496
890.00,52.448
891.00,52.535
892.00,52.387
893.00,52.364
894.00,52.373
895.00,52.316
896.00,52.314
897.00,52.268
898.00,52.254
899.00,52.272
900.00,52.221
901.00,52.255
902.00,52.244
903.00,52.141
904.00,52.167
905.00,52.157
906.00,52.128
907.00,52.093
908.00,52.055
909.00,52.021
910.00,52.013
911.00,51.993
912.00,51.971
913.00,51.937
914.00,51.931
915.00,51.899
916.00,51.873
917.00,51.849
918.00,51.851
919.00,51.798
920.00,51.773
921.00,51.753
922.00,51.840
923.00,51.685
924.00,51.703
925.00,51.696
926.00,51.652
927.00,51.640
928.00,51.615
929.00,51.603
930.00,51.566
931.00,51.571
932.00,51.522
933.00,51.525
934.00,51.479
935.00,51.466
936.00,51.449
937.00,51.435
938.00,51.434
939.00,51.426
940.00,51.316
941.00,51.392
942.00,51.348
943.00,51.330
944.00,51.271
945.00,51.248
946.00,51.330
947.00,51.208
948.00,51.201
949.00,51.190
950.00,51.185
951.00,51.138
952.00,51.106
953.00,51.058
954.00,51.048
955.00,51.003
956.00,50.983
957.00,50.955
958.00,50.951
959.00,50.895
960.00,50.892
961.00,50.906
962.00,50.906
963.00,50.833
964.00,50.837
965.00,50.837
966.00,50.813
967.00,50.809
968.00,50.773
969.00,50.809
970.00,50.767
971.00,50.758
972.00,50.744
973.00,50.776
974.00,50.780
975.00,50.761
976.00,50.771
977.00,50.769
978.00,50.803
979.00,50.755
980.00,50.765
981.00,50.768
982.00,50.725
983.00,50.750
984.00,50.720
985.00,50.735
986.00,50.707
987.00,50.696
988.00,50.681
989.00,50.689
990.00,50.654
991.00,50.640
992.00,50.692
993.00,50.621
994.00,50.628
995.00,50.616
996.00,50.598
997.00,50.596
998.00,50.545
999.00,50.567
1000.00,50.517
1001.00,50.508
1002.00,50.503
1003.00,50.487
1004.00,50.467
1005.00,50.462
1006.00,50.490
1007.00,50.492
1008.00,50.446
1009.00,50.418
1010.00,50.425
1011.00,50.404
1012.00,50.372
1013.00,50.381
1014.00,50.337
1015.00,50.345
1016.00,50.323
1017.00,50.300
1018.00,50.275
1019.00,50.259
1020.00,50.254
1021.00,50.232
1022.00,50.226
1023.00,50.178
1024.00,50.191
1025.00,50.175
1026.00,50.153
1027.00,50.158
1028.00,50.138
1029.00,50.116
1030.00,50.097
1031.00,50.104
1032.00,50.059
1033.00,50.058
1034.00,50.015
1035.00,49.993
1036.00,49.965
1037.00,49.950
1038.00,49.946
1039.00,49.909
1040.00,49.904
1041.00,49.880
1042.00,49.875
1043.00,49.856
1044.00,49.870
1045.00,49.847
1046.00,49.852
1047.00,49.859
1048.00,49.842
1049.00,49.881
1050.00,49.873
1051.00,49.904
1052.00,49.915
1053.00,49.912
1054.00,49.918
1055.00,49.949
1056.00,49.955
1057.00,49.967
1058.00,49.942
1059.00,49.928
1060.00,49.945
1061.00,49.917
1062.00,49.896
1063.00,49.922
1064.00,49.927
1065.00,49.923
1066.00,49.900
1067.00,49.888
1068.00,49.925
1069.00,49.894
1070.00,49.854
1071.00,49.860
1072.00,49.872
1073.00,49.829
1074.00,49.831
1075.00,49.817
1076.00,49.824
1077.00,49.800
1078.00,49.774
1079.00,49.798
1080.00,49.797
1081.00,49.759
1082.00,49.779
1083.00,49.763
1084.00,49.749
1085.00,49.764
1086.00,49.743
1087.00,49.753
1088.00,49.733
1089.00,49.728
1090.00,49.734
1091.00,49.730
1092.00,49.711
1093.00,49.713
1094.00,49.686
1095.00,49.660
1096.00,49.658
1097.00,49.645
1098.00,49.638
1099.00,49.664
1100.00,49.621
1101.00,49.629
1102.00,49.610
1103.00,49.602
1104.00,49.606
1105.00,49.585
1106.00,49.566
1107.00,49.571
1108.00,49.545
1109.00,49.536
1110.00,49.531
1111.00,49.526
1112.00,49.533
1113.00,49.521
1114.00,49.497
1115.00,49.524
1116.00,49.507
1117.00,49.484
1118.00,49.485
1119.00,49.482
1120.00,49.485
1121.00,49.475
1122.00,49.454
1123.00,49.465
1124.00,49.440
1125.00,49.450
1126.00,49.454
1127.00,49.438
1128.00,49.413
1129.00,49.417
1130.00,49.393
1131.00,49.399
1132.00,49.384
1133.00,49.362
1134.00,49.390
1135.00,49.395
1136.00,49.369
1137.00,49.386
1138.00,49.371
1139.00,49.368
1140.00,49.365
1141.00,49.361
1142.00,49.337
1143.00,49.352
1144.00,49.333
1145.00,49.349
1146.00,49.341
1147.00,49.329
1148.00,49.348
1149.00,49.353
1150.00,49.340
1151.00,49.351
1152.00,49.332
1153.00,49.336
1154.00,49.316
1155.00,49.318
1156.00,49.322
1157.00,49.318
1158.00,49.302
1159.00,49.339
1160.00,49.325
1161.00,49.307
1162.00,49.313
1163.00,49.296
1164.00,49.297
1165.00,49.302
1166.00,49.299
1167.00,49.295
1168.00,49.304
1169.00,49.303
1170.00,49.320
1171.00,49.288
1172.00,49.295
1173.00,49.299
1174.00,49.298
1175.00,49.304
1176.00,49.292
1177.00,49.276
1178.00,49.299
1179.00,49.305
1180.00,49.284
1181.00,49.318
1182.00,49.291
1183.00,49.287
1184.00,49.293
1185.00,49.296
1186.00,49.288
1187.00,49.302
1188.00,49.285
1189.00,49.290
1190.00,49.274
1191.00,49.258
1192.00,49.308
1193.00,49.279
1194.00,49.279
1195.00,49.257
1196.00,49.284
1197.00,49.294
1198.00,49.280
1199.00,49.283
1200.00,49.297
1201.00,49.313
1202.00,49.292
1203.00,49.307
1204.00,49.282
1205.00,49.294
1206.00,49.299
1207.00,49.280
1208.00,49.267
1209.00,49.279
1210.00,49.279
1211.00,49.295
1212.00,49.309
1213.00,49.276
1214.00,49.318
1215.00,49.295
1216.00,49.296
1217.00,49.299
1218.00,49.291
1219.00,49.304
1220.00,49.301
1221.00,49.318
1222.00,49.290
1223.00,49.313
1224.00,49.300
1225.00,49.315
1226.00,49.315
1227.00,49.305
1228.00,49.334
1229.00,49.321
1230.00,49.356
1231.00,49.347
1232.00,49.346
1233.00,49.358
1234.00,49.363
1235.00,49.388
1236.00,49.392
1237.00,49.368
1238.00,49.359
1239.00,49.375
1240.00,49.330
1241.00,49.364
1242.00,49.372
1243.00,49.363
1244.00,49.355
1245.00,49.390
1246.00,49.389
1247.00,49.383
1248.00,49.384
1249.00,49.399
1250.00,49.394
1251.00,49.374
1252.00,49.408
1253.00,49.401
1254.00,49.421
1255.00,49.428
1256.00,49.415
1257.00,49.386
1258.00,49.450
1259.00,49.438
1260.00,49.456
1261.00,49.461
1262.00,49.448
1263.00,49.460
1264.00,49.454
1265.00,49.461
1266.00,49.490
1267.00,49.490
1268.00,49.494
1269.00,49.515
1270.00,49.521
1271.00,49.511
1272.00,49.531
1273.00,49.536
1274.00,49.532
1275.00,49.543
1276.00,49.528
1277.00,49.548
1278.00,49.554
1279.00,49.570
1280.00,49.563
1281.00,49.586
1282.00,49.594
1283.00,49.573
1284.00,49.578
1285.00,49.571
1286.00,49.589
1287.00,49.579
1288.00,49.598
1289.00,49.600
1290.00,49.617
1291.00,49.634
1292.00,49.632
1293.00,49.627
1294.00,49.640
1295.00,49.644
1296.00,49.663
1297.00,49.665
1298.00,49.674
1299.00,49.668
1300.00,49.689
1301.00,49.663
1302.00,49.709
1303.00,49.706
1304.00,49.674
1305.00,49.714
1306.00,49.720
1307.00,49.744
1308.00,49.733
1309.00,49.731
1310.00,49.755
1311.00,49.752
1312.00,49.748
1313.00,49.772
1314.00,49.777
1315.00,49.787
1316.00,49.807
1317.00,49.824
1318.00,49.817
1319.00,49.814
1320.00,49.817
1321.00,50.015
1322.00,50.002
1323.00,49.985
1324.00,49.992
1325.00,49.985
1326.00,49.998
1327.00,49.992
1328.00,49.970
1329.00,49.992
1330.00,49.997
1331.00,49.970
1332.00,49.980
1333.00,49.997
1334.00,50.038
1335.00,50.038
1336.00,50.069
1337.00,50.104
1338.00,50.170
1339.00,50.213
1340.00,50.266
1341.00,50.325
1342.00,50.383
1343.00,50.461
1344.00,50.500
1345.00,50.558
1346.00,50.611
1347.00,50.620
1348.00,50.660
1349.00,50.678
1350.00,50.680
1351.00,50.703
1352.00,50.703
1353.00,50.733
1354.00,50.724
1355.00,50.571
1356.00,50.791
1357.00,50.758
1358.00,50.764
1359.00,50.802
1360.00,50.825
1361.00,50.718
1362.00,50.782
1363.00,50.873
1364.00,50.857
1365.00,50.801
1366.00,50.790
1367.00,50.774
1368.00,50.808
1369.00,50.816
1370.00,50.763
1371.00,50.829
1372.00,50.775
1373.00,50.774
1374.00,50.819
1375.00,50.773
1376.00,50.785
1377.00,50.795
1378.00,50.786
1379.00,50.787
1380.00,50.776
1381.00,50.774
1382.00,50.796
1383.00,50.766
1384.00,50.753
1385.00,50.851
1386.00,50.862
1387.00,50.790
1388.00,50.718
1389.00,50.707
1390.00,50.837
1391.00,50.762
1392.00,50.773
1393.00,50.786
1394.00,50.794
1395.00,50.740
1396.00,50.699
1397.00,50.652
1398.00,50.819
1399.00,50.788
1400.00,50.763
1401.00,50.745
1402.00,50.837
1403.00,50.759
1404.00,50.797
1405.00,50.828
1406.00,50.847
1407.00,50.850
1408.00,50.877
1409.00,50.837
1410.00,50.869
1411.00,50.854
1412.00,50.942
1413.00,50.869
1414.00,50.862
1415.00,50.916
1416.00,50.909
1417.00,50.953
1418.00,50.920
1419.00,50.921
1420.00,50.963
1421.00,51.013
1422.00,50.976
1423.00,51.010
1424.00,51.006
1425.00,51.038
1426.00,51.046
1427.00,51.060
1428.00,51.055
1429.00,51.064
1430.00,51.095
1431.00,51.127
1432.00,51.133
1433.00,51.168
1434.00,51.159
1435.00,51.229
1436.00,51.252
1437.00,51.224
1438.00,51.227
1439.00,51.281
1440.00,51.290
1441.00,51.277
1442.00,51.310
1443.00,51.324
1444.00,51.364
1445.00,51.305
1446.00,51.371
1447.00,51.408
1448.00,51.464
1449.00,51.442
1450.00,51.450
1451.00,51.456
1452.00,51.478
1453.00,51.506
1454.00,51.514
1455.00,51.535
1456.00,51.552
1457.00,51.545
1458.00,51.594
1459.00,51.622
1460.00,51.614
1461.00,51.635
1462.00,51.676
1463.00,51.665
1464.00,51.688
1465.00,51.704
1466.00,51.705
1467.00,51.733
1468.00,51.777
1469.00,51.765
1470.00,51.786
1471.00,51.788
1472.00,51.816
1473.00,51.823
1474.00,51.830
1475.00,51.860
1476.00,51.871
1477.00,51.862
1478.00,51.898
1479.00,51.907
1480.00,51.920
1481.00,51.933
1482.00,51.959
1483.00,51.977
1484.00,51.990
1485.00,51.969
1486.00,52.011
1487.00,52.025
1488.00,52.047
1489.00,52.050
1490.00,52.053
1491.00,52.084
1492.00,52.123
1493.00,52.084
1494.00,52.120
1495.00,52.109
1496.00,52.129
1497.00,52.130
1498.00,52.144
1499.00,52.147
1500.00,52.176
1501.00, 
1502.00, 
1503.00, 
1504.00, 
1505.00, 
1506.00, 
1507.00, 
1508.00, 
1509.00, 
1510.00, 
1511.00, 
1512.00, 
1513.00, 
1514.00, 
1515.00, 
1516.00, 
1517.00, 
1518.00, 
1519.00, 
1520.00, 
1521.00, 
1522.00, 
1523.00, 
1524.00, 
1525.00, 
1526.00, 
1527.00, 
1528.00, 
1529.00, 
1530.00, 
1531.00, 
1532.00, 
1533.00, 
1534.00, 
1535.00, 
1536.00, 
1537.00, 
1538.00, 
1539.00, 
1540.00, 
1541.00, 
1542.00, 
1543.00, 
1544.00, 
1545.00, 
1546.00, 
1547.00, 
1548.00, 
1549.00, 
1550.00, 
1551.00, 
1552.00, 
1553.00, 
1554.00, 
1555.00, 
1556.00, 
1557.00, 
1558.00, 
1559.00, 
1560.00, 
1561.00, 
1562.00, 
1563.00, 
1564.00, 
1565.00, 
1566.00, 
1567.00, 
1568.00, 
1569.00, 
1570.00, 
1571.00, 
1572.00, 
1573.00, 
1574.00, 
1575.00, 
1576.00, 
1577.00, 
1578.00, 
1579.00, 
1580.00, 
1581.00, 
1582.00, 
1583.00, 
1584.00, 
1585.00, 
1586.00, 
1587.00, 
1588.00, 
1589.00, 
1590.00, 
1591.00, 
1592.00, 
1593.00, 
1594.00, 
1595.00, 
1596.00, 
1597.00, 
1598.00, 
1599.00, 
1600.00, 
1601.00, 
1602.00, 
1603.00, 
1604.00, 
1605.00, 
1606.00, 
1607.00, 
1608.00, 
1609.00, 
1610.00, 
1611.00, 
1612.00, 
1613.00, 
1614.00, 
1615.00, 
1616.00, 
1617.00, 
1618.00, 
1619.00, 
1620.00, 
1621.00, 
1622.00, 
1623.00, 
1624.00, 
1625.00, 
1626.00, 
1627.00, 
1628.00, 
1629.00, 
1630.00, 
1631.00, 
1632.00, 
1633.00, 
1634.00, 
1635.00, 
1636.00, 
1637.00, 
1638.00, 
1639.00, 
1640.00, 
1641.00, 
1642.00, 
1643.00, 
1644.00, 
1645.00, 
1646.00, 
1647.00, 
1648.00, 
1649.00, 
1650.00, 
1651.00, 
1652.00, 
1653.00, 
1654.00, 
1655.00, 
1656.00, 
1657.00, 
1658.00, 
1659.00, 
1660.00, 
1661.00, 
1662.00, 
1663.00, 
1664.00, 
1665.00, 
1666.00, 
1667.00, 
1668.00, 
1669.00, 
1670.00, 
1671.00, 
1672.00, 
1673.00, 
1674.00, 
1675.00, 
1676.00, 
1677.00, 
1678.00, 
1679.00, 
1680.00, 
1681.00, 
1682.00, 
1683.00, 
1684.00, 
1685.00, 
1686.00, 
1687.00, 
1688.00, 
1689.00, 
1690.00, 
1691.00, 
1692.00, 
1693.00, 
1694.00, 
1695.00, 
1696.00, 
1697.00, 
1698.00, 
1699.00, 
1700.00, 
1701.00, 
1702.00, 
1703.00, 
1704.00, 
1705.00, 
1706.00, 
1707.00, 
1708.00, 
1709.00, 
1710.00, 
1711.00, 
1712.00, 
1713.00, 
1714.00, 
1715.00, 
1716.00, 
1717.00, 
1718.00, 
1719.00, 
1720.00, 
1721.00, 
1722.00, 
1723.00, 
1724.00, 
1725.00, 
1726.00, 
1727.00, 
1728.00, 
1729.00, 
1730.00, 
1731.00, 
1732.00, 
1733.00, 
1734.00, 
1735.00, 
1736.00, 
1737.00, 
1738.00, 
1739.00, 
1740.00, 
1741.00, 
1742.00, 
1743.00, 
1744.00, 
1745.00, 
1746.00, 
1747.00, 
1748.00, 
1749.00, 
1750.00, 
1751.00, 
1752.00, 
1753.00, 
1754.00, 
1755.00, 
1756.00, 
1757.00, 
1758.00, 
1759.00, 
1760.00, 
1761.00, 
1762.00, 
1763.00, 
1764.00, 
1765.00, 
1766.00, 
1767.00, 
1768.00, 
1769.00, 
1770.00, 
1771.00, 
1772.00, 
1773.00, 
1774.00, 
1775.00, 
1776.00, 
1777.00, 
1778.00, 
1779.00, 
1780.00, 
1781.00, 
1782.00, 
1783.00, 
1784.00, 
1785.00, 
1786.00, 
1787.00, 
1788.00, 
1789.00, 
1790.00, 
1791.00, 
1792.00, 
1793.00, 
1794.00, 
1795.00, 
1796.00, 
1797.00, 
1798.00, 
1799.00, 
1800.00, 
1801.00, 
1802.00, 
1803.00, 
1804.00, 
1805.00, 
1806.00, 
1807.00, 
1808.00, 
1809.00, 
1810.00, 
1811.00, 
1812.00, 
1813.00, 
1814.00, 
1815.00, 
1816.00, 
1817.00, 
1818.00, 
1819.00, 
1820.00, 
1821.00, 
1822.00, 
1823.00, 
1824.00, 
1825.00, 
1826.00, 
1827.00, 
1828.00, 
1829.00, 
1830.00, 
1831.00, 
1832.00, 
1833.00, 
1834.00, 
1835.00, 
1836.00, 
1837.00, 
1838.00, 
1839.00, 
1840.00, 
1841.00, 
1842.00, 
1843.00, 
1844.00, 
1845.00, 
1846.00, 
1847.00, 
1848.00, 
1849.00, 
1850.00, 
1851.00, 
1852.00, 
1853.00, 
1854.00, 
1855.00, 
1856.00, 
1857.00, 
1858.00, 
1859.00, 
1860.00, 
1861.00, 
1862.00, 
1863.00, 
1864.00, 
1865.00, 
1866.00, 
1867.00, 
1868.00, 
1869.00, 
1870.00, 
1871.00, 
1872.00, 
1873.00, 
1874.00, 
1875.00, 
1876.00, 
1877.00, 
1878.00, 
1879.00, 
1880.00, 
1881.00, 
1882.00, 
1883.00, 
1884.00, 
1885.00, 
1886.00, 
1887.00, 
1888.00, 
1889.00, 
1890.00, 
1891.00, 
1892.00, 
1893.00, 
1894.00, 
1895.00, 
1896.00, 
1897.00, 
1898.00, 
1899.00, 
1900.00, 
1901.00, 
1902.00, 
1903.00, 
1904.00, 
1905.00, 
1906.00, 
1907.00, 
1908.00, 
1909.00, 
1910.00, 
1911.00, 
1912.00, 
1913.00, 
1914.00, 
1915.00, 
1916.00, 
1917.00, 
1918.00, 
1919.00, 
1920.00, 
1921.00, 
1922.00, 
1923.00, 
1924.00, 
1925.00, 
1926.00, 
1927.00, 
1928.00, 
1929.00, 
1930.00, 
1931.00, 
1932.00, 
1933.00, 
1934.00, 
1935.00, 
1936.00, 
1937.00, 
1938.00, 
1939.00, 
1940.00, 
1941.00, 
1942.00, 
1943.00, 
1944.00, 
1945.00, 
1946.00, 
1947.00, 
1948.00, 
1949.00, 
1950.00, 
1951.00, 
1952.00, 
1953.00, 
1954.00, 
1955.00, 
1956.00, 
1957.00, 
1958.00, 
1959.00, 
1960.00, 
1961.00, 
1962.00, 
1963.00, 
1964.00, 
1965.00, 
1966.00, 
1967.00, 
1968.00, 
1969.00, 
1970.00, 
1971.00, 
1972.00, 
1973.00, 
1974.00, 
1975.00, 
1976.00, 
1977.00, 
1978.00, 
1979.00, 
1980.00, 
1981.00, 
1982.00, 
1983.00, 
1984.00, 
1985.00, 
1986.00, 
1987.00, 
1988.00, 
1989.00, 
1990.00, 
1991.00, 
1992.00, 
1993.00, 
1994.00, 
1995.00, 
1996.00, 
1997.00, 
1998.00, 
1999.00, 
2000.00, 
2001.00, 
2002.00, 
2003.00, 
2004.00, 
2005.00, 
2006.00, 
2007.00, 
2008.00, 
2009.00, 
2010.00, 
2011.00, 
2012.00, 
2013.00, 
2014.00, 
2015.00, 
2016.00, 
2017.00, 
2018.00, 
2019.00, 
2020.00, 
2021.00, 
2022.00, 
2023.00, 
2024.00, 
2025.00, 
2026.00, 
2027.00, 
2028.00, 
2029.00, 
2030.00, 
2031.00, 
2032.00, 
2033.00, 
2034.00, 
2035.00, 
2036.00, 
2037.00, 
2038.00, 
2039.00, 
2040.00, 
2041.00, 
2042.00, 
2043.00, 
2044.00, 
2045.00, 
2046.00, 
2047.00, 
2048.00, 
2049.00, 
2050.00, 
2051.00, 
2052.00, 
2053.00, 
2054.00, 
2055.00, 
2056.00, 
2057.00, 
2058.00, 
2059.00, 
2060.00, 
2061.00, 
2062.00, 
2063.00, 
2064.00, 
2065.00, 
2066.00, 
2067.00, 
2068.00, 
2069.00, 
2070.00, 
2071.00, 
2072.00, 
2073.00, 
2074.00, 
2075.00, 
2076.00, 
2077.00, 
2078.00, 
2079.00, 
2080.00, 
2081.00, 
2082.00, 
2083.00, 
2084.00, 
2085.00, 
2086.00, 
2087.00, 
2088.00, 
2089.00, 
2090.00, 
2091.00, 
2092.00, 
2093.00, 
2094.00, 
2095.00, 
2096.00, 
2097.00, 
2098.00, 
2099.00, 
2100.00, 
2101.00, 
2102.00, 
2103.00, 
2104.00, 
2105.00, 
2106.00, 
2107.00, 
2108.00, 
2109.00, 
2110.00, 
2111.00, 
2112.00, 
2113.00, 
2114.00, 
2115.00, 
2116.00, 
2117.00, 
2118.00, 
2119.00, 
2120.00, 
2121.00, 
2122.00, 
2123.00, 
2124.00, 
2125.00, 
2126.00, 
2127.00, 
2128.00, 
2129.00, 
2130.00, 
2131.00, 
2132.00, 
2133.00, 
2134.00, 
2135.00, 
2136.00, 
2137.00, 
2138.00, 
2139.00, 
2140.00, 
2141.00, 
2142.00, 
2143.00, 
2144.00, 
2145.00, 
2146.00, 
2147.00, 
2148.00, 
2149.00, 
2150.00, 
2151.00, 
2152.00, 
2153.00, 
2154.00, 
2155.00, 
2156.00, 
2157.00, 
2158.00, 
2159.00, 
2160.00, 
2161.00, 
2162.00, 
2163.00, 
2164.00, 
2165.00, 
2166.00, 
2167.00, 
2168.00, 
2169.00, 
2170.00, 
2171.00, 
2172.00, 
2173.00, 
2174.00, 
2175.00, 
2176.00, 
2177.00, 
2178.00, 
2179.00, 
2180.00, 
2181.00, 
2182.00, 
2183.00, 
2184.00, 
2185.00, 
2186.00, 
2187.00, 
2188.00, 
2189.00, 
2190.00, 
2191.00, 
2192.00, 
2193.00, 
2194.00, 
2195.00, 
2196.00, 
2197.00, 
2198.00, 
2199.00, 
2200.00, 
2201.00, 
2202.00, 
2203.00, 
2204.00, 
2205.00, 
2206.00, 
2207.00, 
2208.00, 
2209.00, 
2210.00, 
2211.00, 
2212.00, 
2213.00, 
2214.00, 
2215.00, 
2216.00, 
2217.00, 
2218.00, 
2219.00, 
2220.00, 
2221.00, 
2222.00, 
2223.00, 
2224.00, 
2225.00, 
2226.00, 
2227.00, 
2228.00, 
2229.00, 
2230.00, 
2231.00, 
2232.00, 
2233.00, 
2234.00, 
2235.00, 
2236.00, 
2237.00, 
2238.00, 
2239.00, 
2240.00, 
2241.00, 
2242.00, 
2243.00, 
2244.00, 
2245.00, 
2246.00, 
2247.00, 
2248.00, 
2249.00, 
2250.00, 
2251.00, 
2252.00, 
2253.00, 
2254.00, 
2255.00, 
2256.00, 
2257.00, 
2258.00, 
2259.00, 
2260.00, 
2261.00, 
2262.00, 
2263.00, 
2264.00, 
2265.00, 
2266.00, 
2267.00, 
2268.00, 
2269.00, 
2270.00, 
2271.00, 
2272.00, 
2273.00, 
2274.00, 
2275.00, 
2276.00, 
2277.00, 
2278.00, 
2279.00, 
2280.00, 
2281.00, 
2282.00, 
2283.00, 
2284.00, 
2285.00, 
2286.00, 
2287.00, 
2288.00, 
2289.00, 
2290.00, 
2291.00, 
2292.00, 
2293.00, 
2294.00, 
2295.00, 
2296.00, 
2297.00, 
2298.00, 
2299.00, 
2300.00, 
2301.00, 
2302.00, 
2303.00, 
2304.00, 
2305.00, 
2306.00, 
2307.00, 
2308.00, 
2309.00, 
2310.00, 
2311.00, 
2312.00, 
2313.00, 
2314.00, 
2315.00, 
2316.00, 
2317.00, 
2318.00, 
2319.00, 
2320.00, 
2321.00, 
2322.00, 
2323.00, 
2324.00, 
2325.00, 
2326.00, 
2327.00, 
2328.00, 
2329.00, 
2330.00, 
2331.00, 
2332.00, 
2333.00, 
2334.00, 
2335.00, 
2336.00, 
2337.00, 
2338.00, 
2339.00, 
2340.00, 
2341.00, 
2342.00, 
2343.00, 
2344.00, 
2345.00, 
2346.00, 
2347.00, 
2348.00, 
2349.00, 
2350.00, 
2351.00, 
2352.00, 
2353.00, 
2354.00, 
2355.00, 
2356.00, 
2357.00, 
2358.00, 
2359.00, 
2360.00, 
2361.00, 
2362.00, 
2363.00, 
2364.00, 
2365.00, 
2366.00, 
2367.00, 
2368.00, 
2369.00, 
2370.00, 
2371.00, 
2372.00, 
2373.00, 
2374.00, 
2375.00, 
2376.00, 
2377.00, 
2378.00, 
2379.00, 
2380.00, 
2381.00, 
2382.00, 
2383.00, 
2384.00, 
2385.00, 
2386.00, 
2387.00, 
2388.00, 
2389.00, 
2390.00, 
2391.00, 
2392.00, 
2393.00, 
2394.00, 
2395.00, 
2396.00, 
2397.00, 
2398.00, 
2399.00, 
2400.00, 
2401.00, 
2402.00, 
2403.00, 
2404.00, 
2405.00, 
2406.00, 
2407.00, 
2408.00, 
2409.00, 
2410.00, 
2411.00, 
2412.00, 
2413.00, 
2414.00, 
2415.00, 
2416.00, 
2417.00, 
2418.00, 
2419.00, 
2420.00, 
2421.00, 
2422.00, 
2423.00, 
2424.00, 
2425.00, 
2426.00, 
2427.00, 
2428.00, 
2429.00, 
2430.00, 
2431.00, 
2432.00, 
2433.00, 
2434.00, 
2435.00, 
2436.00, 
2437.00, 
2438.00, 
2439.00, 
2440.00, 
2441.00, 
2442.00, 
2443.00, 
2444.00, 
2445.00, 
2446.00, 
2447.00, 
2448.00, 
2449.00, 
2450.00, 
2451.00, 
2452.00, 
2453.00, 
2454.00, 
2455.00, 
2456.00, 
2457.00, 
2458.00, 
2459.00, 
2460.00, 
2461.00, 
2462.00, 
2463.00, 
2464.00, 
2465.00, 
2466.00, 
2467.00, 
2468.00, 
2469.00, 
2470.00, 
2471.00, 
2472.00, 
2473.00, 
2474.00, 
2475.00, 
2476.00, 
2477.00, 
2478.00, 
2479.00, 
2480.00, 
2481.00, 
2482.00, 
2483.00, 
2484.00, 
2485.00, 
2486.00, 
2487.00, 
2488.00, 
2489.00, 
2490.00, 
2491.00, 
2492.00, 
2493.00, 
2494.00, 
2495.00, 
2496.00, 
2497.00, 
2498.00, 
2499.00, 
2500.00, 
2501.00, 
2502.00, 
2503.00, 
2504.00, 
2505.00, 
2506.00, 
2507.00, 
2508.00, 
2509.00, 
2510.00, 
2511.00, 
2512.00, 
2513.00, 
2514.00, 
2515.00, 
2516.00, 
2517.00, 
2518.00, 
2519.00, 
2520.00, 
2521.00, 
2522.00, 
2523.00, 
2524.00, 
2525.00, 
2526.00, 
2527.00, 
2528.00, 
2529.00, 
2530.00, 
2531.00, 
2532.00, 
2533.00, 
2534.00, 
2535.00, 
2536.00, 
2537.00, 
2538.00, 
2539.00, 
2540.00, 
2541.00, 
2542.00, 
2543.00, 
2544.00, 
2545.00, 
2546.00, 
2547.00, 
2548.00, 
2549.00, 
2550.00, 
2551.00, 
2552.00, 
2553.00, 
2554.00, 
2555.00, 
2556.00, 
2557.00, 
2558.00, 
2559.00, 
2560.00, 
2561.00, 
2562.00, 
2563.00, 
2564.00, 
2565.00, 
2566.00, 
2567.00, 
2568.00, 
2569.00, 
2570.00, 
2571.00, 
2572.00, 
2573.00, 
2574.00, 
2575.00, 
2576.00, 
2577.00, 
2578.00, 
2579.00, 
2580.00, 
2581.00, 
2582.00, 
2583.00, 
2584.00, 
2585.00, 
2586.00, 
2587.00, 
2588.00, 
2589.00, 
2590.00, 
2591.00, 
2592.00, 
2593.00, 
2594.00, 
2595.00, 
2596.00, 
2597.00, 
2598.00, 
2599.00, 
2600.00, 
