"2aP2 - RawData"
"Wavelength nm.","T%"
200.00,-0.000
201.00,-0.000
202.00,0.002
203.00,0.003
204.00,0.004
205.00,0.001
206.00,0.003
207.00,-0.001
208.00,-0.001
209.00,0.004
210.00,-0.000
211.00,0.003
212.00,0.001
213.00,-0.001
214.00,0.000
215.00,0.000
216.00,0.001
217.00,0.001
218.00,0.001
219.00,-0.001
220.00,0.003
221.00,-0.002
222.00,0.003
223.00,0.002
224.00,0.002
225.00,0.001
226.00,-0.001
227.00,-0.002
228.00,0.002
229.00,0.003
230.00,0.003
231.00,0.002
232.00,0.001
233.00,0.003
234.00,0.001
235.00,0.003
236.00,0.002
237.00,0.003
238.00,0.003
239.00,0.001
240.00,0.000
241.00,0.003
242.00,0.001
243.00,0.001
244.00,-0.000
245.00,0.001
246.00,0.001
247.00,0.000
248.00,0.001
249.00,-0.000
250.00,0.001
251.00,0.001
252.00,0.001
253.00,-0.001
254.00,0.002
255.00,-0.000
256.00,0.001
257.00,0.001
258.00,-0.001
259.00,0.000
260.00,0.002
261.00,0.000
262.00,-0.000
263.00,-0.001
264.00,0.001
265.00,0.002
266.00,-0.001
267.00,0.001
268.00,-0.001
269.00,0.001
270.00,0.000
271.00,0.000
272.00,0.001
273.00,0.002
274.00,-0.001
275.00,-0.000
276.00,0.001
277.00,0.002
278.00,0.000
279.00,0.000
280.00,0.001
281.00,-0.000
282.00,0.001
283.00,0.001
284.00,0.001
285.00,-0.001
286.00,0.001
287.00,-0.001
288.00,-0.001
289.00,-0.000
290.00,0.001
291.00,0.001
292.00,-0.001
293.00,0.000
294.00,0.000
295.00,-0.000
296.00,0.001
297.00,0.002
298.00,-0.002
299.00,0.000
300.00,0.002
301.00,0.006
302.00,0.005
303.00,0.008
304.00,0.011
305.00,0.017
306.00,0.027
307.00,0.038
308.00,0.059
309.00,0.093
310.00,0.127
311.00,0.174
312.00,0.235
313.00,0.314
314.00,0.424
315.00,0.545
316.00,0.704
317.00,0.862
318.00,1.089
319.00,1.335
320.00,1.608
321.00,1.929
322.00,2.292
323.00,2.684
324.00,3.121
325.00,3.530
326.00,3.922
327.00,4.497
328.00,5.039
329.00,5.565
330.00,6.122
331.00,6.652
332.00,7.226
333.00,7.866
334.00,8.407
335.00,9.007
336.00,9.620
337.00,10.206
338.00,10.768
339.00,11.283
340.00,11.814
341.00,12.347
342.00,12.838
343.00,13.352
344.00,13.690
345.00,14.284
346.00,14.660
347.00,15.038
348.00,15.437
349.00,15.757
350.00,16.092
351.00,16.388
352.00,16.698
353.00,16.931
354.00,17.187
355.00,17.409
356.00,17.639
357.00,17.812
358.00,17.974
359.00,18.230
360.00,18.395
361.00,18.478
362.00,18.642
363.00,18.799
364.00,18.810
365.00,18.914
366.00,19.014
367.00,19.032
368.00,19.084
369.00,19.147
370.00,19.188
371.00,19.215
372.00,19.186
373.00,19.203
374.00,19.190
375.00,19.167
376.00,19.129
377.00,19.126
378.00,19.043
379.00,18.976
380.00,18.978
381.00,18.962
382.00,18.939
383.00,18.941
384.00,18.944
385.00,18.977
386.00,18.921
387.00,19.030
388.00,19.029
389.00,19.063
390.00,19.070
391.00,19.078
392.00,19.101
393.00,19.052
394.00,19.102
395.00,19.093
396.00,19.097
397.00,19.088
398.00,19.106
399.00,19.134
400.00,19.135
401.00,19.121
402.00,19.110
403.00,19.100
404.00,19.076
405.00,19.072
406.00,19.079
407.00,19.042
408.00,19.044
409.00,18.992
410.00,18.940
411.00,18.958
412.00,18.946
413.00,18.980
414.00,18.926
415.00,18.970
416.00,19.005
417.00,18.967
418.00,18.996
419.00,19.079
420.00,19.120
421.00,19.165
422.00,19.196
423.00,19.201
424.00,19.257
425.00,19.309
426.00,19.300
427.00,19.375
428.00,19.430
429.00,19.457
430.00,19.507
431.00,19.576
432.00,19.612
433.00,19.665
434.00,19.753
435.00,19.836
436.00,19.879
437.00,19.917
438.00,19.999
439.00,20.022
440.00,20.170
441.00,20.232
442.00,20.322
443.00,20.405
444.00,20.509
445.00,20.597
446.00,20.694
447.00,20.802
448.00,20.893
449.00,21.010
450.00,21.115
451.00,21.188
452.00,21.328
453.00,21.422
454.00,21.528
455.00,21.647
456.00,21.761
457.00,21.886
458.00,21.988
459.00,22.129
460.00,22.255
461.00,22.411
462.00,22.527
463.00,22.661
464.00,22.795
465.00,22.941
466.00,23.046
467.00,23.181
468.00,23.327
469.00,23.447
470.00,23.545
471.00,23.637
472.00,23.794
473.00,23.872
474.00,24.001
475.00,24.123
476.00,24.226
477.00,24.356
478.00,24.498
479.00,24.696
480.00,24.816
481.00,24.967
482.00,25.118
483.00,25.246
484.00,25.443
485.00,25.555
486.00,25.757
487.00,25.903
488.00,26.045
489.00,26.216
490.00,26.377
491.00,26.483
492.00,26.688
493.00,26.859
494.00,26.902
495.00,27.066
496.00,27.177
497.00,27.314
498.00,27.495
499.00,27.604
500.00,27.751
501.00,27.892
502.00,28.040
503.00,28.179
504.00,28.267
505.00,28.375
506.00,28.551
507.00,28.650
508.00,28.751
509.00,28.909
510.00,29.047
511.00,29.123
512.00,29.340
513.00,29.445
514.00,29.596
515.00,29.730
516.00,29.813
517.00,29.899
518.00,30.042
519.00,30.121
520.00,30.240
521.00,30.351
522.00,30.390
523.00,30.479
524.00,30.623
525.00,30.702
526.00,30.808
527.00,30.880
528.00,30.962
529.00,31.127
530.00,31.250
531.00,31.408
532.00,31.455
533.00,31.594
534.00,31.713
535.00,31.777
536.00,31.847
537.00,31.966
538.00,31.997
539.00,32.052
540.00,32.165
541.00,32.217
542.00,32.257
543.00,32.326
544.00,32.455
545.00,32.515
546.00,32.524
547.00,32.661
548.00,32.745
549.00,32.775
550.00,32.906
551.00,33.076
552.00,33.026
553.00,33.074
554.00,33.175
555.00,33.213
556.00,33.326
557.00,33.362
558.00,33.450
559.00,33.522
560.00,33.623
561.00,33.660
562.00,33.732
563.00,33.769
564.00,33.829
565.00,33.828
566.00,33.870
567.00,33.919
568.00,33.980
569.00,34.014
570.00,34.085
571.00,34.150
572.00,34.164
573.00,34.126
574.00,34.245
575.00,34.243
576.00,34.254
577.00,34.331
578.00,34.425
579.00,34.466
580.00,34.493
581.00,34.695
582.00,34.704
583.00,34.699
584.00,34.796
585.00,34.873
586.00,34.967
587.00,35.044
588.00,35.049
589.00,35.008
590.00,35.132
591.00,35.179
592.00,35.119
593.00,35.202
594.00,35.302
595.00,35.408
596.00,35.488
597.00,35.520
598.00,35.536
599.00,35.540
600.00,35.601
601.00,35.677
602.00,35.722
603.00,35.764
604.00,35.772
605.00,35.863
606.00,35.833
607.00,35.850
608.00,36.028
609.00,36.076
610.00,35.887
611.00,36.153
612.00,36.281
613.00,36.237
614.00,36.281
615.00,36.397
616.00,36.517
617.00,36.549
618.00,36.526
619.00,36.604
620.00,36.716
621.00,36.714
622.00,36.769
623.00,36.853
624.00,36.979
625.00,37.028
626.00,37.119
627.00,37.149
628.00,37.202
629.00,37.261
630.00,37.250
631.00,37.343
632.00,37.467
633.00,37.599
634.00,37.696
635.00,37.794
636.00,37.877
637.00,37.921
638.00,38.000
639.00,38.142
640.00,38.116
641.00,38.125
642.00,38.321
643.00,38.392
644.00,38.486
645.00,38.534
646.00,38.720
647.00,38.751
648.00,38.867
649.00,38.907
650.00,38.981
651.00,39.130
652.00,39.177
653.00,39.210
654.00,39.280
655.00,39.512
656.00,39.801
657.00,39.635
658.00,39.883
659.00,40.070
660.00,40.105
661.00,40.067
662.00,40.141
663.00,40.289
664.00,40.566
665.00,40.741
666.00,40.628
667.00,40.758
668.00,40.789
669.00,41.109
670.00,41.258
671.00,41.293
672.00,41.319
673.00,41.444
674.00,41.505
675.00,41.639
676.00,41.877
677.00,42.024
678.00,41.830
679.00,42.046
680.00,42.208
681.00,42.325
682.00,42.421
683.00,42.517
684.00,42.671
685.00,42.720
686.00,42.648
687.00,42.769
688.00,42.958
689.00,43.068
690.00,43.345
691.00,43.577
692.00,43.409
693.00,43.398
694.00,43.594
695.00,43.815
696.00,43.971
697.00,43.950
698.00,44.070
699.00,44.318
700.00,44.431
701.00,44.375
702.00,44.469
703.00,44.704
704.00,44.783
705.00,44.778
706.00,44.960
707.00,44.963
708.00,44.841
709.00,45.343
710.00,45.684
711.00,45.244
712.00,45.345
713.00,45.544
714.00,45.587
715.00,45.668
716.00,45.752
717.00,45.971
718.00,45.999
719.00,46.001
720.00,46.189
721.00,50.548
722.00,50.584
723.00,50.627
724.00,50.683
725.00,50.757
726.00,50.793
727.00,50.795
728.00,50.847
729.00,50.914
730.00,50.983
731.00,50.947
732.00,50.996
733.00,51.032
734.00,51.178
735.00,51.166
736.00,51.210
737.00,51.255
738.00,51.436
739.00,51.464
740.00,51.468
741.00,51.512
742.00,51.562
743.00,51.596
744.00,51.580
745.00,51.591
746.00,51.736
747.00,51.715
748.00,51.746
749.00,51.789
750.00,51.747
751.00,51.705
752.00,51.764
753.00,51.733
754.00,51.909
755.00,51.819
756.00,51.920
757.00,51.815
758.00,51.883
759.00,51.975
760.00,51.958
761.00,52.074
762.00,52.053
763.00,52.069
764.00,52.049
765.00,52.187
766.00,52.108
767.00,52.241
768.00,52.184
769.00,52.257
770.00,52.328
771.00,52.348
772.00,52.359
773.00,52.290
774.00,52.319
775.00,52.300
776.00,52.386
777.00,52.434
778.00,52.428
779.00,52.417
780.00,52.417
781.00,52.404
782.00,52.407
783.00,52.455
784.00,52.463
785.00,52.395
786.00,52.467
787.00,52.451
788.00,52.445
789.00,52.504
790.00,52.494
791.00,52.450
792.00,52.374
793.00,52.415
794.00,52.490
795.00,52.499
796.00,52.476
797.00,52.388
798.00,52.505
799.00,52.445
800.00,52.414
801.00,52.439
802.00,52.548
803.00,52.469
804.00,52.468
805.00,52.520
806.00,52.543
807.00,52.413
808.00,52.417
809.00,52.387
810.00,52.355
811.00,52.410
812.00,52.399
813.00,52.420
814.00,52.387
815.00,52.418
816.00,52.433
817.00,52.370
818.00,52.275
819.00,52.349
820.00,52.296
821.00,52.296
822.00,52.324
823.00,52.245
824.00,52.382
825.00,52.239
826.00,52.302
827.00,52.347
828.00,52.278
829.00,52.284
830.00,52.293
831.00,54.445
832.00,54.397
833.00,54.339
834.00,54.353
835.00,54.327
836.00,54.373
837.00,54.316
838.00,54.317
839.00,54.339
840.00,54.260
841.00,54.273
842.00,54.211
843.00,54.224
844.00,54.265
845.00,54.247
846.00,54.119
847.00,54.182
848.00,54.187
849.00,54.160
850.00,54.099
851.00,54.051
852.00,54.073
853.00,54.015
854.00,54.015
855.00,53.957
856.00,53.994
857.00,53.935
858.00,53.966
859.00,53.904
860.00,53.909
861.00,53.907
862.00,53.846
863.00,53.879
864.00,53.827
865.00,53.854
866.00,53.850
867.00,53.843
868.00,53.808
869.00,53.802
870.00,53.804
871.00,53.791
872.00,53.782
873.00,53.761
874.00,53.726
875.00,53.724
876.00,53.699
877.00,53.717
878.00,53.697
879.00,53.699
880.00,53.678
881.00,53.658
882.00,53.683
883.00,53.639
884.00,53.587
885.00,53.609
886.00,53.568
887.00,53.636
888.00,53.549
889.00,53.553
890.00,53.566
891.00,53.530
892.00,53.496
893.00,53.481
894.00,53.492
895.00,53.445
896.00,53.439
897.00,53.404
898.00,53.385
899.00,53.405
900.00,53.378
901.00,53.437
902.00,53.382
903.00,53.317
904.00,53.328
905.00,53.309
906.00,53.298
907.00,53.260
908.00,53.251
909.00,53.262
910.00,53.214
911.00,53.197
912.00,53.202
913.00,53.150
914.00,53.144
915.00,53.121
916.00,53.094
917.00,53.061
918.00,53.088
919.00,53.041
920.00,53.014
921.00,52.977
922.00,53.093
923.00,52.915
924.00,52.939
925.00,52.978
926.00,52.907
927.00,52.870
928.00,52.957
929.00,52.886
930.00,52.833
931.00,52.839
932.00,52.797
933.00,52.822
934.00,52.781
935.00,52.767
936.00,52.769
937.00,52.763
938.00,52.705
939.00,52.727
940.00,52.687
941.00,52.668
942.00,52.609
943.00,52.635
944.00,52.591
945.00,52.617
946.00,52.606
947.00,52.561
948.00,52.557
949.00,52.531
950.00,52.521
951.00,52.484
952.00,52.464
953.00,52.427
954.00,52.409
955.00,52.359
956.00,52.366
957.00,52.320
958.00,52.349
959.00,52.276
960.00,52.284
961.00,52.275
962.00,52.272
963.00,52.219
964.00,52.235
965.00,52.227
966.00,52.203
967.00,52.212
968.00,52.182
969.00,52.212
970.00,52.176
971.00,52.174
972.00,52.159
973.00,52.186
974.00,52.195
975.00,52.166
976.00,52.187
977.00,52.176
978.00,52.216
979.00,52.172
980.00,52.197
981.00,52.182
982.00,52.140
983.00,52.195
984.00,52.134
985.00,52.166
986.00,52.129
987.00,52.133
988.00,52.114
989.00,52.098
990.00,52.086
991.00,52.080
992.00,52.102
993.00,52.070
994.00,52.056
995.00,52.043
996.00,52.031
997.00,52.030
998.00,51.989
999.00,52.017
1000.00,51.973
1001.00,51.970
1002.00,51.969
1003.00,51.950
1004.00,51.920
1005.00,51.901
1006.00,51.921
1007.00,51.893
1008.00,51.880
1009.00,51.867
1010.00,51.863
1011.00,51.837
1012.00,51.813
1013.00,51.813
1014.00,51.772
1015.00,51.797
1016.00,51.769
1017.00,51.764
1018.00,51.728
1019.00,51.711
1020.00,51.760
1021.00,51.685
1022.00,51.676
1023.00,51.625
1024.00,51.652
1025.00,51.632
1026.00,51.622
1027.00,51.594
1028.00,51.577
1029.00,51.570
1030.00,51.529
1031.00,51.532
1032.00,51.493
1033.00,51.491
1034.00,51.465
1035.00,51.443
1036.00,51.412
1037.00,51.398
1038.00,51.395
1039.00,51.356
1040.00,51.349
1041.00,51.326
1042.00,51.311
1043.00,51.284
1044.00,51.311
1045.00,51.293
1046.00,51.282
1047.00,51.298
1048.00,51.308
1049.00,51.332
1050.00,51.320
1051.00,51.369
1052.00,51.380
1053.00,51.375
1054.00,51.381
1055.00,51.402
1056.00,51.389
1057.00,51.403
1058.00,51.392
1059.00,51.380
1060.00,51.381
1061.00,51.355
1062.00,51.354
1063.00,51.363
1064.00,51.361
1065.00,51.370
1066.00,51.323
1067.00,51.310
1068.00,51.355
1069.00,51.316
1070.00,51.297
1071.00,51.284
1072.00,51.294
1073.00,51.266
1074.00,51.256
1075.00,51.234
1076.00,51.253
1077.00,51.227
1078.00,51.186
1079.00,51.213
1080.00,51.226
1081.00,51.209
1082.00,51.185
1083.00,51.176
1084.00,51.178
1085.00,51.187
1086.00,51.161
1087.00,51.162
1088.00,51.137
1089.00,51.126
1090.00,51.135
1091.00,51.121
1092.00,51.136
1093.00,51.133
1094.00,51.121
1095.00,51.123
1096.00,51.069
1097.00,51.072
1098.00,51.048
1099.00,51.034
1100.00,51.012
1101.00,51.020
1102.00,50.996
1103.00,50.997
1104.00,51.001
1105.00,50.987
1106.00,50.976
1107.00,50.973
1108.00,50.959
1109.00,50.943
1110.00,50.946
1111.00,50.943
1112.00,50.926
1113.00,50.922
1114.00,50.909
1115.00,50.926
1116.00,50.904
1117.00,50.894
1118.00,50.894
1119.00,50.888
1120.00,50.899
1121.00,50.870
1122.00,50.827
1123.00,50.836
1124.00,50.826
1125.00,50.839
1126.00,50.841
1127.00,50.829
1128.00,50.811
1129.00,50.798
1130.00,50.770
1131.00,50.783
1132.00,50.767
1133.00,50.754
1134.00,50.746
1135.00,50.735
1136.00,50.727
1137.00,50.736
1138.00,50.718
1139.00,50.719
1140.00,50.722
1141.00,50.723
1142.00,50.695
1143.00,50.699
1144.00,50.677
1145.00,50.697
1146.00,50.680
1147.00,50.667
1148.00,50.672
1149.00,50.687
1150.00,50.682
1151.00,50.684
1152.00,50.668
1153.00,50.671
1154.00,50.652
1155.00,50.656
1156.00,50.659
1157.00,50.667
1158.00,50.664
1159.00,50.671
1160.00,50.650
1161.00,50.654
1162.00,50.664
1163.00,50.659
1164.00,50.657
1165.00,50.646
1166.00,50.650
1167.00,50.642
1168.00,50.652
1169.00,50.641
1170.00,50.657
1171.00,50.635
1172.00,50.632
1173.00,50.627
1174.00,50.631
1175.00,50.629
1176.00,50.624
1177.00,50.609
1178.00,50.622
1179.00,50.627
1180.00,50.604
1181.00,50.634
1182.00,50.619
1183.00,50.604
1184.00,50.602
1185.00,50.618
1186.00,50.600
1187.00,50.614
1188.00,50.624
1189.00,50.610
1190.00,50.589
1191.00,50.574
1192.00,50.610
1193.00,50.582
1194.00,50.592
1195.00,50.571
1196.00,50.599
1197.00,50.602
1198.00,50.585
1199.00,50.575
1200.00,50.596
1201.00,50.605
1202.00,50.583
1203.00,50.579
1204.00,50.569
1205.00,50.585
1206.00,50.572
1207.00,50.571
1208.00,50.548
1209.00,50.564
1210.00,50.550
1211.00,50.555
1212.00,50.582
1213.00,50.543
1214.00,50.577
1215.00,50.557
1216.00,50.559
1217.00,50.561
1218.00,50.543
1219.00,50.569
1220.00,50.547
1221.00,50.549
1222.00,50.542
1223.00,50.554
1224.00,50.550
1225.00,50.556
1226.00,50.559
1227.00,50.555
1228.00,50.568
1229.00,50.558
1230.00,50.590
1231.00,50.587
1232.00,50.599
1233.00,50.618
1234.00,50.599
1235.00,50.596
1236.00,50.601
1237.00,50.599
1238.00,50.591
1239.00,50.601
1240.00,50.570
1241.00,50.593
1242.00,50.598
1243.00,50.603
1244.00,50.581
1245.00,50.619
1246.00,50.618
1247.00,50.605
1248.00,50.609
1249.00,50.605
1250.00,50.622
1251.00,50.598
1252.00,50.610
1253.00,50.600
1254.00,50.619
1255.00,50.637
1256.00,50.611
1257.00,50.594
1258.00,50.655
1259.00,50.642
1260.00,50.658
1261.00,50.660
1262.00,50.644
1263.00,50.664
1264.00,50.666
1265.00,50.648
1266.00,50.658
1267.00,50.658
1268.00,50.669
1269.00,50.678
1270.00,50.685
1271.00,50.682
1272.00,50.689
1273.00,50.701
1274.00,50.699
1275.00,50.698
1276.00,50.686
1277.00,50.702
1278.00,50.710
1279.00,50.715
1280.00,50.703
1281.00,50.720
1282.00,50.722
1283.00,50.712
1284.00,50.731
1285.00,50.723
1286.00,50.739
1287.00,50.722
1288.00,50.735
1289.00,50.720
1290.00,50.747
1291.00,50.756
1292.00,50.755
1293.00,50.751
1294.00,50.771
1295.00,50.777
1296.00,50.776
1297.00,50.769
1298.00,50.793
1299.00,50.779
1300.00,50.791
1301.00,50.788
1302.00,50.829
1303.00,50.828
1304.00,50.808
1305.00,50.846
1306.00,50.841
1307.00,50.840
1308.00,50.848
1309.00,50.856
1310.00,50.829
1311.00,50.828
1312.00,50.835
1313.00,50.859
1314.00,50.875
1315.00,50.881
1316.00,50.866
1317.00,50.880
1318.00,50.876
1319.00,50.871
1320.00,50.876
1321.00,51.066
1322.00,51.047
1323.00,51.036
1324.00,51.033
1325.00,51.014
1326.00,51.037
1327.00,51.028
1328.00,51.014
1329.00,51.014
1330.00,51.012
1331.00,51.013
1332.00,51.036
1333.00,50.962
1334.00,51.033
1335.00,51.044
1336.00,51.047
1337.00,51.128
1338.00,51.216
1339.00,51.231
1340.00,51.298
1341.00,51.349
1342.00,51.394
1343.00,51.465
1344.00,51.499
1345.00,51.553
1346.00,51.587
1347.00,51.598
1348.00,51.662
1349.00,51.679
1350.00,51.666
1351.00,51.719
1352.00,51.684
1353.00,51.804
1354.00,51.750
1355.00,51.653
1356.00,51.742
1357.00,51.721
1358.00,51.726
1359.00,51.778
1360.00,51.840
1361.00,51.735
1362.00,51.671
1363.00,51.794
1364.00,51.821
1365.00,51.741
1366.00,51.783
1367.00,51.728
1368.00,51.729
1369.00,51.768
1370.00,51.750
1371.00,51.723
1372.00,51.757
1373.00,51.736
1374.00,51.734
1375.00,51.699
1376.00,51.728
1377.00,51.706
1378.00,51.654
1379.00,51.727
1380.00,51.695
1381.00,51.732
1382.00,51.738
1383.00,51.736
1384.00,51.706
1385.00,51.708
1386.00,51.736
1387.00,51.737
1388.00,51.674
1389.00,51.589
1390.00,51.755
1391.00,51.713
1392.00,51.704
1393.00,51.693
1394.00,51.748
1395.00,51.681
1396.00,51.658
1397.00,51.568
1398.00,51.807
1399.00,51.734
1400.00,52.047
1401.00,51.695
1402.00,51.773
1403.00,51.700
1404.00,51.733
1405.00,51.752
1406.00,51.790
1407.00,51.796
1408.00,51.822
1409.00,51.739
1410.00,51.786
1411.00,51.774
1412.00,51.819
1413.00,51.819
1414.00,51.760
1415.00,51.752
1416.00,51.809
1417.00,51.852
1418.00,51.827
1419.00,51.827
1420.00,51.866
1421.00,51.904
1422.00,51.877
1423.00,51.908
1424.00,51.902
1425.00,51.938
1426.00,51.934
1427.00,51.944
1428.00,51.944
1429.00,51.957
1430.00,51.957
1431.00,52.000
1432.00,51.991
1433.00,52.023
1434.00,52.010
1435.00,52.059
1436.00,52.085
1437.00,52.059
1438.00,52.060
1439.00,52.107
1440.00,52.108
1441.00,52.110
1442.00,52.136
1443.00,52.148
1444.00,52.225
1445.00,52.169
1446.00,52.161
1447.00,52.209
1448.00,52.248
1449.00,52.242
1450.00,52.271
1451.00,52.295
1452.00,52.290
1453.00,52.306
1454.00,52.310
1455.00,52.329
1456.00,52.351
1457.00,52.342
1458.00,52.392
1459.00,52.407
1460.00,52.414
1461.00,52.435
1462.00,52.457
1463.00,52.444
1464.00,52.474
1465.00,52.484
1466.00,52.483
1467.00,52.516
1468.00,52.545
1469.00,52.540
1470.00,52.563
1471.00,52.570
1472.00,52.592
1473.00,52.578
1474.00,52.607
1475.00,52.638
1476.00,52.632
1477.00,52.617
1478.00,52.658
1479.00,52.649
1480.00,52.663
1481.00,52.678
1482.00,52.695
1483.00,52.718
1484.00,52.720
1485.00,52.710
1486.00,52.748
1487.00,52.752
1488.00,52.771
1489.00,52.773
1490.00,52.787
1491.00,52.813
1492.00,52.837
1493.00,52.802
1494.00,52.856
1495.00,52.829
1496.00,52.850
1497.00,52.853
1498.00,52.854
1499.00,52.866
1500.00,52.893
1501.00, 
1502.00, 
1503.00, 
1504.00, 
1505.00, 
1506.00, 
1507.00, 
1508.00, 
1509.00, 
1510.00, 
1511.00, 
1512.00, 
1513.00, 
1514.00, 
1515.00, 
1516.00, 
1517.00, 
1518.00, 
1519.00, 
1520.00, 
1521.00, 
1522.00, 
1523.00, 
1524.00, 
1525.00, 
1526.00, 
1527.00, 
1528.00, 
1529.00, 
1530.00, 
1531.00, 
1532.00, 
1533.00, 
1534.00, 
1535.00, 
1536.00, 
1537.00, 
1538.00, 
1539.00, 
1540.00, 
1541.00, 
1542.00, 
1543.00, 
1544.00, 
1545.00, 
1546.00, 
1547.00, 
1548.00, 
1549.00, 
1550.00, 
1551.00, 
1552.00, 
1553.00, 
1554.00, 
1555.00, 
1556.00, 
1557.00, 
1558.00, 
1559.00, 
1560.00, 
1561.00, 
1562.00, 
1563.00, 
1564.00, 
1565.00, 
1566.00, 
1567.00, 
1568.00, 
1569.00, 
1570.00, 
1571.00, 
1572.00, 
1573.00, 
1574.00, 
1575.00, 
1576.00, 
1577.00, 
1578.00, 
1579.00, 
1580.00, 
1581.00, 
1582.00, 
1583.00, 
1584.00, 
1585.00, 
1586.00, 
1587.00, 
1588.00, 
1589.00, 
1590.00, 
1591.00, 
1592.00, 
1593.00, 
1594.00, 
1595.00, 
1596.00, 
1597.00, 
1598.00, 
1599.00, 
1600.00, 
1601.00, 
1602.00, 
1603.00, 
1604.00, 
1605.00, 
1606.00, 
1607.00, 
1608.00, 
1609.00, 
1610.00, 
1611.00, 
1612.00, 
1613.00, 
1614.00, 
1615.00, 
1616.00, 
1617.00, 
1618.00, 
1619.00, 
1620.00, 
1621.00, 
1622.00, 
1623.00, 
1624.00, 
1625.00, 
1626.00, 
1627.00, 
1628.00, 
1629.00, 
1630.00, 
1631.00, 
1632.00, 
1633.00, 
1634.00, 
1635.00, 
1636.00, 
1637.00, 
1638.00, 
1639.00, 
1640.00, 
1641.00, 
1642.00, 
1643.00, 
1644.00, 
1645.00, 
1646.00, 
1647.00, 
1648.00, 
1649.00, 
1650.00, 
1651.00, 
1652.00, 
1653.00, 
1654.00, 
1655.00, 
1656.00, 
1657.00, 
1658.00, 
1659.00, 
1660.00, 
1661.00, 
1662.00, 
1663.00, 
1664.00, 
1665.00, 
1666.00, 
1667.00, 
1668.00, 
1669.00, 
1670.00, 
1671.00, 
1672.00, 
1673.00, 
1674.00, 
1675.00, 
1676.00, 
1677.00, 
1678.00, 
1679.00, 
1680.00, 
1681.00, 
1682.00, 
1683.00, 
1684.00, 
1685.00, 
1686.00, 
1687.00, 
1688.00, 
1689.00, 
1690.00, 
1691.00, 
1692.00, 
1693.00, 
1694.00, 
1695.00, 
1696.00, 
1697.00, 
1698.00, 
1699.00, 
1700.00, 
1701.00, 
1702.00, 
1703.00, 
1704.00, 
1705.00, 
1706.00, 
1707.00, 
1708.00, 
1709.00, 
1710.00, 
1711.00, 
1712.00, 
1713.00, 
1714.00, 
1715.00, 
1716.00, 
1717.00, 
1718.00, 
1719.00, 
1720.00, 
1721.00, 
1722.00, 
1723.00, 
1724.00, 
1725.00, 
1726.00, 
1727.00, 
1728.00, 
1729.00, 
1730.00, 
1731.00, 
1732.00, 
1733.00, 
1734.00, 
1735.00, 
1736.00, 
1737.00, 
1738.00, 
1739.00, 
1740.00, 
1741.00, 
1742.00, 
1743.00, 
1744.00, 
1745.00, 
1746.00, 
1747.00, 
1748.00, 
1749.00, 
1750.00, 
1751.00, 
1752.00, 
1753.00, 
1754.00, 
1755.00, 
1756.00, 
1757.00, 
1758.00, 
1759.00, 
1760.00, 
1761.00, 
1762.00, 
1763.00, 
1764.00, 
1765.00, 
1766.00, 
1767.00, 
1768.00, 
1769.00, 
1770.00, 
1771.00, 
1772.00, 
1773.00, 
1774.00, 
1775.00, 
1776.00, 
1777.00, 
1778.00, 
1779.00, 
1780.00, 
1781.00, 
1782.00, 
1783.00, 
1784.00, 
1785.00, 
1786.00, 
1787.00, 
1788.00, 
1789.00, 
1790.00, 
1791.00, 
1792.00, 
1793.00, 
1794.00, 
1795.00, 
1796.00, 
1797.00, 
1798.00, 
1799.00, 
1800.00, 
1801.00, 
1802.00, 
1803.00, 
1804.00, 
1805.00, 
1806.00, 
1807.00, 
1808.00, 
1809.00, 
1810.00, 
1811.00, 
1812.00, 
1813.00, 
1814.00, 
1815.00, 
1816.00, 
1817.00, 
1818.00, 
1819.00, 
1820.00, 
1821.00, 
1822.00, 
1823.00, 
1824.00, 
1825.00, 
1826.00, 
1827.00, 
1828.00, 
1829.00, 
1830.00, 
1831.00, 
1832.00, 
1833.00, 
1834.00, 
1835.00, 
1836.00, 
1837.00, 
1838.00, 
1839.00, 
1840.00, 
1841.00, 
1842.00, 
1843.00, 
1844.00, 
1845.00, 
1846.00, 
1847.00, 
1848.00, 
1849.00, 
1850.00, 
1851.00, 
1852.00, 
1853.00, 
1854.00, 
1855.00, 
1856.00, 
1857.00, 
1858.00, 
1859.00, 
1860.00, 
1861.00, 
1862.00, 
1863.00, 
1864.00, 
1865.00, 
1866.00, 
1867.00, 
1868.00, 
1869.00, 
1870.00, 
1871.00, 
1872.00, 
1873.00, 
1874.00, 
1875.00, 
1876.00, 
1877.00, 
1878.00, 
1879.00, 
1880.00, 
1881.00, 
1882.00, 
1883.00, 
1884.00, 
1885.00, 
1886.00, 
1887.00, 
1888.00, 
1889.00, 
1890.00, 
1891.00, 
1892.00, 
1893.00, 
1894.00, 
1895.00, 
1896.00, 
1897.00, 
1898.00, 
1899.00, 
1900.00, 
1901.00, 
1902.00, 
1903.00, 
1904.00, 
1905.00, 
1906.00, 
1907.00, 
1908.00, 
1909.00, 
1910.00, 
1911.00, 
1912.00, 
1913.00, 
1914.00, 
1915.00, 
1916.00, 
1917.00, 
1918.00, 
1919.00, 
1920.00, 
1921.00, 
1922.00, 
1923.00, 
1924.00, 
1925.00, 
1926.00, 
1927.00, 
1928.00, 
1929.00, 
1930.00, 
1931.00, 
1932.00, 
1933.00, 
1934.00, 
1935.00, 
1936.00, 
1937.00, 
1938.00, 
1939.00, 
1940.00, 
1941.00, 
1942.00, 
1943.00, 
1944.00, 
1945.00, 
1946.00, 
1947.00, 
1948.00, 
1949.00, 
1950.00, 
1951.00, 
1952.00, 
1953.00, 
1954.00, 
1955.00, 
1956.00, 
1957.00, 
1958.00, 
1959.00, 
1960.00, 
1961.00, 
1962.00, 
1963.00, 
1964.00, 
1965.00, 
1966.00, 
1967.00, 
1968.00, 
1969.00, 
1970.00, 
1971.00, 
1972.00, 
1973.00, 
1974.00, 
1975.00, 
1976.00, 
1977.00, 
1978.00, 
1979.00, 
1980.00, 
1981.00, 
1982.00, 
1983.00, 
1984.00, 
1985.00, 
1986.00, 
1987.00, 
1988.00, 
1989.00, 
1990.00, 
1991.00, 
1992.00, 
1993.00, 
1994.00, 
1995.00, 
1996.00, 
1997.00, 
1998.00, 
1999.00, 
2000.00, 
2001.00, 
2002.00, 
2003.00, 
2004.00, 
2005.00, 
2006.00, 
2007.00, 
2008.00, 
2009.00, 
2010.00, 
2011.00, 
2012.00, 
2013.00, 
2014.00, 
2015.00, 
2016.00, 
2017.00, 
2018.00, 
2019.00, 
2020.00, 
2021.00, 
2022.00, 
2023.00, 
2024.00, 
2025.00, 
2026.00, 
2027.00, 
2028.00, 
2029.00, 
2030.00, 
2031.00, 
2032.00, 
2033.00, 
2034.00, 
2035.00, 
2036.00, 
2037.00, 
2038.00, 
2039.00, 
2040.00, 
2041.00, 
2042.00, 
2043.00, 
2044.00, 
2045.00, 
2046.00, 
2047.00, 
2048.00, 
2049.00, 
2050.00, 
2051.00, 
2052.00, 
2053.00, 
2054.00, 
2055.00, 
2056.00, 
2057.00, 
2058.00, 
2059.00, 
2060.00, 
2061.00, 
2062.00, 
2063.00, 
2064.00, 
2065.00, 
2066.00, 
2067.00, 
2068.00, 
2069.00, 
2070.00, 
2071.00, 
2072.00, 
2073.00, 
2074.00, 
2075.00, 
2076.00, 
2077.00, 
2078.00, 
2079.00, 
2080.00, 
2081.00, 
2082.00, 
2083.00, 
2084.00, 
2085.00, 
2086.00, 
2087.00, 
2088.00, 
2089.00, 
2090.00, 
2091.00, 
2092.00, 
2093.00, 
2094.00, 
2095.00, 
2096.00, 
2097.00, 
2098.00, 
2099.00, 
2100.00, 
2101.00, 
2102.00, 
2103.00, 
2104.00, 
2105.00, 
2106.00, 
2107.00, 
2108.00, 
2109.00, 
2110.00, 
2111.00, 
2112.00, 
2113.00, 
2114.00, 
2115.00, 
2116.00, 
2117.00, 
2118.00, 
2119.00, 
2120.00, 
2121.00, 
2122.00, 
2123.00, 
2124.00, 
2125.00, 
2126.00, 
2127.00, 
2128.00, 
2129.00, 
2130.00, 
2131.00, 
2132.00, 
2133.00, 
2134.00, 
2135.00, 
2136.00, 
2137.00, 
2138.00, 
2139.00, 
2140.00, 
2141.00, 
2142.00, 
2143.00, 
2144.00, 
2145.00, 
2146.00, 
2147.00, 
2148.00, 
2149.00, 
2150.00, 
2151.00, 
2152.00, 
2153.00, 
2154.00, 
2155.00, 
2156.00, 
2157.00, 
2158.00, 
2159.00, 
2160.00, 
2161.00, 
2162.00, 
2163.00, 
2164.00, 
2165.00, 
2166.00, 
2167.00, 
2168.00, 
2169.00, 
2170.00, 
2171.00, 
2172.00, 
2173.00, 
2174.00, 
2175.00, 
2176.00, 
2177.00, 
2178.00, 
2179.00, 
2180.00, 
2181.00, 
2182.00, 
2183.00, 
2184.00, 
2185.00, 
2186.00, 
2187.00, 
2188.00, 
2189.00, 
2190.00, 
2191.00, 
2192.00, 
2193.00, 
2194.00, 
2195.00, 
2196.00, 
2197.00, 
2198.00, 
2199.00, 
2200.00, 
2201.00, 
2202.00, 
2203.00, 
2204.00, 
2205.00, 
2206.00, 
2207.00, 
2208.00, 
2209.00, 
2210.00, 
2211.00, 
2212.00, 
2213.00, 
2214.00, 
2215.00, 
2216.00, 
2217.00, 
2218.00, 
2219.00, 
2220.00, 
2221.00, 
2222.00, 
2223.00, 
2224.00, 
2225.00, 
2226.00, 
2227.00, 
2228.00, 
2229.00, 
2230.00, 
2231.00, 
2232.00, 
2233.00, 
2234.00, 
2235.00, 
2236.00, 
2237.00, 
2238.00, 
2239.00, 
2240.00, 
2241.00, 
2242.00, 
2243.00, 
2244.00, 
2245.00, 
2246.00, 
2247.00, 
2248.00, 
2249.00, 
2250.00, 
2251.00, 
2252.00, 
2253.00, 
2254.00, 
2255.00, 
2256.00, 
2257.00, 
2258.00, 
2259.00, 
2260.00, 
2261.00, 
2262.00, 
2263.00, 
2264.00, 
2265.00, 
2266.00, 
2267.00, 
2268.00, 
2269.00, 
2270.00, 
2271.00, 
2272.00, 
2273.00, 
2274.00, 
2275.00, 
2276.00, 
2277.00, 
2278.00, 
2279.00, 
2280.00, 
2281.00, 
2282.00, 
2283.00, 
2284.00, 
2285.00, 
2286.00, 
2287.00, 
2288.00, 
2289.00, 
2290.00, 
2291.00, 
2292.00, 
2293.00, 
2294.00, 
2295.00, 
2296.00, 
2297.00, 
2298.00, 
2299.00, 
2300.00, 
2301.00, 
2302.00, 
2303.00, 
2304.00, 
2305.00, 
2306.00, 
2307.00, 
2308.00, 
2309.00, 
2310.00, 
2311.00, 
2312.00, 
2313.00, 
2314.00, 
2315.00, 
2316.00, 
2317.00, 
2318.00, 
2319.00, 
2320.00, 
2321.00, 
2322.00, 
2323.00, 
2324.00, 
2325.00, 
2326.00, 
2327.00, 
2328.00, 
2329.00, 
2330.00, 
2331.00, 
2332.00, 
2333.00, 
2334.00, 
2335.00, 
2336.00, 
2337.00, 
2338.00, 
2339.00, 
2340.00, 
2341.00, 
2342.00, 
2343.00, 
2344.00, 
2345.00, 
2346.00, 
2347.00, 
2348.00, 
2349.00, 
2350.00, 
2351.00, 
2352.00, 
2353.00, 
2354.00, 
2355.00, 
2356.00, 
2357.00, 
2358.00, 
2359.00, 
2360.00, 
2361.00, 
2362.00, 
2363.00, 
2364.00, 
2365.00, 
2366.00, 
2367.00, 
2368.00, 
2369.00, 
2370.00, 
2371.00, 
2372.00, 
2373.00, 
2374.00, 
2375.00, 
2376.00, 
2377.00, 
2378.00, 
2379.00, 
2380.00, 
2381.00, 
2382.00, 
2383.00, 
2384.00, 
2385.00, 
2386.00, 
2387.00, 
2388.00, 
2389.00, 
2390.00, 
2391.00, 
2392.00, 
2393.00, 
2394.00, 
2395.00, 
2396.00, 
2397.00, 
2398.00, 
2399.00, 
2400.00, 
2401.00, 
2402.00, 
2403.00, 
2404.00, 
2405.00, 
2406.00, 
2407.00, 
2408.00, 
2409.00, 
2410.00, 
2411.00, 
2412.00, 
2413.00, 
2414.00, 
2415.00, 
2416.00, 
2417.00, 
2418.00, 
2419.00, 
2420.00, 
2421.00, 
2422.00, 
2423.00, 
2424.00, 
2425.00, 
2426.00, 
2427.00, 
2428.00, 
2429.00, 
2430.00, 
2431.00, 
2432.00, 
2433.00, 
2434.00, 
2435.00, 
2436.00, 
2437.00, 
2438.00, 
2439.00, 
2440.00, 
2441.00, 
2442.00, 
2443.00, 
2444.00, 
2445.00, 
2446.00, 
2447.00, 
2448.00, 
2449.00, 
2450.00, 
2451.00, 
2452.00, 
2453.00, 
2454.00, 
2455.00, 
2456.00, 
2457.00, 
2458.00, 
2459.00, 
2460.00, 
2461.00, 
2462.00, 
2463.00, 
2464.00, 
2465.00, 
2466.00, 
2467.00, 
2468.00, 
2469.00, 
2470.00, 
2471.00, 
2472.00, 
2473.00, 
2474.00, 
2475.00, 
2476.00, 
2477.00, 
2478.00, 
2479.00, 
2480.00, 
2481.00, 
2482.00, 
2483.00, 
2484.00, 
2485.00, 
2486.00, 
2487.00, 
2488.00, 
2489.00, 
2490.00, 
2491.00, 
2492.00, 
2493.00, 
2494.00, 
2495.00, 
2496.00, 
2497.00, 
2498.00, 
2499.00, 
2500.00, 
2501.00, 
2502.00, 
2503.00, 
2504.00, 
2505.00, 
2506.00, 
2507.00, 
2508.00, 
2509.00, 
2510.00, 
2511.00, 
2512.00, 
2513.00, 
2514.00, 
2515.00, 
2516.00, 
2517.00, 
2518.00, 
2519.00, 
2520.00, 
2521.00, 
2522.00, 
2523.00, 
2524.00, 
2525.00, 
2526.00, 
2527.00, 
2528.00, 
2529.00, 
2530.00, 
2531.00, 
2532.00, 
2533.00, 
2534.00, 
2535.00, 
2536.00, 
2537.00, 
2538.00, 
2539.00, 
2540.00, 
2541.00, 
2542.00, 
2543.00, 
2544.00, 
2545.00, 
2546.00, 
2547.00, 
2548.00, 
2549.00, 
2550.00, 
2551.00, 
2552.00, 
2553.00, 
2554.00, 
2555.00, 
2556.00, 
2557.00, 
2558.00, 
2559.00, 
2560.00, 
2561.00, 
2562.00, 
2563.00, 
2564.00, 
2565.00, 
2566.00, 
2567.00, 
2568.00, 
2569.00, 
2570.00, 
2571.00, 
2572.00, 
2573.00, 
2574.00, 
2575.00, 
2576.00, 
2577.00, 
2578.00, 
2579.00, 
2580.00, 
2581.00, 
2582.00, 
2583.00, 
2584.00, 
2585.00, 
2586.00, 
2587.00, 
2588.00, 
2589.00, 
2590.00, 
2591.00, 
2592.00, 
2593.00, 
2594.00, 
2595.00, 
2596.00, 
2597.00, 
2598.00, 
2599.00, 
2600.00, 
