"2bP2 - RawData"
"Wavelength nm.","T%"
200.00,0.002
201.00,-0.001
202.00,0.001
203.00,0.000
204.00,-0.000
205.00,0.001
206.00,-0.000
207.00,0.002
208.00,0.003
209.00,0.003
210.00,0.001
211.00,-0.001
212.00,0.001
213.00,0.001
214.00,-0.000
215.00,-0.000
216.00,0.004
217.00,0.001
218.00,0.002
219.00,0.000
220.00,0.002
221.00,0.002
222.00,0.002
223.00,0.002
224.00,-0.000
225.00,0.002
226.00,0.000
227.00,-0.003
228.00,-0.001
229.00,0.002
230.00,0.001
231.00,0.000
232.00,0.001
233.00,0.001
234.00,0.001
235.00,0.000
236.00,0.000
237.00,0.001
238.00,0.000
239.00,-0.000
240.00,0.000
241.00,0.000
242.00,0.001
243.00,0.001
244.00,-0.001
245.00,-0.000
246.00,0.000
247.00,-0.001
248.00,-0.001
249.00,0.002
250.00,0.001
251.00,-0.000
252.00,0.000
253.00,0.001
254.00,0.002
255.00,-0.000
256.00,-0.001
257.00,-0.000
258.00,-0.001
259.00,0.001
260.00,0.001
261.00,0.002
262.00,0.002
263.00,-0.000
264.00,-0.000
265.00,0.000
266.00,0.001
267.00,-0.001
268.00,0.001
269.00,0.000
270.00,-0.001
271.00,0.001
272.00,0.001
273.00,0.000
274.00,-0.000
275.00,-0.000
276.00,0.001
277.00,0.001
278.00,-0.000
279.00,-0.001
280.00,0.001
281.00,0.000
282.00,0.000
283.00,0.000
284.00,0.000
285.00,-0.000
286.00,0.001
287.00,-0.001
288.00,0.000
289.00,-0.000
290.00,0.002
291.00,-0.000
292.00,-0.001
293.00,0.001
294.00,0.001
295.00,0.000
296.00,0.000
297.00,0.000
298.00,0.002
299.00,0.003
300.00,0.004
301.00,0.004
302.00,0.007
303.00,0.010
304.00,0.016
305.00,0.023
306.00,0.035
307.00,0.050
308.00,0.080
309.00,0.122
310.00,0.166
311.00,0.218
312.00,0.308
313.00,0.413
314.00,0.535
315.00,0.686
316.00,0.875
317.00,1.097
318.00,1.353
319.00,1.661
320.00,1.992
321.00,2.368
322.00,2.794
323.00,3.297
324.00,3.781
325.00,4.297
326.00,4.825
327.00,5.431
328.00,6.042
329.00,6.665
330.00,7.316
331.00,7.961
332.00,8.620
333.00,9.325
334.00,9.997
335.00,10.656
336.00,11.349
337.00,12.036
338.00,12.669
339.00,13.287
340.00,13.894
341.00,14.526
342.00,15.084
343.00,15.595
344.00,16.127
345.00,16.565
346.00,17.109
347.00,17.521
348.00,17.970
349.00,18.368
350.00,18.723
351.00,19.113
352.00,19.419
353.00,19.700
354.00,19.993
355.00,20.239
356.00,20.508
357.00,20.723
358.00,20.942
359.00,21.193
360.00,21.382
361.00,21.497
362.00,21.663
363.00,21.817
364.00,21.865
365.00,21.977
366.00,22.091
367.00,22.160
368.00,22.222
369.00,22.238
370.00,22.311
371.00,22.362
372.00,22.298
373.00,22.294
374.00,22.288
375.00,22.271
376.00,22.216
377.00,22.259
378.00,22.167
379.00,22.052
380.00,22.061
381.00,22.044
382.00,22.042
383.00,22.019
384.00,22.058
385.00,22.068
386.00,22.086
387.00,22.142
388.00,22.166
389.00,22.176
390.00,22.216
391.00,22.227
392.00,22.246
393.00,22.235
394.00,22.254
395.00,22.257
396.00,22.230
397.00,22.241
398.00,22.261
399.00,22.257
400.00,22.270
401.00,22.261
402.00,22.242
403.00,22.221
404.00,22.221
405.00,22.215
406.00,22.168
407.00,22.160
408.00,22.171
409.00,22.106
410.00,22.051
411.00,22.034
412.00,22.018
413.00,22.081
414.00,22.034
415.00,22.048
416.00,22.072
417.00,22.063
418.00,22.079
419.00,22.134
420.00,22.196
421.00,22.266
422.00,22.270
423.00,22.269
424.00,22.325
425.00,22.347
426.00,22.394
427.00,22.423
428.00,22.489
429.00,22.504
430.00,22.556
431.00,22.620
432.00,22.675
433.00,22.707
434.00,22.784
435.00,22.854
436.00,22.921
437.00,22.950
438.00,23.025
439.00,23.079
440.00,23.188
441.00,23.245
442.00,23.327
443.00,23.393
444.00,23.508
445.00,23.591
446.00,23.672
447.00,23.764
448.00,23.876
449.00,23.996
450.00,24.065
451.00,24.181
452.00,24.325
453.00,24.412
454.00,24.469
455.00,24.595
456.00,24.723
457.00,24.855
458.00,24.932
459.00,25.095
460.00,25.223
461.00,25.350
462.00,25.440
463.00,25.578
464.00,25.710
465.00,25.845
466.00,25.987
467.00,26.098
468.00,26.206
469.00,26.313
470.00,26.463
471.00,26.486
472.00,26.663
473.00,26.752
474.00,26.879
475.00,26.993
476.00,27.098
477.00,27.216
478.00,27.340
479.00,27.519
480.00,27.641
481.00,27.782
482.00,27.934
483.00,28.080
484.00,28.278
485.00,28.396
486.00,28.565
487.00,28.714
488.00,28.839
489.00,29.019
490.00,29.174
491.00,29.300
492.00,29.509
493.00,29.636
494.00,29.676
495.00,29.790
496.00,29.937
497.00,30.074
498.00,30.232
499.00,30.378
500.00,30.493
501.00,30.594
502.00,30.747
503.00,30.845
504.00,30.938
505.00,31.078
506.00,31.222
507.00,31.312
508.00,31.408
509.00,31.597
510.00,31.716
511.00,31.785
512.00,31.947
513.00,32.126
514.00,32.219
515.00,32.378
516.00,32.470
517.00,32.537
518.00,32.700
519.00,32.721
520.00,32.824
521.00,32.950
522.00,32.994
523.00,33.058
524.00,33.182
525.00,33.293
526.00,33.378
527.00,33.425
528.00,33.518
529.00,33.689
530.00,33.836
531.00,33.973
532.00,34.016
533.00,34.152
534.00,34.233
535.00,34.331
536.00,34.368
537.00,34.464
538.00,34.537
539.00,34.578
540.00,34.689
541.00,34.696
542.00,34.783
543.00,34.874
544.00,34.927
545.00,34.969
546.00,35.045
547.00,35.139
548.00,35.225
549.00,35.323
550.00,35.351
551.00,35.489
552.00,35.539
553.00,35.594
554.00,35.586
555.00,35.611
556.00,35.774
557.00,35.854
558.00,35.868
559.00,35.947
560.00,36.040
561.00,36.095
562.00,36.170
563.00,36.216
564.00,36.248
565.00,36.237
566.00,36.265
567.00,36.366
568.00,36.400
569.00,36.402
570.00,36.493
571.00,36.528
572.00,36.542
573.00,36.540
574.00,36.626
575.00,36.614
576.00,36.624
577.00,36.689
578.00,36.767
579.00,36.856
580.00,36.891
581.00,37.058
582.00,37.134
583.00,37.097
584.00,37.213
585.00,37.264
586.00,37.330
587.00,37.374
588.00,37.426
589.00,37.360
590.00,37.482
591.00,37.530
592.00,37.470
593.00,37.556
594.00,37.657
595.00,37.727
596.00,37.762
597.00,37.847
598.00,37.920
599.00,37.932
600.00,37.959
601.00,37.961
602.00,37.980
603.00,38.080
604.00,38.089
605.00,38.164
606.00,38.165
607.00,38.213
608.00,38.374
609.00,38.454
610.00,38.323
611.00,38.387
612.00,38.442
613.00,38.501
614.00,38.546
615.00,38.626
616.00,38.757
617.00,38.764
618.00,38.730
619.00,38.822
620.00,38.840
621.00,38.899
622.00,39.025
623.00,39.094
624.00,39.120
625.00,39.229
626.00,39.231
627.00,39.257
628.00,39.334
629.00,39.391
630.00,39.433
631.00,39.487
632.00,39.629
633.00,39.736
634.00,39.807
635.00,39.887
636.00,39.967
637.00,40.024
638.00,40.071
639.00,40.163
640.00,40.188
641.00,40.200
642.00,40.384
643.00,40.456
644.00,40.484
645.00,40.560
646.00,40.732
647.00,40.688
648.00,40.818
649.00,40.859
650.00,40.923
651.00,41.101
652.00,41.162
653.00,41.131
654.00,41.204
655.00,41.467
656.00,41.725
657.00,41.543
658.00,41.653
659.00,41.783
660.00,41.851
661.00,41.905
662.00,41.877
663.00,42.031
664.00,42.303
665.00,42.431
666.00,42.458
667.00,42.435
668.00,42.515
669.00,42.725
670.00,42.949
671.00,42.913
672.00,42.982
673.00,43.092
674.00,43.106
675.00,43.210
676.00,43.470
677.00,43.599
678.00,43.355
679.00,43.614
680.00,43.768
681.00,43.825
682.00,43.833
683.00,43.902
684.00,44.153
685.00,44.179
686.00,44.143
687.00,44.149
688.00,44.127
689.00,44.406
690.00,44.725
691.00,44.905
692.00,44.759
693.00,44.800
694.00,44.960
695.00,45.057
696.00,45.214
697.00,45.206
698.00,45.235
699.00,45.471
700.00,45.603
701.00,45.539
702.00,45.670
703.00,45.878
704.00,45.871
705.00,45.838
706.00,45.964
707.00,45.951
708.00,45.945
709.00,46.385
710.00,46.706
711.00,46.240
712.00,46.371
713.00,46.525
714.00,46.688
715.00,46.638
716.00,46.592
717.00,46.852
718.00,46.958
719.00,46.967
720.00,47.014
721.00,51.479
722.00,51.503
723.00,51.508
724.00,51.582
725.00,51.613
726.00,51.570
727.00,51.691
728.00,51.656
729.00,51.737
730.00,51.772
731.00,51.735
732.00,51.757
733.00,51.829
734.00,51.934
735.00,51.901
736.00,51.949
737.00,51.970
738.00,52.091
739.00,52.118
740.00,52.125
741.00,52.178
742.00,52.160
743.00,52.214
744.00,52.228
745.00,52.238
746.00,52.276
747.00,52.220
748.00,52.296
749.00,52.282
750.00,52.231
751.00,52.206
752.00,52.244
753.00,52.260
754.00,52.315
755.00,52.278
756.00,52.406
757.00,52.346
758.00,52.296
759.00,52.372
760.00,52.374
761.00,52.476
762.00,52.435
763.00,52.495
764.00,52.458
765.00,52.512
766.00,52.496
767.00,52.508
768.00,52.501
769.00,52.542
770.00,52.647
771.00,52.615
772.00,52.567
773.00,52.591
774.00,52.654
775.00,52.555
776.00,52.583
777.00,52.679
778.00,52.741
779.00,52.613
780.00,52.668
781.00,52.655
782.00,52.658
783.00,52.719
784.00,52.671
785.00,52.633
786.00,52.721
787.00,52.606
788.00,52.664
789.00,52.707
790.00,52.627
791.00,52.587
792.00,52.534
793.00,52.585
794.00,52.618
795.00,52.648
796.00,52.620
797.00,52.510
798.00,52.554
799.00,52.561
800.00,52.510
801.00,52.629
802.00,52.569
803.00,52.560
804.00,52.539
805.00,52.559
806.00,52.555
807.00,52.519
808.00,52.455
809.00,52.504
810.00,52.425
811.00,52.402
812.00,52.497
813.00,52.498
814.00,52.487
815.00,52.463
816.00,52.456
817.00,52.366
818.00,52.391
819.00,52.358
820.00,52.367
821.00,52.285
822.00,52.340
823.00,52.254
824.00,52.353
825.00,52.278
826.00,52.259
827.00,52.336
828.00,52.314
829.00,52.248
830.00,52.286
831.00,54.704
832.00,54.690
833.00,54.619
834.00,54.586
835.00,54.573
836.00,54.659
837.00,54.551
838.00,54.586
839.00,54.574
840.00,54.506
841.00,54.509
842.00,54.519
843.00,54.500
844.00,54.505
845.00,54.495
846.00,54.362
847.00,54.440
848.00,54.419
849.00,54.366
850.00,54.345
851.00,54.309
852.00,54.323
853.00,54.270
854.00,54.257
855.00,54.224
856.00,54.199
857.00,54.186
858.00,54.140
859.00,54.094
860.00,54.119
861.00,54.100
862.00,54.041
863.00,54.076
864.00,54.039
865.00,54.073
866.00,54.061
867.00,54.054
868.00,54.017
869.00,53.998
870.00,53.991
871.00,53.991
872.00,53.997
873.00,53.984
874.00,53.925
875.00,54.052
876.00,53.913
877.00,53.931
878.00,53.906
879.00,53.901
880.00,53.872
881.00,53.877
882.00,53.897
883.00,53.850
884.00,53.792
885.00,53.805
886.00,53.798
887.00,53.771
888.00,53.760
889.00,53.750
890.00,53.712
891.00,53.870
892.00,53.685
893.00,53.663
894.00,53.671
895.00,53.614
896.00,53.597
897.00,53.593
898.00,53.584
899.00,53.602
900.00,53.557
901.00,53.531
902.00,53.554
903.00,53.496
904.00,53.475
905.00,53.464
906.00,53.460
907.00,53.430
908.00,53.399
909.00,53.405
910.00,53.384
911.00,53.368
912.00,53.374
913.00,53.312
914.00,53.258
915.00,53.331
916.00,53.254
917.00,53.246
918.00,53.239
919.00,53.216
920.00,53.201
921.00,53.155
922.00,53.262
923.00,53.109
924.00,53.123
925.00,53.129
926.00,53.093
927.00,53.108
928.00,53.073
929.00,53.073
930.00,53.143
931.00,53.046
932.00,52.985
933.00,53.005
934.00,52.961
935.00,52.930
936.00,52.931
937.00,52.912
938.00,52.900
939.00,52.895
940.00,52.842
941.00,52.849
942.00,52.825
943.00,52.815
944.00,52.761
945.00,52.771
946.00,52.743
947.00,52.709
948.00,52.705
949.00,52.694
950.00,52.670
951.00,52.665
952.00,52.649
953.00,52.595
954.00,52.575
955.00,52.614
956.00,52.521
957.00,52.478
958.00,52.491
959.00,52.435
960.00,52.448
961.00,52.431
962.00,52.439
963.00,52.387
964.00,52.390
965.00,52.386
966.00,52.375
967.00,52.383
968.00,52.347
969.00,52.387
970.00,52.358
971.00,52.355
972.00,52.325
973.00,52.383
974.00,52.373
975.00,52.303
976.00,52.375
977.00,52.353
978.00,52.388
979.00,52.340
980.00,52.357
981.00,52.369
982.00,52.322
983.00,52.347
984.00,52.306
985.00,52.334
986.00,52.292
987.00,52.299
988.00,52.295
989.00,52.271
990.00,52.256
991.00,52.288
992.00,52.262
993.00,52.218
994.00,52.227
995.00,52.230
996.00,52.207
997.00,52.203
998.00,52.167
999.00,52.187
1000.00,52.135
1001.00,52.130
1002.00,52.132
1003.00,52.103
1004.00,52.089
1005.00,52.069
1006.00,52.090
1007.00,52.046
1008.00,52.032
1009.00,52.010
1010.00,52.015
1011.00,52.019
1012.00,51.977
1013.00,51.996
1014.00,51.939
1015.00,51.961
1016.00,51.928
1017.00,51.908
1018.00,51.886
1019.00,51.861
1020.00,51.859
1021.00,51.861
1022.00,51.855
1023.00,51.803
1024.00,51.824
1025.00,51.807
1026.00,51.789
1027.00,51.779
1028.00,51.763
1029.00,51.753
1030.00,51.726
1031.00,51.725
1032.00,51.679
1033.00,51.678
1034.00,51.652
1035.00,51.618
1036.00,51.599
1037.00,51.604
1038.00,51.578
1039.00,51.549
1040.00,51.553
1041.00,51.518
1042.00,51.501
1043.00,51.485
1044.00,51.508
1045.00,51.479
1046.00,51.462
1047.00,51.484
1048.00,51.487
1049.00,51.499
1050.00,51.496
1051.00,51.539
1052.00,51.556
1053.00,51.542
1054.00,51.558
1055.00,51.578
1056.00,51.577
1057.00,51.584
1058.00,51.566
1059.00,51.555
1060.00,51.555
1061.00,51.544
1062.00,51.540
1063.00,51.553
1064.00,51.549
1065.00,51.538
1066.00,51.515
1067.00,51.511
1068.00,51.546
1069.00,51.507
1070.00,51.476
1071.00,51.473
1072.00,51.485
1073.00,51.463
1074.00,51.468
1075.00,51.438
1076.00,51.440
1077.00,51.420
1078.00,51.387
1079.00,51.400
1080.00,51.394
1081.00,51.385
1082.00,51.398
1083.00,51.386
1084.00,51.390
1085.00,51.402
1086.00,51.371
1087.00,51.375
1088.00,51.374
1089.00,51.350
1090.00,51.353
1091.00,51.374
1092.00,51.321
1093.00,51.310
1094.00,51.289
1095.00,51.274
1096.00,51.246
1097.00,51.253
1098.00,51.269
1099.00,51.223
1100.00,51.206
1101.00,51.220
1102.00,51.200
1103.00,51.179
1104.00,51.181
1105.00,51.167
1106.00,51.155
1107.00,51.149
1108.00,51.142
1109.00,51.151
1110.00,51.162
1111.00,51.155
1112.00,51.143
1113.00,51.105
1114.00,51.092
1115.00,51.111
1116.00,51.092
1117.00,51.076
1118.00,51.070
1119.00,51.065
1120.00,51.064
1121.00,51.058
1122.00,51.030
1123.00,51.041
1124.00,51.021
1125.00,51.009
1126.00,51.015
1127.00,50.999
1128.00,50.977
1129.00,50.970
1130.00,50.956
1131.00,50.984
1132.00,50.976
1133.00,50.963
1134.00,50.963
1135.00,50.959
1136.00,50.957
1137.00,50.959
1138.00,50.945
1139.00,50.940
1140.00,50.935
1141.00,50.922
1142.00,50.906
1143.00,50.930
1144.00,50.906
1145.00,50.903
1146.00,50.892
1147.00,50.883
1148.00,50.891
1149.00,50.905
1150.00,50.900
1151.00,50.903
1152.00,50.885
1153.00,50.894
1154.00,50.869
1155.00,50.867
1156.00,50.884
1157.00,50.864
1158.00,50.858
1159.00,50.894
1160.00,50.857
1161.00,50.862
1162.00,50.860
1163.00,50.850
1164.00,50.851
1165.00,50.845
1166.00,50.853
1167.00,50.844
1168.00,50.860
1169.00,50.844
1170.00,50.841
1171.00,50.812
1172.00,50.808
1173.00,50.802
1174.00,50.805
1175.00,50.816
1176.00,50.803
1177.00,50.790
1178.00,50.805
1179.00,50.814
1180.00,50.805
1181.00,50.828
1182.00,50.810
1183.00,50.798
1184.00,50.797
1185.00,50.793
1186.00,50.792
1187.00,50.796
1188.00,50.782
1189.00,50.793
1190.00,50.764
1191.00,50.758
1192.00,50.797
1193.00,50.781
1194.00,50.784
1195.00,50.757
1196.00,50.781
1197.00,50.787
1198.00,50.763
1199.00,50.757
1200.00,50.761
1201.00,50.769
1202.00,50.754
1203.00,50.756
1204.00,50.749
1205.00,50.760
1206.00,50.757
1207.00,50.755
1208.00,50.755
1209.00,50.765
1210.00,50.764
1211.00,50.781
1212.00,50.794
1213.00,50.754
1214.00,50.780
1215.00,50.763
1216.00,50.798
1217.00,50.778
1218.00,50.756
1219.00,50.776
1220.00,50.741
1221.00,50.749
1222.00,50.752
1223.00,50.765
1224.00,50.756
1225.00,50.758
1226.00,50.751
1227.00,50.749
1228.00,50.765
1229.00,50.757
1230.00,50.797
1231.00,50.786
1232.00,50.800
1233.00,50.811
1234.00,50.806
1235.00,50.792
1236.00,50.796
1237.00,50.793
1238.00,50.789
1239.00,50.804
1240.00,50.783
1241.00,50.797
1242.00,50.801
1243.00,50.804
1244.00,50.782
1245.00,50.814
1246.00,50.815
1247.00,50.807
1248.00,50.805
1249.00,50.811
1250.00,50.846
1251.00,50.812
1252.00,50.818
1253.00,50.800
1254.00,50.818
1255.00,50.824
1256.00,50.804
1257.00,50.784
1258.00,50.845
1259.00,50.828
1260.00,50.848
1261.00,50.843
1262.00,50.821
1263.00,50.835
1264.00,50.841
1265.00,50.843
1266.00,50.860
1267.00,50.879
1268.00,50.877
1269.00,50.888
1270.00,50.886
1271.00,50.884
1272.00,50.896
1273.00,50.906
1274.00,50.919
1275.00,50.918
1276.00,50.884
1277.00,50.905
1278.00,50.909
1279.00,50.907
1280.00,50.909
1281.00,50.925
1282.00,50.936
1283.00,50.934
1284.00,50.960
1285.00,50.937
1286.00,50.951
1287.00,50.941
1288.00,50.961
1289.00,50.941
1290.00,50.973
1291.00,50.980
1292.00,50.970
1293.00,50.965
1294.00,50.984
1295.00,50.985
1296.00,50.985
1297.00,50.991
1298.00,51.016
1299.00,50.995
1300.00,51.009
1301.00,51.001
1302.00,51.034
1303.00,51.010
1304.00,51.010
1305.00,51.060
1306.00,51.034
1307.00,51.045
1308.00,51.038
1309.00,51.050
1310.00,51.057
1311.00,51.040
1312.00,51.031
1313.00,51.054
1314.00,51.073
1315.00,51.078
1316.00,51.069
1317.00,51.094
1318.00,51.084
1319.00,51.082
1320.00,51.101
1321.00,51.256
1322.00,51.227
1323.00,51.220
1324.00,51.235
1325.00,51.215
1326.00,51.252
1327.00,51.241
1328.00,51.229
1329.00,51.247
1330.00,51.231
1331.00,51.225
1332.00,51.231
1333.00,51.238
1334.00,51.258
1335.00,51.282
1336.00,51.294
1337.00,51.342
1338.00,51.394
1339.00,51.438
1340.00,51.502
1341.00,51.545
1342.00,51.606
1343.00,51.684
1344.00,51.714
1345.00,51.761
1346.00,51.798
1347.00,51.799
1348.00,51.872
1349.00,51.895
1350.00,51.896
1351.00,51.922
1352.00,51.898
1353.00,51.898
1354.00,51.946
1355.00,52.038
1356.00,51.945
1357.00,51.932
1358.00,51.935
1359.00,51.972
1360.00,51.963
1361.00,51.896
1362.00,51.853
1363.00,52.045
1364.00,51.983
1365.00,51.939
1366.00,51.993
1367.00,51.948
1368.00,51.908
1369.00,51.985
1370.00,51.891
1371.00,52.264
1372.00,51.908
1373.00,51.933
1374.00,51.941
1375.00,51.904
1376.00,51.937
1377.00,51.919
1378.00,51.906
1379.00,51.932
1380.00,51.916
1381.00,51.917
1382.00,51.880
1383.00,51.913
1384.00,51.882
1385.00,51.894
1386.00,51.926
1387.00,51.887
1388.00,51.840
1389.00,51.770
1390.00,51.941
1391.00,51.869
1392.00,51.885
1393.00,51.880
1394.00,51.949
1395.00,51.842
1396.00,51.820
1397.00,51.819
1398.00,51.951
1399.00,51.957
1400.00,51.824
1401.00,51.878
1402.00,51.947
1403.00,51.865
1404.00,51.914
1405.00,51.922
1406.00,51.943
1407.00,51.953
1408.00,51.983
1409.00,51.919
1410.00,51.997
1411.00,51.703
1412.00,52.058
1413.00,51.952
1414.00,51.984
1415.00,52.024
1416.00,52.109
1417.00,52.052
1418.00,52.011
1419.00,52.011
1420.00,52.049
1421.00,52.089
1422.00,52.053
1423.00,52.066
1424.00,52.063
1425.00,52.106
1426.00,52.100
1427.00,52.116
1428.00,52.122
1429.00,52.162
1430.00,52.127
1431.00,52.164
1432.00,52.165
1433.00,52.182
1434.00,52.169
1435.00,52.229
1436.00,52.253
1437.00,52.231
1438.00,52.235
1439.00,52.293
1440.00,52.296
1441.00,52.276
1442.00,52.315
1443.00,52.335
1444.00,52.372
1445.00,52.340
1446.00,52.355
1447.00,52.401
1448.00,52.449
1449.00,52.419
1450.00,52.428
1451.00,52.440
1452.00,52.448
1453.00,52.484
1454.00,52.486
1455.00,52.509
1456.00,52.540
1457.00,52.520
1458.00,52.573
1459.00,52.581
1460.00,52.581
1461.00,52.600
1462.00,52.613
1463.00,52.607
1464.00,52.627
1465.00,52.635
1466.00,52.631
1467.00,52.667
1468.00,52.701
1469.00,52.688
1470.00,52.707
1471.00,52.711
1472.00,52.730
1473.00,52.733
1474.00,52.753
1475.00,52.783
1476.00,52.793
1477.00,52.771
1478.00,52.802
1479.00,52.814
1480.00,52.832
1481.00,52.852
1482.00,52.873
1483.00,52.891
1484.00,52.896
1485.00,52.880
1486.00,52.903
1487.00,52.908
1488.00,52.938
1489.00,52.939
1490.00,52.927
1491.00,52.950
1492.00,52.972
1493.00,52.946
1494.00,52.984
1495.00,52.975
1496.00,53.006
1497.00,53.011
1498.00,53.016
1499.00,53.029
1500.00,53.051
1501.00, 
1502.00, 
1503.00, 
1504.00, 
1505.00, 
1506.00, 
1507.00, 
1508.00, 
1509.00, 
1510.00, 
1511.00, 
1512.00, 
1513.00, 
1514.00, 
1515.00, 
1516.00, 
1517.00, 
1518.00, 
1519.00, 
1520.00, 
1521.00, 
1522.00, 
1523.00, 
1524.00, 
1525.00, 
1526.00, 
1527.00, 
1528.00, 
1529.00, 
1530.00, 
1531.00, 
1532.00, 
1533.00, 
1534.00, 
1535.00, 
1536.00, 
1537.00, 
1538.00, 
1539.00, 
1540.00, 
1541.00, 
1542.00, 
1543.00, 
1544.00, 
1545.00, 
1546.00, 
1547.00, 
1548.00, 
1549.00, 
1550.00, 
1551.00, 
1552.00, 
1553.00, 
1554.00, 
1555.00, 
1556.00, 
1557.00, 
1558.00, 
1559.00, 
1560.00, 
1561.00, 
1562.00, 
1563.00, 
1564.00, 
1565.00, 
1566.00, 
1567.00, 
1568.00, 
1569.00, 
1570.00, 
1571.00, 
1572.00, 
1573.00, 
1574.00, 
1575.00, 
1576.00, 
1577.00, 
1578.00, 
1579.00, 
1580.00, 
1581.00, 
1582.00, 
1583.00, 
1584.00, 
1585.00, 
1586.00, 
1587.00, 
1588.00, 
1589.00, 
1590.00, 
1591.00, 
1592.00, 
1593.00, 
1594.00, 
1595.00, 
1596.00, 
1597.00, 
1598.00, 
1599.00, 
1600.00, 
1601.00, 
1602.00, 
1603.00, 
1604.00, 
1605.00, 
1606.00, 
1607.00, 
1608.00, 
1609.00, 
1610.00, 
1611.00, 
1612.00, 
1613.00, 
1614.00, 
1615.00, 
1616.00, 
1617.00, 
1618.00, 
1619.00, 
1620.00, 
1621.00, 
1622.00, 
1623.00, 
1624.00, 
1625.00, 
1626.00, 
1627.00, 
1628.00, 
1629.00, 
1630.00, 
1631.00, 
1632.00, 
1633.00, 
1634.00, 
1635.00, 
1636.00, 
1637.00, 
1638.00, 
1639.00, 
1640.00, 
1641.00, 
1642.00, 
1643.00, 
1644.00, 
1645.00, 
1646.00, 
1647.00, 
1648.00, 
1649.00, 
1650.00, 
1651.00, 
1652.00, 
1653.00, 
1654.00, 
1655.00, 
1656.00, 
1657.00, 
1658.00, 
1659.00, 
1660.00, 
1661.00, 
1662.00, 
1663.00, 
1664.00, 
1665.00, 
1666.00, 
1667.00, 
1668.00, 
1669.00, 
1670.00, 
1671.00, 
1672.00, 
1673.00, 
1674.00, 
1675.00, 
1676.00, 
1677.00, 
1678.00, 
1679.00, 
1680.00, 
1681.00, 
1682.00, 
1683.00, 
1684.00, 
1685.00, 
1686.00, 
1687.00, 
1688.00, 
1689.00, 
1690.00, 
1691.00, 
1692.00, 
1693.00, 
1694.00, 
1695.00, 
1696.00, 
1697.00, 
1698.00, 
1699.00, 
1700.00, 
1701.00, 
1702.00, 
1703.00, 
1704.00, 
1705.00, 
1706.00, 
1707.00, 
1708.00, 
1709.00, 
1710.00, 
1711.00, 
1712.00, 
1713.00, 
1714.00, 
1715.00, 
1716.00, 
1717.00, 
1718.00, 
1719.00, 
1720.00, 
1721.00, 
1722.00, 
1723.00, 
1724.00, 
1725.00, 
1726.00, 
1727.00, 
1728.00, 
1729.00, 
1730.00, 
1731.00, 
1732.00, 
1733.00, 
1734.00, 
1735.00, 
1736.00, 
1737.00, 
1738.00, 
1739.00, 
1740.00, 
1741.00, 
1742.00, 
1743.00, 
1744.00, 
1745.00, 
1746.00, 
1747.00, 
1748.00, 
1749.00, 
1750.00, 
1751.00, 
1752.00, 
1753.00, 
1754.00, 
1755.00, 
1756.00, 
1757.00, 
1758.00, 
1759.00, 
1760.00, 
1761.00, 
1762.00, 
1763.00, 
1764.00, 
1765.00, 
1766.00, 
1767.00, 
1768.00, 
1769.00, 
1770.00, 
1771.00, 
1772.00, 
1773.00, 
1774.00, 
1775.00, 
1776.00, 
1777.00, 
1778.00, 
1779.00, 
1780.00, 
1781.00, 
1782.00, 
1783.00, 
1784.00, 
1785.00, 
1786.00, 
1787.00, 
1788.00, 
1789.00, 
1790.00, 
1791.00, 
1792.00, 
1793.00, 
1794.00, 
1795.00, 
1796.00, 
1797.00, 
1798.00, 
1799.00, 
1800.00, 
1801.00, 
1802.00, 
1803.00, 
1804.00, 
1805.00, 
1806.00, 
1807.00, 
1808.00, 
1809.00, 
1810.00, 
1811.00, 
1812.00, 
1813.00, 
1814.00, 
1815.00, 
1816.00, 
1817.00, 
1818.00, 
1819.00, 
1820.00, 
1821.00, 
1822.00, 
1823.00, 
1824.00, 
1825.00, 
1826.00, 
1827.00, 
1828.00, 
1829.00, 
1830.00, 
1831.00, 
1832.00, 
1833.00, 
1834.00, 
1835.00, 
1836.00, 
1837.00, 
1838.00, 
1839.00, 
1840.00, 
1841.00, 
1842.00, 
1843.00, 
1844.00, 
1845.00, 
1846.00, 
1847.00, 
1848.00, 
1849.00, 
1850.00, 
1851.00, 
1852.00, 
1853.00, 
1854.00, 
1855.00, 
1856.00, 
1857.00, 
1858.00, 
1859.00, 
1860.00, 
1861.00, 
1862.00, 
1863.00, 
1864.00, 
1865.00, 
1866.00, 
1867.00, 
1868.00, 
1869.00, 
1870.00, 
1871.00, 
1872.00, 
1873.00, 
1874.00, 
1875.00, 
1876.00, 
1877.00, 
1878.00, 
1879.00, 
1880.00, 
1881.00, 
1882.00, 
1883.00, 
1884.00, 
1885.00, 
1886.00, 
1887.00, 
1888.00, 
1889.00, 
1890.00, 
1891.00, 
1892.00, 
1893.00, 
1894.00, 
1895.00, 
1896.00, 
1897.00, 
1898.00, 
1899.00, 
1900.00, 
1901.00, 
1902.00, 
1903.00, 
1904.00, 
1905.00, 
1906.00, 
1907.00, 
1908.00, 
1909.00, 
1910.00, 
1911.00, 
1912.00, 
1913.00, 
1914.00, 
1915.00, 
1916.00, 
1917.00, 
1918.00, 
1919.00, 
1920.00, 
1921.00, 
1922.00, 
1923.00, 
1924.00, 
1925.00, 
1926.00, 
1927.00, 
1928.00, 
1929.00, 
1930.00, 
1931.00, 
1932.00, 
1933.00, 
1934.00, 
1935.00, 
1936.00, 
1937.00, 
1938.00, 
1939.00, 
1940.00, 
1941.00, 
1942.00, 
1943.00, 
1944.00, 
1945.00, 
1946.00, 
1947.00, 
1948.00, 
1949.00, 
1950.00, 
1951.00, 
1952.00, 
1953.00, 
1954.00, 
1955.00, 
1956.00, 
1957.00, 
1958.00, 
1959.00, 
1960.00, 
1961.00, 
1962.00, 
1963.00, 
1964.00, 
1965.00, 
1966.00, 
1967.00, 
1968.00, 
1969.00, 
1970.00, 
1971.00, 
1972.00, 
1973.00, 
1974.00, 
1975.00, 
1976.00, 
1977.00, 
1978.00, 
1979.00, 
1980.00, 
1981.00, 
1982.00, 
1983.00, 
1984.00, 
1985.00, 
1986.00, 
1987.00, 
1988.00, 
1989.00, 
1990.00, 
1991.00, 
1992.00, 
1993.00, 
1994.00, 
1995.00, 
1996.00, 
1997.00, 
1998.00, 
1999.00, 
2000.00, 
2001.00, 
2002.00, 
2003.00, 
2004.00, 
2005.00, 
2006.00, 
2007.00, 
2008.00, 
2009.00, 
2010.00, 
2011.00, 
2012.00, 
2013.00, 
2014.00, 
2015.00, 
2016.00, 
2017.00, 
2018.00, 
2019.00, 
2020.00, 
2021.00, 
2022.00, 
2023.00, 
2024.00, 
2025.00, 
2026.00, 
2027.00, 
2028.00, 
2029.00, 
2030.00, 
2031.00, 
2032.00, 
2033.00, 
2034.00, 
2035.00, 
2036.00, 
2037.00, 
2038.00, 
2039.00, 
2040.00, 
2041.00, 
2042.00, 
2043.00, 
2044.00, 
2045.00, 
2046.00, 
2047.00, 
2048.00, 
2049.00, 
2050.00, 
2051.00, 
2052.00, 
2053.00, 
2054.00, 
2055.00, 
2056.00, 
2057.00, 
2058.00, 
2059.00, 
2060.00, 
2061.00, 
2062.00, 
2063.00, 
2064.00, 
2065.00, 
2066.00, 
2067.00, 
2068.00, 
2069.00, 
2070.00, 
2071.00, 
2072.00, 
2073.00, 
2074.00, 
2075.00, 
2076.00, 
2077.00, 
2078.00, 
2079.00, 
2080.00, 
2081.00, 
2082.00, 
2083.00, 
2084.00, 
2085.00, 
2086.00, 
2087.00, 
2088.00, 
2089.00, 
2090.00, 
2091.00, 
2092.00, 
2093.00, 
2094.00, 
2095.00, 
2096.00, 
2097.00, 
2098.00, 
2099.00, 
2100.00, 
2101.00, 
2102.00, 
2103.00, 
2104.00, 
2105.00, 
2106.00, 
2107.00, 
2108.00, 
2109.00, 
2110.00, 
2111.00, 
2112.00, 
2113.00, 
2114.00, 
2115.00, 
2116.00, 
2117.00, 
2118.00, 
2119.00, 
2120.00, 
2121.00, 
2122.00, 
2123.00, 
2124.00, 
2125.00, 
2126.00, 
2127.00, 
2128.00, 
2129.00, 
2130.00, 
2131.00, 
2132.00, 
2133.00, 
2134.00, 
2135.00, 
2136.00, 
2137.00, 
2138.00, 
2139.00, 
2140.00, 
2141.00, 
2142.00, 
2143.00, 
2144.00, 
2145.00, 
2146.00, 
2147.00, 
2148.00, 
2149.00, 
2150.00, 
2151.00, 
2152.00, 
2153.00, 
2154.00, 
2155.00, 
2156.00, 
2157.00, 
2158.00, 
2159.00, 
2160.00, 
2161.00, 
2162.00, 
2163.00, 
2164.00, 
2165.00, 
2166.00, 
2167.00, 
2168.00, 
2169.00, 
2170.00, 
2171.00, 
2172.00, 
2173.00, 
2174.00, 
2175.00, 
2176.00, 
2177.00, 
2178.00, 
2179.00, 
2180.00, 
2181.00, 
2182.00, 
2183.00, 
2184.00, 
2185.00, 
2186.00, 
2187.00, 
2188.00, 
2189.00, 
2190.00, 
2191.00, 
2192.00, 
2193.00, 
2194.00, 
2195.00, 
2196.00, 
2197.00, 
2198.00, 
2199.00, 
2200.00, 
2201.00, 
2202.00, 
2203.00, 
2204.00, 
2205.00, 
2206.00, 
2207.00, 
2208.00, 
2209.00, 
2210.00, 
2211.00, 
2212.00, 
2213.00, 
2214.00, 
2215.00, 
2216.00, 
2217.00, 
2218.00, 
2219.00, 
2220.00, 
2221.00, 
2222.00, 
2223.00, 
2224.00, 
2225.00, 
2226.00, 
2227.00, 
2228.00, 
2229.00, 
2230.00, 
2231.00, 
2232.00, 
2233.00, 
2234.00, 
2235.00, 
2236.00, 
2237.00, 
2238.00, 
2239.00, 
2240.00, 
2241.00, 
2242.00, 
2243.00, 
2244.00, 
2245.00, 
2246.00, 
2247.00, 
2248.00, 
2249.00, 
2250.00, 
2251.00, 
2252.00, 
2253.00, 
2254.00, 
2255.00, 
2256.00, 
2257.00, 
2258.00, 
2259.00, 
2260.00, 
2261.00, 
2262.00, 
2263.00, 
2264.00, 
2265.00, 
2266.00, 
2267.00, 
2268.00, 
2269.00, 
2270.00, 
2271.00, 
2272.00, 
2273.00, 
2274.00, 
2275.00, 
2276.00, 
2277.00, 
2278.00, 
2279.00, 
2280.00, 
2281.00, 
2282.00, 
2283.00, 
2284.00, 
2285.00, 
2286.00, 
2287.00, 
2288.00, 
2289.00, 
2290.00, 
2291.00, 
2292.00, 
2293.00, 
2294.00, 
2295.00, 
2296.00, 
2297.00, 
2298.00, 
2299.00, 
2300.00, 
2301.00, 
2302.00, 
2303.00, 
2304.00, 
2305.00, 
2306.00, 
2307.00, 
2308.00, 
2309.00, 
2310.00, 
2311.00, 
2312.00, 
2313.00, 
2314.00, 
2315.00, 
2316.00, 
2317.00, 
2318.00, 
2319.00, 
2320.00, 
2321.00, 
2322.00, 
2323.00, 
2324.00, 
2325.00, 
2326.00, 
2327.00, 
2328.00, 
2329.00, 
2330.00, 
2331.00, 
2332.00, 
2333.00, 
2334.00, 
2335.00, 
2336.00, 
2337.00, 
2338.00, 
2339.00, 
2340.00, 
2341.00, 
2342.00, 
2343.00, 
2344.00, 
2345.00, 
2346.00, 
2347.00, 
2348.00, 
2349.00, 
2350.00, 
2351.00, 
2352.00, 
2353.00, 
2354.00, 
2355.00, 
2356.00, 
2357.00, 
2358.00, 
2359.00, 
2360.00, 
2361.00, 
2362.00, 
2363.00, 
2364.00, 
2365.00, 
2366.00, 
2367.00, 
2368.00, 
2369.00, 
2370.00, 
2371.00, 
2372.00, 
2373.00, 
2374.00, 
2375.00, 
2376.00, 
2377.00, 
2378.00, 
2379.00, 
2380.00, 
2381.00, 
2382.00, 
2383.00, 
2384.00, 
2385.00, 
2386.00, 
2387.00, 
2388.00, 
2389.00, 
2390.00, 
2391.00, 
2392.00, 
2393.00, 
2394.00, 
2395.00, 
2396.00, 
2397.00, 
2398.00, 
2399.00, 
2400.00, 
2401.00, 
2402.00, 
2403.00, 
2404.00, 
2405.00, 
2406.00, 
2407.00, 
2408.00, 
2409.00, 
2410.00, 
2411.00, 
2412.00, 
2413.00, 
2414.00, 
2415.00, 
2416.00, 
2417.00, 
2418.00, 
2419.00, 
2420.00, 
2421.00, 
2422.00, 
2423.00, 
2424.00, 
2425.00, 
2426.00, 
2427.00, 
2428.00, 
2429.00, 
2430.00, 
2431.00, 
2432.00, 
2433.00, 
2434.00, 
2435.00, 
2436.00, 
2437.00, 
2438.00, 
2439.00, 
2440.00, 
2441.00, 
2442.00, 
2443.00, 
2444.00, 
2445.00, 
2446.00, 
2447.00, 
2448.00, 
2449.00, 
2450.00, 
2451.00, 
2452.00, 
2453.00, 
2454.00, 
2455.00, 
2456.00, 
2457.00, 
2458.00, 
2459.00, 
2460.00, 
2461.00, 
2462.00, 
2463.00, 
2464.00, 
2465.00, 
2466.00, 
2467.00, 
2468.00, 
2469.00, 
2470.00, 
2471.00, 
2472.00, 
2473.00, 
2474.00, 
2475.00, 
2476.00, 
2477.00, 
2478.00, 
2479.00, 
2480.00, 
2481.00, 
2482.00, 
2483.00, 
2484.00, 
2485.00, 
2486.00, 
2487.00, 
2488.00, 
2489.00, 
2490.00, 
2491.00, 
2492.00, 
2493.00, 
2494.00, 
2495.00, 
2496.00, 
2497.00, 
2498.00, 
2499.00, 
2500.00, 
2501.00, 
2502.00, 
2503.00, 
2504.00, 
2505.00, 
2506.00, 
2507.00, 
2508.00, 
2509.00, 
2510.00, 
2511.00, 
2512.00, 
2513.00, 
2514.00, 
2515.00, 
2516.00, 
2517.00, 
2518.00, 
2519.00, 
2520.00, 
2521.00, 
2522.00, 
2523.00, 
2524.00, 
2525.00, 
2526.00, 
2527.00, 
2528.00, 
2529.00, 
2530.00, 
2531.00, 
2532.00, 
2533.00, 
2534.00, 
2535.00, 
2536.00, 
2537.00, 
2538.00, 
2539.00, 
2540.00, 
2541.00, 
2542.00, 
2543.00, 
2544.00, 
2545.00, 
2546.00, 
2547.00, 
2548.00, 
2549.00, 
2550.00, 
2551.00, 
2552.00, 
2553.00, 
2554.00, 
2555.00, 
2556.00, 
2557.00, 
2558.00, 
2559.00, 
2560.00, 
2561.00, 
2562.00, 
2563.00, 
2564.00, 
2565.00, 
2566.00, 
2567.00, 
2568.00, 
2569.00, 
2570.00, 
2571.00, 
2572.00, 
2573.00, 
2574.00, 
2575.00, 
2576.00, 
2577.00, 
2578.00, 
2579.00, 
2580.00, 
2581.00, 
2582.00, 
2583.00, 
2584.00, 
2585.00, 
2586.00, 
2587.00, 
2588.00, 
2589.00, 
2590.00, 
2591.00, 
2592.00, 
2593.00, 
2594.00, 
2595.00, 
2596.00, 
2597.00, 
2598.00, 
2599.00, 
2600.00, 
