"2cP1 - RawData"
"Wavelength nm.","T%"
200.00,0.004
201.00,0.000
202.00,0.003
203.00,0.000
204.00,0.002
205.00,0.003
206.00,0.001
207.00,0.001
208.00,0.002
209.00,-0.000
210.00,0.000
211.00,-0.001
212.00,0.001
213.00,0.001
214.00,0.000
215.00,-0.000
216.00,-0.002
217.00,0.004
218.00,0.003
219.00,0.000
220.00,0.003
221.00,0.000
222.00,-0.000
223.00,-0.001
224.00,0.002
225.00,0.002
226.00,-0.001
227.00,0.000
228.00,0.002
229.00,0.002
230.00,-0.002
231.00,0.002
232.00,0.001
233.00,-0.000
234.00,0.001
235.00,-0.000
236.00,-0.000
237.00,0.001
238.00,0.000
239.00,0.001
240.00,0.000
241.00,0.000
242.00,0.000
243.00,0.000
244.00,-0.000
245.00,0.001
246.00,-0.001
247.00,0.002
248.00,0.002
249.00,0.001
250.00,0.000
251.00,0.001
252.00,0.001
253.00,0.002
254.00,0.000
255.00,0.001
256.00,0.001
257.00,0.000
258.00,-0.001
259.00,0.001
260.00,-0.001
261.00,0.002
262.00,-0.002
263.00,0.002
264.00,-0.000
265.00,0.001
266.00,0.000
267.00,-0.001
268.00,-0.001
269.00,-0.000
270.00,-0.001
271.00,0.000
272.00,0.000
273.00,0.001
274.00,0.001
275.00,-0.000
276.00,-0.002
277.00,-0.000
278.00,-0.000
279.00,0.001
280.00,-0.001
281.00,-0.001
282.00,0.002
283.00,-0.001
284.00,0.002
285.00,-0.001
286.00,-0.000
287.00,0.000
288.00,-0.000
289.00,-0.001
290.00,0.000
291.00,0.001
292.00,0.002
293.00,-0.001
294.00,-0.000
295.00,-0.000
296.00,0.000
297.00,0.000
298.00,-0.000
299.00,0.001
300.00,0.002
301.00,0.002
302.00,0.006
303.00,0.009
304.00,0.013
305.00,0.018
306.00,0.029
307.00,0.043
308.00,0.067
309.00,0.106
310.00,0.151
311.00,0.198
312.00,0.273
313.00,0.374
314.00,0.488
315.00,0.639
316.00,0.821
317.00,1.045
318.00,1.288
319.00,1.588
320.00,1.921
321.00,2.299
322.00,2.736
323.00,3.223
324.00,3.700
325.00,4.249
326.00,4.812
327.00,5.455
328.00,6.095
329.00,6.723
330.00,7.394
331.00,8.099
332.00,8.843
333.00,9.588
334.00,10.240
335.00,10.960
336.00,11.702
337.00,12.462
338.00,13.141
339.00,13.791
340.00,14.381
341.00,15.153
342.00,15.759
343.00,16.353
344.00,16.947
345.00,17.498
346.00,17.963
347.00,18.528
348.00,19.036
349.00,19.445
350.00,19.873
351.00,20.281
352.00,20.658
353.00,20.948
354.00,21.320
355.00,21.613
356.00,21.890
357.00,22.220
358.00,22.424
359.00,22.689
360.00,22.866
361.00,23.063
362.00,23.292
363.00,23.461
364.00,23.608
365.00,23.718
366.00,23.892
367.00,23.984
368.00,24.024
369.00,24.103
370.00,24.173
371.00,24.257
372.00,24.230
373.00,24.246
374.00,24.265
375.00,24.180
376.00,24.206
377.00,24.232
378.00,24.159
379.00,24.081
380.00,24.117
381.00,24.127
382.00,24.097
383.00,24.113
384.00,24.177
385.00,24.228
386.00,24.264
387.00,24.326
388.00,24.358
389.00,24.416
390.00,24.439
391.00,24.490
392.00,24.522
393.00,24.559
394.00,24.566
395.00,24.560
396.00,24.589
397.00,24.596
398.00,24.614
399.00,24.626
400.00,24.668
401.00,24.657
402.00,24.657
403.00,24.668
404.00,24.629
405.00,24.636
406.00,24.619
407.00,24.588
408.00,24.608
409.00,24.560
410.00,24.503
411.00,24.507
412.00,24.482
413.00,24.525
414.00,24.453
415.00,24.499
416.00,24.509
417.00,24.520
418.00,24.547
419.00,24.570
420.00,24.574
421.00,24.726
422.00,24.733
423.00,24.727
424.00,24.758
425.00,24.818
426.00,24.842
427.00,24.855
428.00,24.905
429.00,24.949
430.00,24.957
431.00,25.030
432.00,25.085
433.00,25.138
434.00,25.196
435.00,25.238
436.00,25.311
437.00,25.353
438.00,25.417
439.00,25.472
440.00,25.580
441.00,25.631
442.00,25.707
443.00,25.783
444.00,25.855
445.00,25.921
446.00,26.039
447.00,26.141
448.00,26.227
449.00,26.314
450.00,26.425
451.00,26.501
452.00,26.630
453.00,26.731
454.00,26.814
455.00,26.923
456.00,27.040
457.00,27.136
458.00,27.235
459.00,27.357
460.00,27.490
461.00,27.592
462.00,27.722
463.00,27.801
464.00,27.955
465.00,28.045
466.00,28.132
467.00,28.254
468.00,28.371
469.00,28.507
470.00,28.571
471.00,28.676
472.00,28.801
473.00,28.870
474.00,28.954
475.00,29.071
476.00,29.140
477.00,29.298
478.00,29.374
479.00,29.524
480.00,29.614
481.00,29.838
482.00,30.002
483.00,30.098
484.00,30.237
485.00,30.417
486.00,30.537
487.00,30.670
488.00,30.806
489.00,30.956
490.00,31.081
491.00,31.209
492.00,31.386
493.00,31.480
494.00,31.502
495.00,31.661
496.00,31.793
497.00,31.877
498.00,32.037
499.00,32.200
500.00,32.285
501.00,32.388
502.00,32.554
503.00,32.643
504.00,32.746
505.00,32.889
506.00,32.984
507.00,33.093
508.00,33.171
509.00,33.335
510.00,33.462
511.00,33.511
512.00,33.682
513.00,33.747
514.00,33.891
515.00,33.993
516.00,34.078
517.00,34.151
518.00,34.301
519.00,34.300
520.00,34.402
521.00,34.476
522.00,34.607
523.00,34.730
524.00,34.813
525.00,34.930
526.00,35.012
527.00,35.050
528.00,35.163
529.00,35.267
530.00,35.315
531.00,35.518
532.00,35.635
533.00,35.656
534.00,35.792
535.00,35.866
536.00,35.961
537.00,36.001
538.00,36.132
539.00,36.202
540.00,36.251
541.00,36.340
542.00,36.383
543.00,36.474
544.00,36.495
545.00,36.606
546.00,36.666
547.00,36.701
548.00,36.804
549.00,36.874
550.00,36.929
551.00,37.064
552.00,37.115
553.00,37.171
554.00,37.274
555.00,37.285
556.00,37.386
557.00,37.447
558.00,37.470
559.00,37.544
560.00,37.621
561.00,37.699
562.00,37.753
563.00,37.792
564.00,37.831
565.00,37.875
566.00,37.890
567.00,37.909
568.00,37.954
569.00,37.980
570.00,38.005
571.00,38.059
572.00,38.149
573.00,38.140
574.00,38.211
575.00,38.250
576.00,38.262
577.00,38.318
578.00,38.369
579.00,38.383
580.00,38.468
581.00,38.697
582.00,38.743
583.00,38.797
584.00,38.862
585.00,38.911
586.00,38.995
587.00,39.029
588.00,39.063
589.00,39.118
590.00,39.214
591.00,39.207
592.00,39.221
593.00,39.272
594.00,39.364
595.00,39.390
596.00,39.455
597.00,39.485
598.00,39.557
599.00,39.576
600.00,39.665
601.00,39.712
602.00,39.747
603.00,39.765
604.00,39.809
605.00,39.886
606.00,39.945
607.00,39.930
608.00,40.008
609.00,39.999
610.00,40.043
611.00,40.051
612.00,40.163
613.00,40.176
614.00,40.187
615.00,40.279
616.00,40.334
617.00,40.309
618.00,40.435
619.00,40.485
620.00,40.481
621.00,40.455
622.00,40.543
623.00,40.648
624.00,40.729
625.00,40.783
626.00,40.875
627.00,40.893
628.00,40.926
629.00,41.060
630.00,41.069
631.00,41.101
632.00,41.206
633.00,41.250
634.00,41.326
635.00,41.438
636.00,41.503
637.00,41.579
638.00,41.615
639.00,41.616
640.00,41.703
641.00,41.675
642.00,41.844
643.00,41.834
644.00,41.934
645.00,42.014
646.00,42.111
647.00,42.034
648.00,42.197
649.00,42.339
650.00,42.323
651.00,42.397
652.00,42.459
653.00,42.534
654.00,42.653
655.00,42.653
656.00,42.796
657.00,42.803
658.00,43.022
659.00,43.250
660.00,43.214
661.00,43.200
662.00,43.277
663.00,43.327
664.00,43.482
665.00,43.452
666.00,43.484
667.00,43.624
668.00,43.664
669.00,43.839
670.00,43.901
671.00,43.913
672.00,44.006
673.00,44.180
674.00,44.155
675.00,44.192
676.00,44.381
677.00,44.415
678.00,44.363
679.00,44.529
680.00,44.641
681.00,44.759
682.00,44.767
683.00,44.899
684.00,45.051
685.00,44.945
686.00,45.034
687.00,45.089
688.00,45.140
689.00,45.167
690.00,45.327
691.00,45.416
692.00,45.377
693.00,45.394
694.00,45.505
695.00,45.681
696.00,45.746
697.00,45.846
698.00,45.900
699.00,46.022
700.00,46.132
701.00,46.090
702.00,46.222
703.00,46.223
704.00,46.350
705.00,46.445
706.00,46.471
707.00,46.528
708.00,46.416
709.00,46.665
710.00,46.820
711.00,46.607
712.00,46.851
713.00,46.902
714.00,46.851
715.00,46.990
716.00,47.040
717.00,47.087
718.00,47.124
719.00,47.142
720.00,47.239
721.00,51.402
722.00,51.355
723.00,51.400
724.00,51.398
725.00,51.447
726.00,51.470
727.00,51.463
728.00,51.432
729.00,51.488
730.00,51.476
731.00,51.503
732.00,51.558
733.00,51.464
734.00,51.560
735.00,51.583
736.00,51.610
737.00,51.541
738.00,51.676
739.00,51.725
740.00,51.672
741.00,51.691
742.00,51.763
743.00,51.738
744.00,51.713
745.00,51.699
746.00,51.808
747.00,51.677
748.00,51.659
749.00,51.679
750.00,51.660
751.00,51.631
752.00,51.651
753.00,51.628
754.00,51.700
755.00,51.627
756.00,51.640
757.00,51.655
758.00,51.603
759.00,51.699
760.00,51.656
761.00,51.749
762.00,51.716
763.00,51.696
764.00,51.697
765.00,51.772
766.00,51.781
767.00,51.725
768.00,51.721
769.00,51.794
770.00,51.793
771.00,51.792
772.00,51.819
773.00,51.730
774.00,51.752
775.00,51.751
776.00,51.723
777.00,51.858
778.00,51.807
779.00,51.738
780.00,51.759
781.00,51.721
782.00,51.807
783.00,51.696
784.00,51.731
785.00,51.738
786.00,51.665
787.00,51.786
788.00,51.696
789.00,51.738
790.00,51.684
791.00,51.584
792.00,51.551
793.00,51.596
794.00,51.640
795.00,51.650
796.00,51.639
797.00,51.555
798.00,51.602
799.00,51.491
800.00,51.486
801.00,51.470
802.00,51.533
803.00,51.534
804.00,51.416
805.00,51.438
806.00,51.443
807.00,51.405
808.00,51.415
809.00,51.304
810.00,51.315
811.00,51.279
812.00,51.366
813.00,51.336
814.00,51.316
815.00,51.354
816.00,51.362
817.00,51.232
818.00,51.187
819.00,51.219
820.00,51.130
821.00,51.210
822.00,51.145
823.00,51.128
824.00,51.218
825.00,51.086
826.00,51.084
827.00,51.239
828.00,51.068
829.00,50.998
830.00,51.130
831.00,53.596
832.00,53.573
833.00,53.517
834.00,53.537
835.00,53.495
836.00,53.489
837.00,53.554
838.00,53.452
839.00,53.463
840.00,53.426
841.00,53.352
842.00,53.441
843.00,53.375
844.00,53.359
845.00,53.361
846.00,53.206
847.00,53.293
848.00,53.284
849.00,53.228
850.00,53.184
851.00,53.142
852.00,53.200
853.00,53.244
854.00,53.043
855.00,53.002
856.00,52.995
857.00,52.959
858.00,52.973
859.00,52.904
860.00,52.911
861.00,52.892
862.00,52.872
863.00,52.881
864.00,52.846
865.00,52.846
866.00,52.843
867.00,52.837
868.00,52.803
869.00,52.804
870.00,52.754
871.00,52.781
872.00,52.745
873.00,52.711
874.00,52.687
875.00,52.698
876.00,52.643
877.00,52.698
878.00,52.656
879.00,52.644
880.00,52.656
881.00,52.627
882.00,52.618
883.00,52.647
884.00,52.535
885.00,52.545
886.00,52.531
887.00,52.506
888.00,52.478
889.00,52.466
890.00,52.457
891.00,52.448
892.00,52.406
893.00,52.389
894.00,52.379
895.00,52.331
896.00,52.329
897.00,52.288
898.00,52.290
899.00,52.274
900.00,52.286
901.00,52.236
902.00,52.245
903.00,52.211
904.00,52.219
905.00,52.171
906.00,52.177
907.00,52.138
908.00,52.132
909.00,52.113
910.00,52.077
911.00,52.070
912.00,52.073
913.00,52.007
914.00,51.996
915.00,51.981
916.00,51.979
917.00,51.957
918.00,51.935
919.00,51.892
920.00,51.894
921.00,51.831
922.00,51.909
923.00,51.811
924.00,51.801
925.00,51.797
926.00,51.765
927.00,51.756
928.00,51.736
929.00,51.729
930.00,51.685
931.00,51.674
932.00,51.656
933.00,51.651
934.00,51.638
935.00,51.603
936.00,51.605
937.00,51.565
938.00,51.562
939.00,51.558
940.00,51.510
941.00,51.499
942.00,51.463
943.00,51.472
944.00,51.426
945.00,51.421
946.00,51.400
947.00,51.387
948.00,51.362
949.00,51.326
950.00,51.321
951.00,51.315
952.00,51.254
953.00,51.233
954.00,51.232
955.00,51.188
956.00,51.186
957.00,51.134
958.00,51.148
959.00,51.106
960.00,51.083
961.00,51.082
962.00,51.090
963.00,51.005
964.00,51.061
965.00,51.019
966.00,51.008
967.00,51.012
968.00,50.968
969.00,50.997
970.00,50.978
971.00,50.971
972.00,50.956
973.00,50.972
974.00,50.985
975.00,50.962
976.00,50.987
977.00,50.963
978.00,51.012
979.00,50.955
980.00,50.990
981.00,50.999
982.00,50.966
983.00,50.957
984.00,50.979
985.00,50.966
986.00,50.930
987.00,50.931
988.00,50.931
989.00,50.910
990.00,50.894
991.00,50.882
992.00,50.893
993.00,50.858
994.00,50.852
995.00,50.844
996.00,50.815
997.00,50.831
998.00,50.779
999.00,50.793
1000.00,50.815
1001.00,50.769
1002.00,50.760
1003.00,50.735
1004.00,50.723
1005.00,50.709
1006.00,50.717
1007.00,50.690
1008.00,50.690
1009.00,50.665
1010.00,50.647
1011.00,50.656
1012.00,50.615
1013.00,50.622
1014.00,50.573
1015.00,50.592
1016.00,50.562
1017.00,50.553
1018.00,50.522
1019.00,50.510
1020.00,50.484
1021.00,50.480
1022.00,50.479
1023.00,50.426
1024.00,50.434
1025.00,50.428
1026.00,50.419
1027.00,50.393
1028.00,50.382
1029.00,50.358
1030.00,50.337
1031.00,50.334
1032.00,50.296
1033.00,50.309
1034.00,50.255
1035.00,50.240
1036.00,50.217
1037.00,50.191
1038.00,50.184
1039.00,50.152
1040.00,50.150
1041.00,50.119
1042.00,50.114
1043.00,50.088
1044.00,50.129
1045.00,50.097
1046.00,50.095
1047.00,50.099
1048.00,50.100
1049.00,50.122
1050.00,50.119
1051.00,50.130
1052.00,50.155
1053.00,50.168
1054.00,50.162
1055.00,50.179
1056.00,50.174
1057.00,50.181
1058.00,50.202
1059.00,50.164
1060.00,50.170
1061.00,50.164
1062.00,50.142
1063.00,50.172
1064.00,50.141
1065.00,50.137
1066.00,50.130
1067.00,50.107
1068.00,50.124
1069.00,50.113
1070.00,50.090
1071.00,50.067
1072.00,50.079
1073.00,50.049
1074.00,50.062
1075.00,50.036
1076.00,50.026
1077.00,50.020
1078.00,49.990
1079.00,49.989
1080.00,49.997
1081.00,49.960
1082.00,49.969
1083.00,49.952
1084.00,49.945
1085.00,49.948
1086.00,49.938
1087.00,49.935
1088.00,49.929
1089.00,49.909
1090.00,49.918
1091.00,49.907
1092.00,49.886
1093.00,49.864
1094.00,49.856
1095.00,49.834
1096.00,49.833
1097.00,49.812
1098.00,49.807
1099.00,49.805
1100.00,49.792
1101.00,49.787
1102.00,49.792
1103.00,49.769
1104.00,49.775
1105.00,49.758
1106.00,49.751
1107.00,49.747
1108.00,49.729
1109.00,49.706
1110.00,49.724
1111.00,49.693
1112.00,49.697
1113.00,49.670
1114.00,49.661
1115.00,49.679
1116.00,49.675
1117.00,49.650
1118.00,49.654
1119.00,49.644
1120.00,49.638
1121.00,49.635
1122.00,49.614
1123.00,49.614
1124.00,49.614
1125.00,49.584
1126.00,49.599
1127.00,49.587
1128.00,49.568
1129.00,49.556
1130.00,49.528
1131.00,49.530
1132.00,49.544
1133.00,49.530
1134.00,49.529
1135.00,49.503
1136.00,49.494
1137.00,49.521
1138.00,49.508
1139.00,49.492
1140.00,49.492
1141.00,49.470
1142.00,49.465
1143.00,49.468
1144.00,49.442
1145.00,49.464
1146.00,49.459
1147.00,49.447
1148.00,49.457
1149.00,49.460
1150.00,49.455
1151.00,49.466
1152.00,49.447
1153.00,49.440
1154.00,49.428
1155.00,49.433
1156.00,49.427
1157.00,49.427
1158.00,49.413
1159.00,49.418
1160.00,49.399
1161.00,49.405
1162.00,49.413
1163.00,49.404
1164.00,49.387
1165.00,49.389
1166.00,49.393
1167.00,49.391
1168.00,49.397
1169.00,49.383
1170.00,49.394
1171.00,49.366
1172.00,49.361
1173.00,49.378
1174.00,49.372
1175.00,49.368
1176.00,49.384
1177.00,49.360
1178.00,49.379
1179.00,49.379
1180.00,49.372
1181.00,49.383
1182.00,49.371
1183.00,49.368
1184.00,49.350
1185.00,49.363
1186.00,49.340
1187.00,49.355
1188.00,49.332
1189.00,49.340
1190.00,49.332
1191.00,49.315
1192.00,49.343
1193.00,49.334
1194.00,49.339
1195.00,49.314
1196.00,49.334
1197.00,49.334
1198.00,49.341
1199.00,49.321
1200.00,49.322
1201.00,49.337
1202.00,49.304
1203.00,49.326
1204.00,49.308
1205.00,49.317
1206.00,49.318
1207.00,49.314
1208.00,49.296
1209.00,49.301
1210.00,49.307
1211.00,49.308
1212.00,49.325
1213.00,49.287
1214.00,49.320
1215.00,49.305
1216.00,49.289
1217.00,49.310
1218.00,49.293
1219.00,49.301
1220.00,49.303
1221.00,49.303
1222.00,49.293
1223.00,49.308
1224.00,49.298
1225.00,49.304
1226.00,49.301
1227.00,49.280
1228.00,49.305
1229.00,49.303
1230.00,49.345
1231.00,49.340
1232.00,49.340
1233.00,49.335
1234.00,49.346
1235.00,49.331
1236.00,49.338
1237.00,49.322
1238.00,49.319
1239.00,49.344
1240.00,49.323
1241.00,49.332
1242.00,49.335
1243.00,49.350
1244.00,49.334
1245.00,49.352
1246.00,49.350
1247.00,49.356
1248.00,49.346
1249.00,49.343
1250.00,49.362
1251.00,49.350
1252.00,49.364
1253.00,49.357
1254.00,49.360
1255.00,49.379
1256.00,49.349
1257.00,49.320
1258.00,49.391
1259.00,49.389
1260.00,49.391
1261.00,49.403
1262.00,49.386
1263.00,49.375
1264.00,49.392
1265.00,49.385
1266.00,49.394
1267.00,49.400
1268.00,49.411
1269.00,49.406
1270.00,49.411
1271.00,49.403
1272.00,49.431
1273.00,49.430
1274.00,49.431
1275.00,49.430
1276.00,49.431
1277.00,49.438
1278.00,49.454
1279.00,49.440
1280.00,49.448
1281.00,49.462
1282.00,49.472
1283.00,49.456
1284.00,49.458
1285.00,49.439
1286.00,49.469
1287.00,49.450
1288.00,49.482
1289.00,49.477
1290.00,49.476
1291.00,49.492
1292.00,49.501
1293.00,49.481
1294.00,49.498
1295.00,49.513
1296.00,49.515
1297.00,49.518
1298.00,49.527
1299.00,49.518
1300.00,49.529
1301.00,49.518
1302.00,49.541
1303.00,49.564
1304.00,49.540
1305.00,49.559
1306.00,49.551
1307.00,49.563
1308.00,49.569
1309.00,49.551
1310.00,49.563
1311.00,49.561
1312.00,49.547
1313.00,49.561
1314.00,49.578
1315.00,49.579
1316.00,49.585
1317.00,49.601
1318.00,49.592
1319.00,49.604
1320.00,49.612
1321.00,49.783
1322.00,49.802
1323.00,49.787
1324.00,49.790
1325.00,49.769
1326.00,49.782
1327.00,49.800
1328.00,49.791
1329.00,49.787
1330.00,49.776
1331.00,49.777
1332.00,49.781
1333.00,49.797
1334.00,49.817
1335.00,49.823
1336.00,49.856
1337.00,49.879
1338.00,49.951
1339.00,49.984
1340.00,50.041
1341.00,50.094
1342.00,50.161
1343.00,50.224
1344.00,50.251
1345.00,50.322
1346.00,50.336
1347.00,50.358
1348.00,50.420
1349.00,50.417
1350.00,50.437
1351.00,50.470
1352.00,50.456
1353.00,50.477
1354.00,50.493
1355.00,50.441
1356.00,50.502
1357.00,50.493
1358.00,50.484
1359.00,50.533
1360.00,50.558
1361.00,50.471
1362.00,50.509
1363.00,50.792
1364.00,50.545
1365.00,50.496
1366.00,50.497
1367.00,50.452
1368.00,50.491
1369.00,50.525
1370.00,50.475
1371.00,50.422
1372.00,50.443
1373.00,50.479
1374.00,50.472
1375.00,50.464
1376.00,50.482
1377.00,50.440
1378.00,50.512
1379.00,50.494
1380.00,50.472
1381.00,50.467
1382.00,50.425
1383.00,50.455
1384.00,50.412
1385.00,50.414
1386.00,50.477
1387.00,50.432
1388.00,50.394
1389.00,50.345
1390.00,50.520
1391.00,50.429
1392.00,50.454
1393.00,50.468
1394.00,50.451
1395.00,50.335
1396.00,50.390
1397.00,50.416
1398.00,50.475
1399.00,50.459
1400.00,50.408
1401.00,50.417
1402.00,50.490
1403.00,50.351
1404.00,50.390
1405.00,50.466
1406.00,50.462
1407.00,50.500
1408.00,50.485
1409.00,50.450
1410.00,50.503
1411.00,50.500
1412.00,50.553
1413.00,50.470
1414.00,50.477
1415.00,50.540
1416.00,50.525
1417.00,50.568
1418.00,50.553
1419.00,50.536
1420.00,50.577
1421.00,50.592
1422.00,50.599
1423.00,50.591
1424.00,50.604
1425.00,50.640
1426.00,50.651
1427.00,50.664
1428.00,50.679
1429.00,50.683
1430.00,50.701
1431.00,50.707
1432.00,50.722
1433.00,50.745
1434.00,50.726
1435.00,50.771
1436.00,50.787
1437.00,50.790
1438.00,50.794
1439.00,50.841
1440.00,50.841
1441.00,50.840
1442.00,50.853
1443.00,50.894
1444.00,50.910
1445.00,50.888
1446.00,50.892
1447.00,50.923
1448.00,50.974
1449.00,50.981
1450.00,50.964
1451.00,50.999
1452.00,50.973
1453.00,51.028
1454.00,51.018
1455.00,51.037
1456.00,51.061
1457.00,51.051
1458.00,51.083
1459.00,51.115
1460.00,51.114
1461.00,51.129
1462.00,51.144
1463.00,51.157
1464.00,51.177
1465.00,51.200
1466.00,51.187
1467.00,51.200
1468.00,51.223
1469.00,51.243
1470.00,51.258
1471.00,51.309
1472.00,51.279
1473.00,51.281
1474.00,51.306
1475.00,51.313
1476.00,51.329
1477.00,51.317
1478.00,51.331
1479.00,51.352
1480.00,51.372
1481.00,51.388
1482.00,51.401
1483.00,51.414
1484.00,51.445
1485.00,51.423
1486.00,51.434
1487.00,51.460
1488.00,51.468
1489.00,51.464
1490.00,51.476
1491.00,51.500
1492.00,51.519
1493.00,51.515
1494.00,51.528
1495.00,51.544
1496.00,51.537
1497.00,51.550
1498.00,51.558
1499.00,51.570
1500.00,51.586
1501.00, 
1502.00, 
1503.00, 
1504.00, 
1505.00, 
1506.00, 
1507.00, 
1508.00, 
1509.00, 
1510.00, 
1511.00, 
1512.00, 
1513.00, 
1514.00, 
1515.00, 
1516.00, 
1517.00, 
1518.00, 
1519.00, 
1520.00, 
1521.00, 
1522.00, 
1523.00, 
1524.00, 
1525.00, 
1526.00, 
1527.00, 
1528.00, 
1529.00, 
1530.00, 
1531.00, 
1532.00, 
1533.00, 
1534.00, 
1535.00, 
1536.00, 
1537.00, 
1538.00, 
1539.00, 
1540.00, 
1541.00, 
1542.00, 
1543.00, 
1544.00, 
1545.00, 
1546.00, 
1547.00, 
1548.00, 
1549.00, 
1550.00, 
1551.00, 
1552.00, 
1553.00, 
1554.00, 
1555.00, 
1556.00, 
1557.00, 
1558.00, 
1559.00, 
1560.00, 
1561.00, 
1562.00, 
1563.00, 
1564.00, 
1565.00, 
1566.00, 
1567.00, 
1568.00, 
1569.00, 
1570.00, 
1571.00, 
1572.00, 
1573.00, 
1574.00, 
1575.00, 
1576.00, 
1577.00, 
1578.00, 
1579.00, 
1580.00, 
1581.00, 
1582.00, 
1583.00, 
1584.00, 
1585.00, 
1586.00, 
1587.00, 
1588.00, 
1589.00, 
1590.00, 
1591.00, 
1592.00, 
1593.00, 
1594.00, 
1595.00, 
1596.00, 
1597.00, 
1598.00, 
1599.00, 
1600.00, 
1601.00, 
1602.00, 
1603.00, 
1604.00, 
1605.00, 
1606.00, 
1607.00, 
1608.00, 
1609.00, 
1610.00, 
1611.00, 
1612.00, 
1613.00, 
1614.00, 
1615.00, 
1616.00, 
1617.00, 
1618.00, 
1619.00, 
1620.00, 
1621.00, 
1622.00, 
1623.00, 
1624.00, 
1625.00, 
1626.00, 
1627.00, 
1628.00, 
1629.00, 
1630.00, 
1631.00, 
1632.00, 
1633.00, 
1634.00, 
1635.00, 
1636.00, 
1637.00, 
1638.00, 
1639.00, 
1640.00, 
1641.00, 
1642.00, 
1643.00, 
1644.00, 
1645.00, 
1646.00, 
1647.00, 
1648.00, 
1649.00, 
1650.00, 
1651.00, 
1652.00, 
1653.00, 
1654.00, 
1655.00, 
1656.00, 
1657.00, 
1658.00, 
1659.00, 
1660.00, 
1661.00, 
1662.00, 
1663.00, 
1664.00, 
1665.00, 
1666.00, 
1667.00, 
1668.00, 
1669.00, 
1670.00, 
1671.00, 
1672.00, 
1673.00, 
1674.00, 
1675.00, 
1676.00, 
1677.00, 
1678.00, 
1679.00, 
1680.00, 
1681.00, 
1682.00, 
1683.00, 
1684.00, 
1685.00, 
1686.00, 
1687.00, 
1688.00, 
1689.00, 
1690.00, 
1691.00, 
1692.00, 
1693.00, 
1694.00, 
1695.00, 
1696.00, 
1697.00, 
1698.00, 
1699.00, 
1700.00, 
1701.00, 
1702.00, 
1703.00, 
1704.00, 
1705.00, 
1706.00, 
1707.00, 
1708.00, 
1709.00, 
1710.00, 
1711.00, 
1712.00, 
1713.00, 
1714.00, 
1715.00, 
1716.00, 
1717.00, 
1718.00, 
1719.00, 
1720.00, 
1721.00, 
1722.00, 
1723.00, 
1724.00, 
1725.00, 
1726.00, 
1727.00, 
1728.00, 
1729.00, 
1730.00, 
1731.00, 
1732.00, 
1733.00, 
1734.00, 
1735.00, 
1736.00, 
1737.00, 
1738.00, 
1739.00, 
1740.00, 
1741.00, 
1742.00, 
1743.00, 
1744.00, 
1745.00, 
1746.00, 
1747.00, 
1748.00, 
1749.00, 
1750.00, 
1751.00, 
1752.00, 
1753.00, 
1754.00, 
1755.00, 
1756.00, 
1757.00, 
1758.00, 
1759.00, 
1760.00, 
1761.00, 
1762.00, 
1763.00, 
1764.00, 
1765.00, 
1766.00, 
1767.00, 
1768.00, 
1769.00, 
1770.00, 
1771.00, 
1772.00, 
1773.00, 
1774.00, 
1775.00, 
1776.00, 
1777.00, 
1778.00, 
1779.00, 
1780.00, 
1781.00, 
1782.00, 
1783.00, 
1784.00, 
1785.00, 
1786.00, 
1787.00, 
1788.00, 
1789.00, 
1790.00, 
1791.00, 
1792.00, 
1793.00, 
1794.00, 
1795.00, 
1796.00, 
1797.00, 
1798.00, 
1799.00, 
1800.00, 
1801.00, 
1802.00, 
1803.00, 
1804.00, 
1805.00, 
1806.00, 
1807.00, 
1808.00, 
1809.00, 
1810.00, 
1811.00, 
1812.00, 
1813.00, 
1814.00, 
1815.00, 
1816.00, 
1817.00, 
1818.00, 
1819.00, 
1820.00, 
1821.00, 
1822.00, 
1823.00, 
1824.00, 
1825.00, 
1826.00, 
1827.00, 
1828.00, 
1829.00, 
1830.00, 
1831.00, 
1832.00, 
1833.00, 
1834.00, 
1835.00, 
1836.00, 
1837.00, 
1838.00, 
1839.00, 
1840.00, 
1841.00, 
1842.00, 
1843.00, 
1844.00, 
1845.00, 
1846.00, 
1847.00, 
1848.00, 
1849.00, 
1850.00, 
1851.00, 
1852.00, 
1853.00, 
1854.00, 
1855.00, 
1856.00, 
1857.00, 
1858.00, 
1859.00, 
1860.00, 
1861.00, 
1862.00, 
1863.00, 
1864.00, 
1865.00, 
1866.00, 
1867.00, 
1868.00, 
1869.00, 
1870.00, 
1871.00, 
1872.00, 
1873.00, 
1874.00, 
1875.00, 
1876.00, 
1877.00, 
1878.00, 
1879.00, 
1880.00, 
1881.00, 
1882.00, 
1883.00, 
1884.00, 
1885.00, 
1886.00, 
1887.00, 
1888.00, 
1889.00, 
1890.00, 
1891.00, 
1892.00, 
1893.00, 
1894.00, 
1895.00, 
1896.00, 
1897.00, 
1898.00, 
1899.00, 
1900.00, 
1901.00, 
1902.00, 
1903.00, 
1904.00, 
1905.00, 
1906.00, 
1907.00, 
1908.00, 
1909.00, 
1910.00, 
1911.00, 
1912.00, 
1913.00, 
1914.00, 
1915.00, 
1916.00, 
1917.00, 
1918.00, 
1919.00, 
1920.00, 
1921.00, 
1922.00, 
1923.00, 
1924.00, 
1925.00, 
1926.00, 
1927.00, 
1928.00, 
1929.00, 
1930.00, 
1931.00, 
1932.00, 
1933.00, 
1934.00, 
1935.00, 
1936.00, 
1937.00, 
1938.00, 
1939.00, 
1940.00, 
1941.00, 
1942.00, 
1943.00, 
1944.00, 
1945.00, 
1946.00, 
1947.00, 
1948.00, 
1949.00, 
1950.00, 
1951.00, 
1952.00, 
1953.00, 
1954.00, 
1955.00, 
1956.00, 
1957.00, 
1958.00, 
1959.00, 
1960.00, 
1961.00, 
1962.00, 
1963.00, 
1964.00, 
1965.00, 
1966.00, 
1967.00, 
1968.00, 
1969.00, 
1970.00, 
1971.00, 
1972.00, 
1973.00, 
1974.00, 
1975.00, 
1976.00, 
1977.00, 
1978.00, 
1979.00, 
1980.00, 
1981.00, 
1982.00, 
1983.00, 
1984.00, 
1985.00, 
1986.00, 
1987.00, 
1988.00, 
1989.00, 
1990.00, 
1991.00, 
1992.00, 
1993.00, 
1994.00, 
1995.00, 
1996.00, 
1997.00, 
1998.00, 
1999.00, 
2000.00, 
2001.00, 
2002.00, 
2003.00, 
2004.00, 
2005.00, 
2006.00, 
2007.00, 
2008.00, 
2009.00, 
2010.00, 
2011.00, 
2012.00, 
2013.00, 
2014.00, 
2015.00, 
2016.00, 
2017.00, 
2018.00, 
2019.00, 
2020.00, 
2021.00, 
2022.00, 
2023.00, 
2024.00, 
2025.00, 
2026.00, 
2027.00, 
2028.00, 
2029.00, 
2030.00, 
2031.00, 
2032.00, 
2033.00, 
2034.00, 
2035.00, 
2036.00, 
2037.00, 
2038.00, 
2039.00, 
2040.00, 
2041.00, 
2042.00, 
2043.00, 
2044.00, 
2045.00, 
2046.00, 
2047.00, 
2048.00, 
2049.00, 
2050.00, 
2051.00, 
2052.00, 
2053.00, 
2054.00, 
2055.00, 
2056.00, 
2057.00, 
2058.00, 
2059.00, 
2060.00, 
2061.00, 
2062.00, 
2063.00, 
2064.00, 
2065.00, 
2066.00, 
2067.00, 
2068.00, 
2069.00, 
2070.00, 
2071.00, 
2072.00, 
2073.00, 
2074.00, 
2075.00, 
2076.00, 
2077.00, 
2078.00, 
2079.00, 
2080.00, 
2081.00, 
2082.00, 
2083.00, 
2084.00, 
2085.00, 
2086.00, 
2087.00, 
2088.00, 
2089.00, 
2090.00, 
2091.00, 
2092.00, 
2093.00, 
2094.00, 
2095.00, 
2096.00, 
2097.00, 
2098.00, 
2099.00, 
2100.00, 
2101.00, 
2102.00, 
2103.00, 
2104.00, 
2105.00, 
2106.00, 
2107.00, 
2108.00, 
2109.00, 
2110.00, 
2111.00, 
2112.00, 
2113.00, 
2114.00, 
2115.00, 
2116.00, 
2117.00, 
2118.00, 
2119.00, 
2120.00, 
2121.00, 
2122.00, 
2123.00, 
2124.00, 
2125.00, 
2126.00, 
2127.00, 
2128.00, 
2129.00, 
2130.00, 
2131.00, 
2132.00, 
2133.00, 
2134.00, 
2135.00, 
2136.00, 
2137.00, 
2138.00, 
2139.00, 
2140.00, 
2141.00, 
2142.00, 
2143.00, 
2144.00, 
2145.00, 
2146.00, 
2147.00, 
2148.00, 
2149.00, 
2150.00, 
2151.00, 
2152.00, 
2153.00, 
2154.00, 
2155.00, 
2156.00, 
2157.00, 
2158.00, 
2159.00, 
2160.00, 
2161.00, 
2162.00, 
2163.00, 
2164.00, 
2165.00, 
2166.00, 
2167.00, 
2168.00, 
2169.00, 
2170.00, 
2171.00, 
2172.00, 
2173.00, 
2174.00, 
2175.00, 
2176.00, 
2177.00, 
2178.00, 
2179.00, 
2180.00, 
2181.00, 
2182.00, 
2183.00, 
2184.00, 
2185.00, 
2186.00, 
2187.00, 
2188.00, 
2189.00, 
2190.00, 
2191.00, 
2192.00, 
2193.00, 
2194.00, 
2195.00, 
2196.00, 
2197.00, 
2198.00, 
2199.00, 
2200.00, 
2201.00, 
2202.00, 
2203.00, 
2204.00, 
2205.00, 
2206.00, 
2207.00, 
2208.00, 
2209.00, 
2210.00, 
2211.00, 
2212.00, 
2213.00, 
2214.00, 
2215.00, 
2216.00, 
2217.00, 
2218.00, 
2219.00, 
2220.00, 
2221.00, 
2222.00, 
2223.00, 
2224.00, 
2225.00, 
2226.00, 
2227.00, 
2228.00, 
2229.00, 
2230.00, 
2231.00, 
2232.00, 
2233.00, 
2234.00, 
2235.00, 
2236.00, 
2237.00, 
2238.00, 
2239.00, 
2240.00, 
2241.00, 
2242.00, 
2243.00, 
2244.00, 
2245.00, 
2246.00, 
2247.00, 
2248.00, 
2249.00, 
2250.00, 
2251.00, 
2252.00, 
2253.00, 
2254.00, 
2255.00, 
2256.00, 
2257.00, 
2258.00, 
2259.00, 
2260.00, 
2261.00, 
2262.00, 
2263.00, 
2264.00, 
2265.00, 
2266.00, 
2267.00, 
2268.00, 
2269.00, 
2270.00, 
2271.00, 
2272.00, 
2273.00, 
2274.00, 
2275.00, 
2276.00, 
2277.00, 
2278.00, 
2279.00, 
2280.00, 
2281.00, 
2282.00, 
2283.00, 
2284.00, 
2285.00, 
2286.00, 
2287.00, 
2288.00, 
2289.00, 
2290.00, 
2291.00, 
2292.00, 
2293.00, 
2294.00, 
2295.00, 
2296.00, 
2297.00, 
2298.00, 
2299.00, 
2300.00, 
2301.00, 
2302.00, 
2303.00, 
2304.00, 
2305.00, 
2306.00, 
2307.00, 
2308.00, 
2309.00, 
2310.00, 
2311.00, 
2312.00, 
2313.00, 
2314.00, 
2315.00, 
2316.00, 
2317.00, 
2318.00, 
2319.00, 
2320.00, 
2321.00, 
2322.00, 
2323.00, 
2324.00, 
2325.00, 
2326.00, 
2327.00, 
2328.00, 
2329.00, 
2330.00, 
2331.00, 
2332.00, 
2333.00, 
2334.00, 
2335.00, 
2336.00, 
2337.00, 
2338.00, 
2339.00, 
2340.00, 
2341.00, 
2342.00, 
2343.00, 
2344.00, 
2345.00, 
2346.00, 
2347.00, 
2348.00, 
2349.00, 
2350.00, 
2351.00, 
2352.00, 
2353.00, 
2354.00, 
2355.00, 
2356.00, 
2357.00, 
2358.00, 
2359.00, 
2360.00, 
2361.00, 
2362.00, 
2363.00, 
2364.00, 
2365.00, 
2366.00, 
2367.00, 
2368.00, 
2369.00, 
2370.00, 
2371.00, 
2372.00, 
2373.00, 
2374.00, 
2375.00, 
2376.00, 
2377.00, 
2378.00, 
2379.00, 
2380.00, 
2381.00, 
2382.00, 
2383.00, 
2384.00, 
2385.00, 
2386.00, 
2387.00, 
2388.00, 
2389.00, 
2390.00, 
2391.00, 
2392.00, 
2393.00, 
2394.00, 
2395.00, 
2396.00, 
2397.00, 
2398.00, 
2399.00, 
2400.00, 
2401.00, 
2402.00, 
2403.00, 
2404.00, 
2405.00, 
2406.00, 
2407.00, 
2408.00, 
2409.00, 
2410.00, 
2411.00, 
2412.00, 
2413.00, 
2414.00, 
2415.00, 
2416.00, 
2417.00, 
2418.00, 
2419.00, 
2420.00, 
2421.00, 
2422.00, 
2423.00, 
2424.00, 
2425.00, 
2426.00, 
2427.00, 
2428.00, 
2429.00, 
2430.00, 
2431.00, 
2432.00, 
2433.00, 
2434.00, 
2435.00, 
2436.00, 
2437.00, 
2438.00, 
2439.00, 
2440.00, 
2441.00, 
2442.00, 
2443.00, 
2444.00, 
2445.00, 
2446.00, 
2447.00, 
2448.00, 
2449.00, 
2450.00, 
2451.00, 
2452.00, 
2453.00, 
2454.00, 
2455.00, 
2456.00, 
2457.00, 
2458.00, 
2459.00, 
2460.00, 
2461.00, 
2462.00, 
2463.00, 
2464.00, 
2465.00, 
2466.00, 
2467.00, 
2468.00, 
2469.00, 
2470.00, 
2471.00, 
2472.00, 
2473.00, 
2474.00, 
2475.00, 
2476.00, 
2477.00, 
2478.00, 
2479.00, 
2480.00, 
2481.00, 
2482.00, 
2483.00, 
2484.00, 
2485.00, 
2486.00, 
2487.00, 
2488.00, 
2489.00, 
2490.00, 
2491.00, 
2492.00, 
2493.00, 
2494.00, 
2495.00, 
2496.00, 
2497.00, 
2498.00, 
2499.00, 
2500.00, 
2501.00, 
2502.00, 
2503.00, 
2504.00, 
2505.00, 
2506.00, 
2507.00, 
2508.00, 
2509.00, 
2510.00, 
2511.00, 
2512.00, 
2513.00, 
2514.00, 
2515.00, 
2516.00, 
2517.00, 
2518.00, 
2519.00, 
2520.00, 
2521.00, 
2522.00, 
2523.00, 
2524.00, 
2525.00, 
2526.00, 
2527.00, 
2528.00, 
2529.00, 
2530.00, 
2531.00, 
2532.00, 
2533.00, 
2534.00, 
2535.00, 
2536.00, 
2537.00, 
2538.00, 
2539.00, 
2540.00, 
2541.00, 
2542.00, 
2543.00, 
2544.00, 
2545.00, 
2546.00, 
2547.00, 
2548.00, 
2549.00, 
2550.00, 
2551.00, 
2552.00, 
2553.00, 
2554.00, 
2555.00, 
2556.00, 
2557.00, 
2558.00, 
2559.00, 
2560.00, 
2561.00, 
2562.00, 
2563.00, 
2564.00, 
2565.00, 
2566.00, 
2567.00, 
2568.00, 
2569.00, 
2570.00, 
2571.00, 
2572.00, 
2573.00, 
2574.00, 
2575.00, 
2576.00, 
2577.00, 
2578.00, 
2579.00, 
2580.00, 
2581.00, 
2582.00, 
2583.00, 
2584.00, 
2585.00, 
2586.00, 
2587.00, 
2588.00, 
2589.00, 
2590.00, 
2591.00, 
2592.00, 
2593.00, 
2594.00, 
2595.00, 
2596.00, 
2597.00, 
2598.00, 
2599.00, 
2600.00, 
