"2cP2 - RawData"
"Wavelength nm.","T%"
200.00,0.000
201.00,0.001
202.00,-0.006
203.00,-0.002
204.00,0.001
205.00,0.003
206.00,0.003
207.00,-0.001
208.00,0.006
209.00,0.001
210.00,0.001
211.00,0.004
212.00,0.004
213.00,0.003
214.00,0.001
215.00,-0.000
216.00,0.002
217.00,0.003
218.00,0.003
219.00,0.002
220.00,-0.000
221.00,0.001
222.00,0.002
223.00,0.003
224.00,-0.003
225.00,0.002
226.00,0.000
227.00,-0.001
228.00,-0.001
229.00,0.002
230.00,0.003
231.00,0.001
232.00,0.001
233.00,0.002
234.00,0.000
235.00,0.002
236.00,0.002
237.00,-0.002
238.00,0.000
239.00,0.000
240.00,0.000
241.00,-0.000
242.00,0.002
243.00,0.000
244.00,-0.000
245.00,0.001
246.00,-0.000
247.00,0.001
248.00,0.000
249.00,0.001
250.00,0.001
251.00,0.000
252.00,0.002
253.00,0.002
254.00,-0.002
255.00,-0.001
256.00,-0.000
257.00,-0.002
258.00,-0.001
259.00,0.000
260.00,-0.001
261.00,0.002
262.00,0.001
263.00,0.000
264.00,0.002
265.00,0.001
266.00,-0.000
267.00,-0.001
268.00,0.002
269.00,0.001
270.00,-0.000
271.00,0.001
272.00,0.001
273.00,0.000
274.00,-0.000
275.00,-0.000
276.00,-0.000
277.00,0.001
278.00,0.002
279.00,0.000
280.00,-0.001
281.00,-0.001
282.00,-0.001
283.00,0.001
284.00,0.000
285.00,-0.000
286.00,0.000
287.00,0.002
288.00,-0.000
289.00,-0.002
290.00,-0.001
291.00,0.001
292.00,0.002
293.00,-0.001
294.00,0.000
295.00,0.001
296.00,0.000
297.00,0.000
298.00,0.002
299.00,0.001
300.00,0.005
301.00,0.007
302.00,0.008
303.00,0.013
304.00,0.018
305.00,0.034
306.00,0.048
307.00,0.074
308.00,0.115
309.00,0.182
310.00,0.250
311.00,0.338
312.00,0.469
313.00,0.639
314.00,0.864
315.00,1.068
316.00,1.394
317.00,1.781
318.00,2.196
319.00,2.710
320.00,3.249
321.00,3.914
322.00,4.678
323.00,5.533
324.00,6.403
325.00,7.279
326.00,8.084
327.00,9.269
328.00,10.351
329.00,11.470
330.00,12.654
331.00,13.826
332.00,15.045
333.00,16.335
334.00,17.492
335.00,18.735
336.00,20.032
337.00,21.245
338.00,22.418
339.00,23.579
340.00,24.744
341.00,25.931
342.00,26.931
343.00,27.995
344.00,29.020
345.00,29.949
346.00,30.750
347.00,31.699
348.00,32.529
349.00,33.280
350.00,34.020
351.00,34.747
352.00,35.424
353.00,36.047
354.00,36.721
355.00,37.217
356.00,37.751
357.00,38.315
358.00,38.728
359.00,39.215
360.00,39.622
361.00,39.905
362.00,40.440
363.00,40.754
364.00,41.005
365.00,41.285
366.00,41.594
367.00,41.819
368.00,42.041
369.00,42.173
370.00,42.384
371.00,42.543
372.00,42.628
373.00,42.676
374.00,42.729
375.00,42.742
376.00,42.750
377.00,42.829
378.00,42.788
379.00,42.774
380.00,42.768
381.00,42.865
382.00,42.954
383.00,43.007
384.00,43.163
385.00,43.303
386.00,43.375
387.00,43.568
388.00,43.671
389.00,43.852
390.00,43.903
391.00,44.082
392.00,44.091
393.00,44.248
394.00,44.344
395.00,44.428
396.00,44.507
397.00,44.568
398.00,44.657
399.00,44.681
400.00,44.764
401.00,44.824
402.00,44.823
403.00,44.823
404.00,44.836
405.00,44.950
406.00,44.887
407.00,44.894
408.00,44.740
409.00,44.813
410.00,44.778
411.00,44.729
412.00,44.724
413.00,44.759
414.00,44.700
415.00,44.717
416.00,44.751
417.00,44.733
418.00,44.803
419.00,44.840
420.00,44.841
421.00,44.991
422.00,45.012
423.00,44.965
424.00,44.959
425.00,45.014
426.00,45.059
427.00,45.045
428.00,45.140
429.00,45.138
430.00,45.134
431.00,45.159
432.00,45.151
433.00,45.252
434.00,45.222
435.00,45.322
436.00,45.353
437.00,45.332
438.00,45.359
439.00,45.388
440.00,45.501
441.00,45.520
442.00,45.509
443.00,45.525
444.00,45.594
445.00,45.659
446.00,45.689
447.00,45.784
448.00,45.797
449.00,45.899
450.00,45.937
451.00,46.025
452.00,46.102
453.00,46.087
454.00,46.158
455.00,46.174
456.00,46.255
457.00,46.334
458.00,46.327
459.00,46.443
460.00,46.485
461.00,46.581
462.00,46.637
463.00,46.622
464.00,46.739
465.00,46.785
466.00,46.650
467.00,46.840
468.00,46.921
469.00,47.007
470.00,46.966
471.00,46.998
472.00,47.010
473.00,46.985
474.00,47.032
475.00,47.072
476.00,47.050
477.00,47.102
478.00,47.155
479.00,47.281
480.00,47.335
481.00,47.375
482.00,47.471
483.00,47.544
484.00,47.642
485.00,47.706
486.00,47.801
487.00,47.847
488.00,47.873
489.00,48.044
490.00,48.053
491.00,48.074
492.00,48.203
493.00,48.216
494.00,48.224
495.00,48.317
496.00,48.340
497.00,48.376
498.00,48.453
499.00,48.480
500.00,48.522
501.00,48.596
502.00,48.656
503.00,48.713
504.00,48.737
505.00,48.688
506.00,48.833
507.00,48.770
508.00,48.822
509.00,49.003
510.00,49.039
511.00,49.067
512.00,49.144
513.00,49.181
514.00,49.257
515.00,49.269
516.00,49.304
517.00,49.357
518.00,49.426
519.00,49.397
520.00,49.502
521.00,49.487
522.00,49.466
523.00,49.498
524.00,49.521
525.00,49.550
526.00,49.621
527.00,49.628
528.00,49.661
529.00,49.728
530.00,49.760
531.00,49.938
532.00,49.925
533.00,49.960
534.00,50.023
535.00,50.048
536.00,50.096
537.00,50.102
538.00,50.159
539.00,50.166
540.00,50.213
541.00,50.201
542.00,50.219
543.00,50.248
544.00,50.283
545.00,50.276
546.00,50.275
547.00,50.362
548.00,50.354
549.00,50.422
550.00,50.465
551.00,50.482
552.00,50.466
553.00,50.613
554.00,50.629
555.00,50.644
556.00,50.672
557.00,50.748
558.00,50.797
559.00,50.781
560.00,50.805
561.00,50.854
562.00,50.800
563.00,50.839
564.00,50.885
565.00,50.858
566.00,50.806
567.00,50.856
568.00,50.895
569.00,50.849
570.00,50.835
571.00,50.866
572.00,50.909
573.00,50.930
574.00,50.951
575.00,50.946
576.00,50.889
577.00,51.010
578.00,51.013
579.00,51.040
580.00,51.107
581.00,51.161
582.00,51.245
583.00,51.245
584.00,51.289
585.00,51.310
586.00,51.394
587.00,51.425
588.00,51.402
589.00,51.425
590.00,51.432
591.00,51.433
592.00,51.402
593.00,51.499
594.00,51.495
595.00,51.461
596.00,51.505
597.00,51.507
598.00,51.573
599.00,51.584
600.00,51.678
601.00,51.717
602.00,51.611
603.00,51.657
604.00,51.599
605.00,51.654
606.00,51.676
607.00,51.609
608.00,51.738
609.00,51.711
610.00,51.681
611.00,51.617
612.00,51.694
613.00,51.692
614.00,51.695
615.00,51.708
616.00,51.816
617.00,51.807
618.00,51.780
619.00,51.762
620.00,51.718
621.00,51.741
622.00,51.774
623.00,51.777
624.00,51.718
625.00,51.837
626.00,51.810
627.00,51.784
628.00,51.796
629.00,51.798
630.00,51.779
631.00,51.732
632.00,51.810
633.00,51.776
634.00,51.763
635.00,51.871
636.00,51.875
637.00,51.869
638.00,51.764
639.00,51.785
640.00,51.840
641.00,51.833
642.00,51.944
643.00,51.919
644.00,51.912
645.00,51.932
646.00,51.978
647.00,51.883
648.00,51.977
649.00,52.031
650.00,51.971
651.00,51.928
652.00,51.958
653.00,51.969
654.00,51.975
655.00,51.981
656.00,52.048
657.00,51.994
658.00,52.042
659.00,52.219
660.00,51.945
661.00,51.923
662.00,52.005
663.00,51.912
664.00,52.396
665.00,52.074
666.00,52.044
667.00,52.170
668.00,52.173
669.00,52.184
670.00,52.165
671.00,52.077
672.00,51.999
673.00,52.178
674.00,52.110
675.00,52.114
676.00,52.195
677.00,52.161
678.00,52.023
679.00,52.113
680.00,52.114
681.00,52.155
682.00,52.147
683.00,52.123
684.00,52.199
685.00,51.991
686.00,52.083
687.00,52.146
688.00,52.089
689.00,52.051
690.00,52.029
691.00,52.127
692.00,52.033
693.00,51.993
694.00,52.055
695.00,52.118
696.00,52.159
697.00,52.163
698.00,52.065
699.00,52.068
700.00,52.172
701.00,52.067
702.00,52.088
703.00,52.082
704.00,52.002
705.00,52.028
706.00,52.048
707.00,52.001
708.00,51.847
709.00,52.131
710.00,52.207
711.00,51.916
712.00,51.969
713.00,52.005
714.00,51.828
715.00,51.824
716.00,51.903
717.00,51.977
718.00,51.838
719.00,51.879
720.00,51.875
721.00,56.248
722.00,56.134
723.00,56.019
724.00,56.004
725.00,55.948
726.00,55.894
727.00,55.863
728.00,55.744
729.00,55.687
730.00,55.614
731.00,55.580
732.00,55.596
733.00,55.472
734.00,55.506
735.00,55.451
736.00,55.418
737.00,55.278
738.00,55.393
739.00,55.348
740.00,55.294
741.00,55.250
742.00,55.229
743.00,55.147
744.00,55.007
745.00,54.980
746.00,55.078
747.00,54.922
748.00,54.891
749.00,54.801
750.00,54.698
751.00,54.637
752.00,54.665
753.00,54.548
754.00,54.567
755.00,54.525
756.00,54.514
757.00,54.433
758.00,54.271
759.00,54.370
760.00,54.265
761.00,54.282
762.00,54.181
763.00,54.214
764.00,54.123
765.00,54.172
766.00,54.138
767.00,54.055
768.00,53.957
769.00,53.979
770.00,53.986
771.00,53.980
772.00,53.904
773.00,53.864
774.00,53.821
775.00,53.757
776.00,53.771
777.00,53.817
778.00,53.766
779.00,53.725
780.00,53.659
781.00,53.552
782.00,53.626
783.00,53.576
784.00,53.508
785.00,53.395
786.00,53.396
787.00,53.323
788.00,53.336
789.00,53.380
790.00,53.228
791.00,53.157
792.00,53.149
793.00,53.122
794.00,53.135
795.00,53.131
796.00,53.115
797.00,52.984
798.00,52.926
799.00,52.902
800.00,52.840
801.00,52.866
802.00,52.856
803.00,52.779
804.00,52.745
805.00,52.741
806.00,52.697
807.00,52.564
808.00,52.623
809.00,52.619
810.00,52.466
811.00,52.496
812.00,52.481
813.00,52.430
814.00,52.432
815.00,52.414
816.00,52.379
817.00,52.314
818.00,52.321
819.00,52.258
820.00,52.172
821.00,52.194
822.00,52.113
823.00,52.138
824.00,52.143
825.00,52.072
826.00,51.999
827.00,52.115
828.00,51.976
829.00,51.934
830.00,51.908
831.00,54.556
832.00,54.497
833.00,54.438
834.00,54.461
835.00,54.386
836.00,54.397
837.00,54.363
838.00,54.340
839.00,54.323
840.00,54.257
841.00,54.239
842.00,54.184
843.00,54.191
844.00,54.160
845.00,54.158
846.00,53.970
847.00,54.062
848.00,54.038
849.00,53.994
850.00,53.923
851.00,53.860
852.00,53.873
853.00,53.799
854.00,53.767
855.00,53.715
856.00,53.683
857.00,53.650
858.00,53.643
859.00,53.595
860.00,53.559
861.00,53.556
862.00,53.503
863.00,53.508
864.00,53.457
865.00,53.484
866.00,53.452
867.00,53.444
868.00,53.383
869.00,53.366
870.00,53.367
871.00,53.357
872.00,53.337
873.00,53.321
874.00,53.295
875.00,53.271
876.00,53.239
877.00,53.254
878.00,53.215
879.00,53.202
880.00,53.172
881.00,53.160
882.00,53.140
883.00,53.125
884.00,53.045
885.00,53.065
886.00,53.130
887.00,52.989
888.00,52.974
889.00,52.936
890.00,52.938
891.00,52.913
892.00,52.877
893.00,52.840
894.00,52.838
895.00,52.776
896.00,52.766
897.00,52.756
898.00,52.724
899.00,52.714
900.00,52.690
901.00,52.668
902.00,52.675
903.00,52.615
904.00,52.637
905.00,52.603
906.00,52.585
907.00,52.551
908.00,52.514
909.00,52.496
910.00,52.472
911.00,52.460
912.00,52.463
913.00,52.387
914.00,52.376
915.00,52.368
916.00,52.342
917.00,52.304
918.00,52.301
919.00,52.269
920.00,52.273
921.00,52.196
922.00,52.301
923.00,52.158
924.00,52.113
925.00,52.179
926.00,52.099
927.00,52.075
928.00,52.069
929.00,52.054
930.00,52.024
931.00,52.031
932.00,51.989
933.00,51.983
934.00,51.965
935.00,51.922
936.00,51.924
937.00,51.904
938.00,51.865
939.00,51.860
940.00,51.807
941.00,51.806
942.00,51.788
943.00,51.794
944.00,51.739
945.00,51.733
946.00,51.703
947.00,51.694
948.00,51.670
949.00,51.645
950.00,51.629
951.00,51.604
952.00,51.553
953.00,51.528
954.00,51.499
955.00,51.457
956.00,51.443
957.00,51.421
958.00,51.438
959.00,51.378
960.00,51.363
961.00,51.348
962.00,51.355
963.00,51.300
964.00,51.322
965.00,51.371
966.00,51.266
967.00,51.275
968.00,51.261
969.00,51.282
970.00,51.217
971.00,51.264
972.00,51.223
973.00,51.232
974.00,51.257
975.00,51.245
976.00,51.253
977.00,51.234
978.00,51.263
979.00,51.224
980.00,51.254
981.00,51.248
982.00,51.224
983.00,51.224
984.00,51.221
985.00,51.261
986.00,51.174
987.00,51.177
988.00,51.171
989.00,51.150
990.00,51.138
991.00,51.132
992.00,51.139
993.00,51.091
994.00,51.094
995.00,51.083
996.00,51.061
997.00,51.068
998.00,51.021
999.00,51.040
1000.00,50.987
1001.00,50.999
1002.00,50.997
1003.00,50.976
1004.00,50.964
1005.00,50.951
1006.00,50.955
1007.00,50.926
1008.00,50.920
1009.00,50.902
1010.00,50.883
1011.00,50.874
1012.00,50.829
1013.00,50.849
1014.00,50.798
1015.00,50.812
1016.00,50.777
1017.00,50.767
1018.00,50.751
1019.00,50.735
1020.00,50.729
1021.00,50.707
1022.00,50.703
1023.00,50.660
1024.00,50.673
1025.00,50.663
1026.00,50.644
1027.00,50.630
1028.00,50.615
1029.00,50.595
1030.00,50.563
1031.00,50.553
1032.00,50.511
1033.00,50.522
1034.00,50.485
1035.00,50.460
1036.00,50.437
1037.00,50.428
1038.00,50.428
1039.00,50.391
1040.00,50.380
1041.00,50.348
1042.00,50.338
1043.00,50.309
1044.00,50.333
1045.00,50.296
1046.00,50.310
1047.00,50.311
1048.00,50.307
1049.00,50.334
1050.00,50.326
1051.00,50.344
1052.00,50.373
1053.00,50.379
1054.00,50.379
1055.00,50.398
1056.00,50.397
1057.00,50.420
1058.00,50.400
1059.00,50.394
1060.00,50.393
1061.00,50.379
1062.00,50.360
1063.00,50.388
1064.00,50.360
1065.00,50.353
1066.00,50.337
1067.00,50.325
1068.00,50.349
1069.00,50.327
1070.00,50.295
1071.00,50.284
1072.00,50.299
1073.00,50.261
1074.00,50.271
1075.00,50.248
1076.00,50.237
1077.00,50.232
1078.00,50.195
1079.00,50.212
1080.00,50.223
1081.00,50.187
1082.00,50.195
1083.00,50.180
1084.00,50.166
1085.00,50.179
1086.00,50.175
1087.00,50.155
1088.00,50.148
1089.00,50.127
1090.00,50.142
1091.00,50.143
1092.00,50.105
1093.00,50.086
1094.00,50.071
1095.00,50.057
1096.00,50.067
1097.00,50.050
1098.00,50.043
1099.00,50.036
1100.00,50.027
1101.00,50.022
1102.00,50.013
1103.00,49.995
1104.00,49.994
1105.00,49.973
1106.00,49.971
1107.00,49.967
1108.00,49.943
1109.00,49.930
1110.00,49.940
1111.00,49.921
1112.00,49.928
1113.00,49.903
1114.00,49.891
1115.00,49.906
1116.00,49.894
1117.00,49.868
1118.00,49.884
1119.00,49.871
1120.00,49.867
1121.00,49.856
1122.00,49.817
1123.00,49.830
1124.00,49.827
1125.00,49.815
1126.00,49.833
1127.00,49.816
1128.00,49.798
1129.00,49.783
1130.00,49.774
1131.00,49.776
1132.00,49.772
1133.00,49.761
1134.00,49.762
1135.00,49.757
1136.00,49.738
1137.00,49.745
1138.00,49.744
1139.00,49.728
1140.00,49.735
1141.00,49.711
1142.00,49.694
1143.00,49.703
1144.00,49.687
1145.00,49.709
1146.00,49.697
1147.00,49.684
1148.00,49.693
1149.00,49.701
1150.00,49.689
1151.00,49.699
1152.00,49.687
1153.00,49.687
1154.00,49.662
1155.00,49.665
1156.00,49.659
1157.00,49.661
1158.00,49.648
1159.00,49.665
1160.00,49.647
1161.00,49.655
1162.00,49.659
1163.00,49.652
1164.00,49.630
1165.00,49.623
1166.00,49.626
1167.00,49.631
1168.00,49.641
1169.00,49.627
1170.00,49.647
1171.00,49.619
1172.00,49.615
1173.00,49.622
1174.00,49.617
1175.00,49.613
1176.00,49.617
1177.00,49.600
1178.00,49.618
1179.00,49.624
1180.00,49.593
1181.00,49.621
1182.00,49.609
1183.00,49.596
1184.00,49.601
1185.00,49.599
1186.00,49.580
1187.00,49.588
1188.00,49.563
1189.00,49.581
1190.00,49.570
1191.00,49.564
1192.00,49.597
1193.00,49.569
1194.00,49.587
1195.00,49.582
1196.00,49.597
1197.00,49.591
1198.00,49.580
1199.00,49.590
1200.00,49.598
1201.00,49.598
1202.00,49.561
1203.00,49.577
1204.00,49.557
1205.00,49.569
1206.00,49.578
1207.00,49.570
1208.00,49.553
1209.00,49.565
1210.00,49.568
1211.00,49.574
1212.00,49.591
1213.00,49.540
1214.00,49.568
1215.00,49.558
1216.00,49.549
1217.00,49.567
1218.00,49.547
1219.00,49.554
1220.00,49.549
1221.00,49.550
1222.00,49.554
1223.00,49.561
1224.00,49.546
1225.00,49.563
1226.00,49.560
1227.00,49.537
1228.00,49.560
1229.00,49.561
1230.00,49.596
1231.00,49.592
1232.00,49.590
1233.00,49.597
1234.00,49.603
1235.00,49.587
1236.00,49.607
1237.00,49.595
1238.00,49.596
1239.00,49.620
1240.00,49.594
1241.00,49.608
1242.00,49.607
1243.00,49.622
1244.00,49.606
1245.00,49.626
1246.00,49.626
1247.00,49.629
1248.00,49.625
1249.00,49.618
1250.00,49.640
1251.00,49.627
1252.00,49.640
1253.00,49.643
1254.00,49.644
1255.00,49.660
1256.00,49.646
1257.00,49.608
1258.00,49.678
1259.00,49.663
1260.00,49.671
1261.00,49.681
1262.00,49.677
1263.00,49.664
1264.00,49.671
1265.00,49.662
1266.00,49.677
1267.00,49.679
1268.00,49.696
1269.00,49.698
1270.00,49.693
1271.00,49.689
1272.00,49.716
1273.00,49.712
1274.00,49.702
1275.00,49.703
1276.00,49.711
1277.00,49.720
1278.00,49.739
1279.00,49.722
1280.00,49.736
1281.00,49.744
1282.00,49.739
1283.00,49.751
1284.00,49.733
1285.00,49.737
1286.00,49.757
1287.00,49.737
1288.00,49.751
1289.00,49.760
1290.00,49.765
1291.00,49.781
1292.00,49.783
1293.00,49.765
1294.00,49.791
1295.00,49.796
1296.00,49.796
1297.00,49.806
1298.00,49.812
1299.00,49.814
1300.00,49.821
1301.00,49.814
1302.00,49.841
1303.00,49.854
1304.00,49.818
1305.00,49.857
1306.00,49.850
1307.00,49.856
1308.00,49.854
1309.00,49.855
1310.00,49.863
1311.00,49.851
1312.00,49.843
1313.00,49.864
1314.00,49.881
1315.00,49.885
1316.00,49.898
1317.00,49.900
1318.00,49.891
1319.00,49.903
1320.00,49.922
1321.00,50.077
1322.00,50.096
1323.00,50.069
1324.00,50.083
1325.00,50.060
1326.00,50.090
1327.00,50.079
1328.00,50.068
1329.00,50.088
1330.00,50.090
1331.00,50.070
1332.00,50.072
1333.00,50.100
1334.00,50.129
1335.00,50.120
1336.00,50.141
1337.00,50.176
1338.00,50.247
1339.00,50.276
1340.00,50.339
1341.00,50.395
1342.00,50.470
1343.00,50.533
1344.00,50.566
1345.00,50.622
1346.00,50.675
1347.00,50.682
1348.00,50.724
1349.00,50.748
1350.00,50.758
1351.00,50.736
1352.00,50.753
1353.00,50.746
1354.00,50.786
1355.00,50.723
1356.00,50.796
1357.00,50.788
1358.00,50.800
1359.00,50.832
1360.00,50.886
1361.00,50.734
1362.00,50.745
1363.00,50.888
1364.00,50.840
1365.00,50.809
1366.00,50.835
1367.00,50.803
1368.00,50.776
1369.00,50.817
1370.00,50.777
1371.00,50.739
1372.00,50.764
1373.00,50.777
1374.00,50.802
1375.00,50.768
1376.00,50.796
1377.00,50.771
1378.00,50.833
1379.00,50.794
1380.00,50.781
1381.00,50.806
1382.00,50.792
1383.00,50.780
1384.00,50.769
1385.00,50.755
1386.00,50.786
1387.00,50.744
1388.00,50.733
1389.00,50.692
1390.00,50.828
1391.00,50.703
1392.00,50.749
1393.00,50.806
1394.00,50.785
1395.00,50.728
1396.00,50.718
1397.00,50.682
1398.00,50.806
1399.00,50.814
1400.00,50.771
1401.00,50.770
1402.00,50.831
1403.00,50.767
1404.00,50.766
1405.00,50.808
1406.00,50.780
1407.00,50.814
1408.00,50.855
1409.00,50.770
1410.00,50.844
1411.00,50.633
1412.00,50.890
1413.00,50.834
1414.00,50.848
1415.00,50.878
1416.00,50.880
1417.00,50.909
1418.00,50.898
1419.00,50.860
1420.00,50.917
1421.00,50.936
1422.00,50.924
1423.00,50.932
1424.00,50.953
1425.00,50.969
1426.00,51.029
1427.00,51.044
1428.00,51.006
1429.00,51.011
1430.00,51.029
1431.00,51.041
1432.00,51.055
1433.00,51.074
1434.00,51.060
1435.00,51.121
1436.00,51.124
1437.00,51.119
1438.00,51.111
1439.00,51.157
1440.00,51.178
1441.00,51.168
1442.00,51.202
1443.00,51.206
1444.00,51.247
1445.00,51.229
1446.00,51.226
1447.00,51.270
1448.00,51.283
1449.00,51.292
1450.00,51.293
1451.00,51.322
1452.00,51.325
1453.00,51.347
1454.00,51.352
1455.00,51.383
1456.00,51.401
1457.00,51.391
1458.00,51.421
1459.00,51.438
1460.00,51.439
1461.00,51.458
1462.00,51.487
1463.00,51.481
1464.00,51.488
1465.00,51.516
1466.00,51.532
1467.00,51.528
1468.00,51.569
1469.00,51.573
1470.00,51.577
1471.00,51.591
1472.00,51.613
1473.00,51.614
1474.00,51.638
1475.00,51.648
1476.00,51.671
1477.00,51.660
1478.00,51.681
1479.00,51.693
1480.00,51.709
1481.00,51.729
1482.00,51.742
1483.00,51.749
1484.00,51.766
1485.00,51.763
1486.00,51.778
1487.00,51.794
1488.00,51.795
1489.00,51.794
1490.00,51.803
1491.00,51.826
1492.00,51.849
1493.00,51.839
1494.00,51.853
1495.00,51.871
1496.00,51.869
1497.00,51.890
1498.00,51.883
1499.00,51.896
1500.00,51.921
1501.00, 
1502.00, 
1503.00, 
1504.00, 
1505.00, 
1506.00, 
1507.00, 
1508.00, 
1509.00, 
1510.00, 
1511.00, 
1512.00, 
1513.00, 
1514.00, 
1515.00, 
1516.00, 
1517.00, 
1518.00, 
1519.00, 
1520.00, 
1521.00, 
1522.00, 
1523.00, 
1524.00, 
1525.00, 
1526.00, 
1527.00, 
1528.00, 
1529.00, 
1530.00, 
1531.00, 
1532.00, 
1533.00, 
1534.00, 
1535.00, 
1536.00, 
1537.00, 
1538.00, 
1539.00, 
1540.00, 
1541.00, 
1542.00, 
1543.00, 
1544.00, 
1545.00, 
1546.00, 
1547.00, 
1548.00, 
1549.00, 
1550.00, 
1551.00, 
1552.00, 
1553.00, 
1554.00, 
1555.00, 
1556.00, 
1557.00, 
1558.00, 
1559.00, 
1560.00, 
1561.00, 
1562.00, 
1563.00, 
1564.00, 
1565.00, 
1566.00, 
1567.00, 
1568.00, 
1569.00, 
1570.00, 
1571.00, 
1572.00, 
1573.00, 
1574.00, 
1575.00, 
1576.00, 
1577.00, 
1578.00, 
1579.00, 
1580.00, 
1581.00, 
1582.00, 
1583.00, 
1584.00, 
1585.00, 
1586.00, 
1587.00, 
1588.00, 
1589.00, 
1590.00, 
1591.00, 
1592.00, 
1593.00, 
1594.00, 
1595.00, 
1596.00, 
1597.00, 
1598.00, 
1599.00, 
1600.00, 
1601.00, 
1602.00, 
1603.00, 
1604.00, 
1605.00, 
1606.00, 
1607.00, 
1608.00, 
1609.00, 
1610.00, 
1611.00, 
1612.00, 
1613.00, 
1614.00, 
1615.00, 
1616.00, 
1617.00, 
1618.00, 
1619.00, 
1620.00, 
1621.00, 
1622.00, 
1623.00, 
1624.00, 
1625.00, 
1626.00, 
1627.00, 
1628.00, 
1629.00, 
1630.00, 
1631.00, 
1632.00, 
1633.00, 
1634.00, 
1635.00, 
1636.00, 
1637.00, 
1638.00, 
1639.00, 
1640.00, 
1641.00, 
1642.00, 
1643.00, 
1644.00, 
1645.00, 
1646.00, 
1647.00, 
1648.00, 
1649.00, 
1650.00, 
1651.00, 
1652.00, 
1653.00, 
1654.00, 
1655.00, 
1656.00, 
1657.00, 
1658.00, 
1659.00, 
1660.00, 
1661.00, 
1662.00, 
1663.00, 
1664.00, 
1665.00, 
1666.00, 
1667.00, 
1668.00, 
1669.00, 
1670.00, 
1671.00, 
1672.00, 
1673.00, 
1674.00, 
1675.00, 
1676.00, 
1677.00, 
1678.00, 
1679.00, 
1680.00, 
1681.00, 
1682.00, 
1683.00, 
1684.00, 
1685.00, 
1686.00, 
1687.00, 
1688.00, 
1689.00, 
1690.00, 
1691.00, 
1692.00, 
1693.00, 
1694.00, 
1695.00, 
1696.00, 
1697.00, 
1698.00, 
1699.00, 
1700.00, 
1701.00, 
1702.00, 
1703.00, 
1704.00, 
1705.00, 
1706.00, 
1707.00, 
1708.00, 
1709.00, 
1710.00, 
1711.00, 
1712.00, 
1713.00, 
1714.00, 
1715.00, 
1716.00, 
1717.00, 
1718.00, 
1719.00, 
1720.00, 
1721.00, 
1722.00, 
1723.00, 
1724.00, 
1725.00, 
1726.00, 
1727.00, 
1728.00, 
1729.00, 
1730.00, 
1731.00, 
1732.00, 
1733.00, 
1734.00, 
1735.00, 
1736.00, 
1737.00, 
1738.00, 
1739.00, 
1740.00, 
1741.00, 
1742.00, 
1743.00, 
1744.00, 
1745.00, 
1746.00, 
1747.00, 
1748.00, 
1749.00, 
1750.00, 
1751.00, 
1752.00, 
1753.00, 
1754.00, 
1755.00, 
1756.00, 
1757.00, 
1758.00, 
1759.00, 
1760.00, 
1761.00, 
1762.00, 
1763.00, 
1764.00, 
1765.00, 
1766.00, 
1767.00, 
1768.00, 
1769.00, 
1770.00, 
1771.00, 
1772.00, 
1773.00, 
1774.00, 
1775.00, 
1776.00, 
1777.00, 
1778.00, 
1779.00, 
1780.00, 
1781.00, 
1782.00, 
1783.00, 
1784.00, 
1785.00, 
1786.00, 
1787.00, 
1788.00, 
1789.00, 
1790.00, 
1791.00, 
1792.00, 
1793.00, 
1794.00, 
1795.00, 
1796.00, 
1797.00, 
1798.00, 
1799.00, 
1800.00, 
1801.00, 
1802.00, 
1803.00, 
1804.00, 
1805.00, 
1806.00, 
1807.00, 
1808.00, 
1809.00, 
1810.00, 
1811.00, 
1812.00, 
1813.00, 
1814.00, 
1815.00, 
1816.00, 
1817.00, 
1818.00, 
1819.00, 
1820.00, 
1821.00, 
1822.00, 
1823.00, 
1824.00, 
1825.00, 
1826.00, 
1827.00, 
1828.00, 
1829.00, 
1830.00, 
1831.00, 
1832.00, 
1833.00, 
1834.00, 
1835.00, 
1836.00, 
1837.00, 
1838.00, 
1839.00, 
1840.00, 
1841.00, 
1842.00, 
1843.00, 
1844.00, 
1845.00, 
1846.00, 
1847.00, 
1848.00, 
1849.00, 
1850.00, 
1851.00, 
1852.00, 
1853.00, 
1854.00, 
1855.00, 
1856.00, 
1857.00, 
1858.00, 
1859.00, 
1860.00, 
1861.00, 
1862.00, 
1863.00, 
1864.00, 
1865.00, 
1866.00, 
1867.00, 
1868.00, 
1869.00, 
1870.00, 
1871.00, 
1872.00, 
1873.00, 
1874.00, 
1875.00, 
1876.00, 
1877.00, 
1878.00, 
1879.00, 
1880.00, 
1881.00, 
1882.00, 
1883.00, 
1884.00, 
1885.00, 
1886.00, 
1887.00, 
1888.00, 
1889.00, 
1890.00, 
1891.00, 
1892.00, 
1893.00, 
1894.00, 
1895.00, 
1896.00, 
1897.00, 
1898.00, 
1899.00, 
1900.00, 
1901.00, 
1902.00, 
1903.00, 
1904.00, 
1905.00, 
1906.00, 
1907.00, 
1908.00, 
1909.00, 
1910.00, 
1911.00, 
1912.00, 
1913.00, 
1914.00, 
1915.00, 
1916.00, 
1917.00, 
1918.00, 
1919.00, 
1920.00, 
1921.00, 
1922.00, 
1923.00, 
1924.00, 
1925.00, 
1926.00, 
1927.00, 
1928.00, 
1929.00, 
1930.00, 
1931.00, 
1932.00, 
1933.00, 
1934.00, 
1935.00, 
1936.00, 
1937.00, 
1938.00, 
1939.00, 
1940.00, 
1941.00, 
1942.00, 
1943.00, 
1944.00, 
1945.00, 
1946.00, 
1947.00, 
1948.00, 
1949.00, 
1950.00, 
1951.00, 
1952.00, 
1953.00, 
1954.00, 
1955.00, 
1956.00, 
1957.00, 
1958.00, 
1959.00, 
1960.00, 
1961.00, 
1962.00, 
1963.00, 
1964.00, 
1965.00, 
1966.00, 
1967.00, 
1968.00, 
1969.00, 
1970.00, 
1971.00, 
1972.00, 
1973.00, 
1974.00, 
1975.00, 
1976.00, 
1977.00, 
1978.00, 
1979.00, 
1980.00, 
1981.00, 
1982.00, 
1983.00, 
1984.00, 
1985.00, 
1986.00, 
1987.00, 
1988.00, 
1989.00, 
1990.00, 
1991.00, 
1992.00, 
1993.00, 
1994.00, 
1995.00, 
1996.00, 
1997.00, 
1998.00, 
1999.00, 
2000.00, 
2001.00, 
2002.00, 
2003.00, 
2004.00, 
2005.00, 
2006.00, 
2007.00, 
2008.00, 
2009.00, 
2010.00, 
2011.00, 
2012.00, 
2013.00, 
2014.00, 
2015.00, 
2016.00, 
2017.00, 
2018.00, 
2019.00, 
2020.00, 
2021.00, 
2022.00, 
2023.00, 
2024.00, 
2025.00, 
2026.00, 
2027.00, 
2028.00, 
2029.00, 
2030.00, 
2031.00, 
2032.00, 
2033.00, 
2034.00, 
2035.00, 
2036.00, 
2037.00, 
2038.00, 
2039.00, 
2040.00, 
2041.00, 
2042.00, 
2043.00, 
2044.00, 
2045.00, 
2046.00, 
2047.00, 
2048.00, 
2049.00, 
2050.00, 
2051.00, 
2052.00, 
2053.00, 
2054.00, 
2055.00, 
2056.00, 
2057.00, 
2058.00, 
2059.00, 
2060.00, 
2061.00, 
2062.00, 
2063.00, 
2064.00, 
2065.00, 
2066.00, 
2067.00, 
2068.00, 
2069.00, 
2070.00, 
2071.00, 
2072.00, 
2073.00, 
2074.00, 
2075.00, 
2076.00, 
2077.00, 
2078.00, 
2079.00, 
2080.00, 
2081.00, 
2082.00, 
2083.00, 
2084.00, 
2085.00, 
2086.00, 
2087.00, 
2088.00, 
2089.00, 
2090.00, 
2091.00, 
2092.00, 
2093.00, 
2094.00, 
2095.00, 
2096.00, 
2097.00, 
2098.00, 
2099.00, 
2100.00, 
2101.00, 
2102.00, 
2103.00, 
2104.00, 
2105.00, 
2106.00, 
2107.00, 
2108.00, 
2109.00, 
2110.00, 
2111.00, 
2112.00, 
2113.00, 
2114.00, 
2115.00, 
2116.00, 
2117.00, 
2118.00, 
2119.00, 
2120.00, 
2121.00, 
2122.00, 
2123.00, 
2124.00, 
2125.00, 
2126.00, 
2127.00, 
2128.00, 
2129.00, 
2130.00, 
2131.00, 
2132.00, 
2133.00, 
2134.00, 
2135.00, 
2136.00, 
2137.00, 
2138.00, 
2139.00, 
2140.00, 
2141.00, 
2142.00, 
2143.00, 
2144.00, 
2145.00, 
2146.00, 
2147.00, 
2148.00, 
2149.00, 
2150.00, 
2151.00, 
2152.00, 
2153.00, 
2154.00, 
2155.00, 
2156.00, 
2157.00, 
2158.00, 
2159.00, 
2160.00, 
2161.00, 
2162.00, 
2163.00, 
2164.00, 
2165.00, 
2166.00, 
2167.00, 
2168.00, 
2169.00, 
2170.00, 
2171.00, 
2172.00, 
2173.00, 
2174.00, 
2175.00, 
2176.00, 
2177.00, 
2178.00, 
2179.00, 
2180.00, 
2181.00, 
2182.00, 
2183.00, 
2184.00, 
2185.00, 
2186.00, 
2187.00, 
2188.00, 
2189.00, 
2190.00, 
2191.00, 
2192.00, 
2193.00, 
2194.00, 
2195.00, 
2196.00, 
2197.00, 
2198.00, 
2199.00, 
2200.00, 
2201.00, 
2202.00, 
2203.00, 
2204.00, 
2205.00, 
2206.00, 
2207.00, 
2208.00, 
2209.00, 
2210.00, 
2211.00, 
2212.00, 
2213.00, 
2214.00, 
2215.00, 
2216.00, 
2217.00, 
2218.00, 
2219.00, 
2220.00, 
2221.00, 
2222.00, 
2223.00, 
2224.00, 
2225.00, 
2226.00, 
2227.00, 
2228.00, 
2229.00, 
2230.00, 
2231.00, 
2232.00, 
2233.00, 
2234.00, 
2235.00, 
2236.00, 
2237.00, 
2238.00, 
2239.00, 
2240.00, 
2241.00, 
2242.00, 
2243.00, 
2244.00, 
2245.00, 
2246.00, 
2247.00, 
2248.00, 
2249.00, 
2250.00, 
2251.00, 
2252.00, 
2253.00, 
2254.00, 
2255.00, 
2256.00, 
2257.00, 
2258.00, 
2259.00, 
2260.00, 
2261.00, 
2262.00, 
2263.00, 
2264.00, 
2265.00, 
2266.00, 
2267.00, 
2268.00, 
2269.00, 
2270.00, 
2271.00, 
2272.00, 
2273.00, 
2274.00, 
2275.00, 
2276.00, 
2277.00, 
2278.00, 
2279.00, 
2280.00, 
2281.00, 
2282.00, 
2283.00, 
2284.00, 
2285.00, 
2286.00, 
2287.00, 
2288.00, 
2289.00, 
2290.00, 
2291.00, 
2292.00, 
2293.00, 
2294.00, 
2295.00, 
2296.00, 
2297.00, 
2298.00, 
2299.00, 
2300.00, 
2301.00, 
2302.00, 
2303.00, 
2304.00, 
2305.00, 
2306.00, 
2307.00, 
2308.00, 
2309.00, 
2310.00, 
2311.00, 
2312.00, 
2313.00, 
2314.00, 
2315.00, 
2316.00, 
2317.00, 
2318.00, 
2319.00, 
2320.00, 
2321.00, 
2322.00, 
2323.00, 
2324.00, 
2325.00, 
2326.00, 
2327.00, 
2328.00, 
2329.00, 
2330.00, 
2331.00, 
2332.00, 
2333.00, 
2334.00, 
2335.00, 
2336.00, 
2337.00, 
2338.00, 
2339.00, 
2340.00, 
2341.00, 
2342.00, 
2343.00, 
2344.00, 
2345.00, 
2346.00, 
2347.00, 
2348.00, 
2349.00, 
2350.00, 
2351.00, 
2352.00, 
2353.00, 
2354.00, 
2355.00, 
2356.00, 
2357.00, 
2358.00, 
2359.00, 
2360.00, 
2361.00, 
2362.00, 
2363.00, 
2364.00, 
2365.00, 
2366.00, 
2367.00, 
2368.00, 
2369.00, 
2370.00, 
2371.00, 
2372.00, 
2373.00, 
2374.00, 
2375.00, 
2376.00, 
2377.00, 
2378.00, 
2379.00, 
2380.00, 
2381.00, 
2382.00, 
2383.00, 
2384.00, 
2385.00, 
2386.00, 
2387.00, 
2388.00, 
2389.00, 
2390.00, 
2391.00, 
2392.00, 
2393.00, 
2394.00, 
2395.00, 
2396.00, 
2397.00, 
2398.00, 
2399.00, 
2400.00, 
2401.00, 
2402.00, 
2403.00, 
2404.00, 
2405.00, 
2406.00, 
2407.00, 
2408.00, 
2409.00, 
2410.00, 
2411.00, 
2412.00, 
2413.00, 
2414.00, 
2415.00, 
2416.00, 
2417.00, 
2418.00, 
2419.00, 
2420.00, 
2421.00, 
2422.00, 
2423.00, 
2424.00, 
2425.00, 
2426.00, 
2427.00, 
2428.00, 
2429.00, 
2430.00, 
2431.00, 
2432.00, 
2433.00, 
2434.00, 
2435.00, 
2436.00, 
2437.00, 
2438.00, 
2439.00, 
2440.00, 
2441.00, 
2442.00, 
2443.00, 
2444.00, 
2445.00, 
2446.00, 
2447.00, 
2448.00, 
2449.00, 
2450.00, 
2451.00, 
2452.00, 
2453.00, 
2454.00, 
2455.00, 
2456.00, 
2457.00, 
2458.00, 
2459.00, 
2460.00, 
2461.00, 
2462.00, 
2463.00, 
2464.00, 
2465.00, 
2466.00, 
2467.00, 
2468.00, 
2469.00, 
2470.00, 
2471.00, 
2472.00, 
2473.00, 
2474.00, 
2475.00, 
2476.00, 
2477.00, 
2478.00, 
2479.00, 
2480.00, 
2481.00, 
2482.00, 
2483.00, 
2484.00, 
2485.00, 
2486.00, 
2487.00, 
2488.00, 
2489.00, 
2490.00, 
2491.00, 
2492.00, 
2493.00, 
2494.00, 
2495.00, 
2496.00, 
2497.00, 
2498.00, 
2499.00, 
2500.00, 
2501.00, 
2502.00, 
2503.00, 
2504.00, 
2505.00, 
2506.00, 
2507.00, 
2508.00, 
2509.00, 
2510.00, 
2511.00, 
2512.00, 
2513.00, 
2514.00, 
2515.00, 
2516.00, 
2517.00, 
2518.00, 
2519.00, 
2520.00, 
2521.00, 
2522.00, 
2523.00, 
2524.00, 
2525.00, 
2526.00, 
2527.00, 
2528.00, 
2529.00, 
2530.00, 
2531.00, 
2532.00, 
2533.00, 
2534.00, 
2535.00, 
2536.00, 
2537.00, 
2538.00, 
2539.00, 
2540.00, 
2541.00, 
2542.00, 
2543.00, 
2544.00, 
2545.00, 
2546.00, 
2547.00, 
2548.00, 
2549.00, 
2550.00, 
2551.00, 
2552.00, 
2553.00, 
2554.00, 
2555.00, 
2556.00, 
2557.00, 
2558.00, 
2559.00, 
2560.00, 
2561.00, 
2562.00, 
2563.00, 
2564.00, 
2565.00, 
2566.00, 
2567.00, 
2568.00, 
2569.00, 
2570.00, 
2571.00, 
2572.00, 
2573.00, 
2574.00, 
2575.00, 
2576.00, 
2577.00, 
2578.00, 
2579.00, 
2580.00, 
2581.00, 
2582.00, 
2583.00, 
2584.00, 
2585.00, 
2586.00, 
2587.00, 
2588.00, 
2589.00, 
2590.00, 
2591.00, 
2592.00, 
2593.00, 
2594.00, 
2595.00, 
2596.00, 
2597.00, 
2598.00, 
2599.00, 
2600.00, 
