"2cP3 - RawData"
"Wavelength nm.","T%"
200.00,0.002
201.00,0.001
202.00,0.003
203.00,0.002
204.00,0.002
205.00,0.004
206.00,0.001
207.00,0.001
208.00,-0.003
209.00,0.001
210.00,0.004
211.00,0.005
212.00,0.001
213.00,-0.001
214.00,-0.002
215.00,0.003
216.00,0.001
217.00,0.000
218.00,0.002
219.00,-0.001
220.00,0.004
221.00,0.001
222.00,0.000
223.00,0.002
224.00,0.003
225.00,0.004
226.00,-0.000
227.00,0.002
228.00,0.002
229.00,-0.003
230.00,0.003
231.00,0.002
232.00,-0.000
233.00,0.001
234.00,0.004
235.00,0.001
236.00,0.000
237.00,0.001
238.00,0.001
239.00,0.002
240.00,0.002
241.00,-0.000
242.00,0.001
243.00,-0.001
244.00,0.001
245.00,-0.001
246.00,0.000
247.00,0.000
248.00,0.000
249.00,0.001
250.00,0.001
251.00,0.000
252.00,0.000
253.00,-0.000
254.00,0.002
255.00,0.002
256.00,0.001
257.00,-0.000
258.00,-0.001
259.00,0.001
260.00,-0.002
261.00,0.001
262.00,0.001
263.00,-0.000
264.00,0.001
265.00,-0.002
266.00,-0.001
267.00,0.003
268.00,0.001
269.00,-0.000
270.00,0.000
271.00,-0.000
272.00,-0.000
273.00,0.002
274.00,-0.000
275.00,0.000
276.00,0.001
277.00,-0.001
278.00,0.001
279.00,-0.000
280.00,-0.001
281.00,0.001
282.00,-0.000
283.00,0.000
284.00,0.001
285.00,0.000
286.00,0.001
287.00,-0.001
288.00,0.001
289.00,-0.001
290.00,-0.001
291.00,0.002
292.00,0.000
293.00,-0.001
294.00,-0.002
295.00,-0.001
296.00,0.000
297.00,0.001
298.00,0.002
299.00,0.003
300.00,0.002
301.00,0.004
302.00,0.004
303.00,0.009
304.00,0.013
305.00,0.021
306.00,0.032
307.00,0.047
308.00,0.077
309.00,0.119
310.00,0.167
311.00,0.231
312.00,0.306
313.00,0.426
314.00,0.554
315.00,0.740
316.00,0.932
317.00,1.199
318.00,1.467
319.00,1.800
320.00,2.195
321.00,2.633
322.00,3.115
323.00,3.683
324.00,4.276
325.00,4.893
326.00,5.523
327.00,6.232
328.00,6.967
329.00,7.724
330.00,8.483
331.00,9.285
332.00,10.085
333.00,10.947
334.00,11.766
335.00,12.623
336.00,13.452
337.00,14.305
338.00,15.098
339.00,15.871
340.00,16.543
341.00,17.398
342.00,18.123
343.00,18.880
344.00,19.561
345.00,20.239
346.00,20.762
347.00,21.343
348.00,21.953
349.00,22.443
350.00,22.908
351.00,23.412
352.00,23.854
353.00,24.254
354.00,24.666
355.00,25.016
356.00,25.400
357.00,25.741
358.00,26.029
359.00,26.408
360.00,26.604
361.00,26.762
362.00,27.063
363.00,27.320
364.00,27.454
365.00,27.652
366.00,27.821
367.00,27.964
368.00,28.047
369.00,28.166
370.00,28.287
371.00,28.369
372.00,28.379
373.00,28.374
374.00,28.415
375.00,28.410
376.00,28.388
377.00,28.407
378.00,28.379
379.00,28.334
380.00,28.333
381.00,28.364
382.00,28.376
383.00,28.379
384.00,28.477
385.00,28.524
386.00,28.611
387.00,28.721
388.00,28.741
389.00,28.807
390.00,28.876
391.00,28.955
392.00,28.986
393.00,28.998
394.00,29.055
395.00,29.107
396.00,29.130
397.00,29.117
398.00,29.150
399.00,29.204
400.00,29.273
401.00,29.233
402.00,29.244
403.00,29.248
404.00,29.230
405.00,29.249
406.00,29.259
407.00,29.213
408.00,29.237
409.00,29.153
410.00,29.110
411.00,29.112
412.00,29.075
413.00,29.137
414.00,29.083
415.00,29.114
416.00,29.111
417.00,29.146
418.00,29.173
419.00,29.210
420.00,29.240
421.00,29.346
422.00,29.384
423.00,29.367
424.00,29.381
425.00,29.450
426.00,29.471
427.00,29.494
428.00,29.571
429.00,29.593
430.00,29.602
431.00,29.665
432.00,29.715
433.00,29.774
434.00,29.806
435.00,29.866
436.00,29.948
437.00,29.974
438.00,30.013
439.00,30.068
440.00,30.161
441.00,30.194
442.00,30.289
443.00,30.340
444.00,30.417
445.00,30.510
446.00,30.582
447.00,30.683
448.00,30.754
449.00,30.815
450.00,30.936
451.00,31.008
452.00,31.122
453.00,31.184
454.00,31.292
455.00,31.403
456.00,31.450
457.00,31.583
458.00,31.667
459.00,31.706
460.00,31.901
461.00,31.992
462.00,32.109
463.00,32.201
464.00,32.319
465.00,32.432
466.00,32.526
467.00,32.608
468.00,32.713
469.00,32.863
470.00,32.878
471.00,33.006
472.00,33.085
473.00,33.094
474.00,33.227
475.00,33.316
476.00,33.396
477.00,33.486
478.00,33.590
479.00,33.724
480.00,33.851
481.00,33.989
482.00,34.072
483.00,34.222
484.00,34.349
485.00,34.459
486.00,34.622
487.00,34.707
488.00,34.848
489.00,34.970
490.00,35.129
491.00,35.251
492.00,35.411
493.00,35.475
494.00,35.474
495.00,35.465
496.00,35.719
497.00,35.806
498.00,35.948
499.00,36.102
500.00,36.115
501.00,36.089
502.00,36.392
503.00,36.511
504.00,36.597
505.00,36.677
506.00,36.864
507.00,36.881
508.00,36.929
509.00,37.102
510.00,37.218
511.00,37.234
512.00,37.351
513.00,37.404
514.00,37.506
515.00,37.750
516.00,37.883
517.00,37.941
518.00,38.035
519.00,38.100
520.00,38.221
521.00,38.190
522.00,38.243
523.00,38.371
524.00,38.440
525.00,38.569
526.00,38.657
527.00,38.717
528.00,38.825
529.00,38.933
530.00,38.966
531.00,39.201
532.00,39.230
533.00,39.316
534.00,39.408
535.00,39.475
536.00,39.572
537.00,39.610
538.00,39.709
539.00,39.782
540.00,39.847
541.00,39.898
542.00,39.929
543.00,39.993
544.00,40.075
545.00,40.110
546.00,40.179
547.00,40.258
548.00,40.313
549.00,40.414
550.00,40.496
551.00,40.610
552.00,40.612
553.00,40.704
554.00,40.722
555.00,40.823
556.00,40.867
557.00,40.874
558.00,40.901
559.00,40.947
560.00,41.132
561.00,41.201
562.00,41.220
563.00,41.286
564.00,41.321
565.00,41.350
566.00,41.325
567.00,41.423
568.00,41.475
569.00,41.386
570.00,41.481
571.00,41.559
572.00,41.531
573.00,41.624
574.00,41.645
575.00,41.556
576.00,41.741
577.00,41.810
578.00,41.886
579.00,41.958
580.00,42.020
581.00,42.137
582.00,42.152
583.00,42.224
584.00,42.307
585.00,42.361
586.00,42.463
587.00,42.468
588.00,42.519
589.00,42.538
590.00,42.608
591.00,42.565
592.00,42.599
593.00,42.650
594.00,42.745
595.00,42.732
596.00,42.803
597.00,42.842
598.00,42.909
599.00,42.894
600.00,43.013
601.00,43.062
602.00,43.098
603.00,43.148
604.00,43.151
605.00,43.181
606.00,43.295
607.00,43.328
608.00,43.375
609.00,43.357
610.00,43.391
611.00,43.373
612.00,43.444
613.00,43.472
614.00,43.520
615.00,43.592
616.00,43.652
617.00,43.712
618.00,43.743
619.00,43.770
620.00,43.790
621.00,43.872
622.00,43.875
623.00,43.971
624.00,44.011
625.00,44.054
626.00,44.095
627.00,44.066
628.00,44.189
629.00,44.263
630.00,44.205
631.00,44.269
632.00,44.324
633.00,44.351
634.00,44.421
635.00,44.573
636.00,44.588
637.00,44.665
638.00,44.727
639.00,44.748
640.00,44.748
641.00,44.729
642.00,44.867
643.00,44.928
644.00,44.925
645.00,44.983
646.00,45.099
647.00,44.980
648.00,45.138
649.00,45.315
650.00,45.264
651.00,45.311
652.00,45.389
653.00,45.454
654.00,45.491
655.00,45.500
656.00,45.637
657.00,45.706
658.00,45.935
659.00,46.053
660.00,45.980
661.00,45.932
662.00,45.997
663.00,46.031
664.00,46.202
665.00,46.233
666.00,46.186
667.00,46.335
668.00,46.358
669.00,46.469
670.00,46.476
671.00,46.510
672.00,46.496
673.00,46.631
674.00,46.700
675.00,46.704
676.00,46.829
677.00,46.895
678.00,46.769
679.00,46.869
680.00,46.981
681.00,47.100
682.00,47.154
683.00,47.123
684.00,47.310
685.00,47.293
686.00,47.157
687.00,47.337
688.00,47.344
689.00,47.438
690.00,47.570
691.00,47.642
692.00,47.643
693.00,47.552
694.00,47.628
695.00,47.797
696.00,47.846
697.00,47.885
698.00,47.904
699.00,47.964
700.00,48.083
701.00,48.062
702.00,48.151
703.00,48.221
704.00,48.244
705.00,48.185
706.00,48.348
707.00,48.392
708.00,48.283
709.00,48.497
710.00,48.668
711.00,48.374
712.00,48.513
713.00,48.531
714.00,48.505
715.00,48.641
716.00,48.660
717.00,48.724
718.00,48.540
719.00,48.804
720.00,48.798
721.00,53.111
722.00,53.128
723.00,52.997
724.00,53.064
725.00,53.002
726.00,53.010
727.00,53.003
728.00,53.014
729.00,53.019
730.00,53.065
731.00,53.008
732.00,53.031
733.00,52.969
734.00,53.050
735.00,53.030
736.00,53.007
737.00,53.015
738.00,53.128
739.00,53.082
740.00,53.037
741.00,53.070
742.00,53.094
743.00,53.050
744.00,53.024
745.00,52.908
746.00,53.011
747.00,52.927
748.00,52.969
749.00,52.916
750.00,52.943
751.00,52.802
752.00,52.917
753.00,52.812
754.00,52.829
755.00,52.817
756.00,52.832
757.00,52.830
758.00,52.717
759.00,52.798
760.00,52.752
761.00,52.816
762.00,52.729
763.00,52.751
764.00,52.761
765.00,52.806
766.00,52.795
767.00,52.711
768.00,52.687
769.00,52.673
770.00,52.751
771.00,52.782
772.00,52.708
773.00,52.707
774.00,52.661
775.00,52.667
776.00,52.654
777.00,52.725
778.00,52.712
779.00,52.609
780.00,52.694
781.00,52.634
782.00,52.623
783.00,52.661
784.00,52.532
785.00,52.545
786.00,52.504
787.00,52.552
788.00,52.394
789.00,52.532
790.00,52.469
791.00,52.387
792.00,52.418
793.00,52.365
794.00,52.423
795.00,52.431
796.00,52.354
797.00,52.264
798.00,52.275
799.00,52.240
800.00,52.194
801.00,52.223
802.00,52.297
803.00,52.204
804.00,52.208
805.00,52.158
806.00,52.118
807.00,52.051
808.00,52.104
809.00,52.042
810.00,52.017
811.00,52.000
812.00,52.046
813.00,52.040
814.00,52.009
815.00,52.007
816.00,52.019
817.00,51.908
818.00,51.919
819.00,51.878
820.00,51.818
821.00,51.835
822.00,51.814
823.00,51.755
824.00,51.758
825.00,51.682
826.00,51.740
827.00,51.844
828.00,51.725
829.00,51.581
830.00,51.646
831.00,54.240
832.00,54.237
833.00,54.146
834.00,54.131
835.00,54.107
836.00,54.121
837.00,54.132
838.00,54.041
839.00,54.026
840.00,53.998
841.00,53.961
842.00,53.951
843.00,53.928
844.00,53.930
845.00,53.936
846.00,53.812
847.00,53.868
848.00,53.844
849.00,53.819
850.00,53.734
851.00,53.706
852.00,53.682
853.00,53.635
854.00,53.618
855.00,53.558
856.00,53.565
857.00,53.522
858.00,53.496
859.00,53.455
860.00,53.458
861.00,53.416
862.00,53.366
863.00,53.417
864.00,53.365
865.00,53.407
866.00,53.371
867.00,53.351
868.00,53.325
869.00,53.313
870.00,53.290
871.00,53.280
872.00,53.256
873.00,53.251
874.00,53.218
875.00,53.246
876.00,53.181
877.00,53.157
878.00,53.205
879.00,53.164
880.00,53.133
881.00,53.134
882.00,53.125
883.00,53.097
884.00,53.023
885.00,53.026
886.00,53.033
887.00,52.998
888.00,52.960
889.00,52.971
890.00,52.951
891.00,52.928
892.00,52.893
893.00,52.870
894.00,52.875
895.00,52.835
896.00,52.825
897.00,52.794
898.00,52.773
899.00,52.759
900.00,52.745
901.00,52.743
902.00,52.726
903.00,52.702
904.00,52.700
905.00,52.671
906.00,52.611
907.00,52.777
908.00,52.600
909.00,52.580
910.00,52.560
911.00,52.542
912.00,52.564
913.00,52.496
914.00,52.465
915.00,52.473
916.00,52.454
917.00,52.389
918.00,52.459
919.00,52.377
920.00,52.346
921.00,52.296
922.00,52.401
923.00,52.251
924.00,52.280
925.00,52.251
926.00,52.243
927.00,52.215
928.00,52.188
929.00,52.173
930.00,52.153
931.00,52.145
932.00,52.114
933.00,52.114
934.00,52.102
935.00,52.045
936.00,52.060
937.00,52.038
938.00,52.002
939.00,51.998
940.00,51.959
941.00,51.958
942.00,51.929
943.00,51.928
944.00,51.882
945.00,51.883
946.00,51.871
947.00,51.828
948.00,51.812
949.00,51.794
950.00,51.779
951.00,51.749
952.00,51.712
953.00,51.679
954.00,51.671
955.00,51.641
956.00,51.630
957.00,51.589
958.00,51.605
959.00,51.552
960.00,51.535
961.00,51.523
962.00,51.530
963.00,51.462
964.00,51.489
965.00,51.461
966.00,51.450
967.00,51.446
968.00,51.416
969.00,51.451
970.00,51.420
971.00,51.414
972.00,51.400
973.00,51.416
974.00,51.440
975.00,51.411
976.00,51.432
977.00,51.416
978.00,51.444
979.00,51.430
980.00,51.425
981.00,51.425
982.00,51.395
983.00,51.404
984.00,51.383
985.00,51.403
986.00,51.353
987.00,51.370
988.00,51.359
989.00,51.329
990.00,51.328
991.00,51.312
992.00,51.329
993.00,51.277
994.00,51.269
995.00,51.280
996.00,51.253
997.00,51.261
998.00,51.218
999.00,51.238
1000.00,51.178
1001.00,51.191
1002.00,51.171
1003.00,51.161
1004.00,51.146
1005.00,51.134
1006.00,51.137
1007.00,51.118
1008.00,51.115
1009.00,51.082
1010.00,51.078
1011.00,51.064
1012.00,51.036
1013.00,51.058
1014.00,50.994
1015.00,51.019
1016.00,50.971
1017.00,50.965
1018.00,50.947
1019.00,50.921
1020.00,50.907
1021.00,50.896
1022.00,50.898
1023.00,50.847
1024.00,50.854
1025.00,50.849
1026.00,50.827
1027.00,50.813
1028.00,50.785
1029.00,50.782
1030.00,50.753
1031.00,50.751
1032.00,50.718
1033.00,50.713
1034.00,50.689
1035.00,50.669
1036.00,50.637
1037.00,50.613
1038.00,50.626
1039.00,50.575
1040.00,50.583
1041.00,50.534
1042.00,50.523
1043.00,50.493
1044.00,50.532
1045.00,50.514
1046.00,50.506
1047.00,50.513
1048.00,50.523
1049.00,50.539
1050.00,50.540
1051.00,50.572
1052.00,50.576
1053.00,50.576
1054.00,50.576
1055.00,50.607
1056.00,50.648
1057.00,50.605
1058.00,50.594
1059.00,50.592
1060.00,50.575
1061.00,50.577
1062.00,50.572
1063.00,50.579
1064.00,50.553
1065.00,50.551
1066.00,50.534
1067.00,50.521
1068.00,50.545
1069.00,50.517
1070.00,50.489
1071.00,50.468
1072.00,50.490
1073.00,50.466
1074.00,50.475
1075.00,50.438
1076.00,50.434
1077.00,50.417
1078.00,50.401
1079.00,50.402
1080.00,50.400
1081.00,50.368
1082.00,50.372
1083.00,50.370
1084.00,50.371
1085.00,50.369
1086.00,50.360
1087.00,50.353
1088.00,50.350
1089.00,50.334
1090.00,50.336
1091.00,50.322
1092.00,50.310
1093.00,50.289
1094.00,50.288
1095.00,50.280
1096.00,50.269
1097.00,50.247
1098.00,50.243
1099.00,50.230
1100.00,50.222
1101.00,50.203
1102.00,50.196
1103.00,50.184
1104.00,50.186
1105.00,50.168
1106.00,50.169
1107.00,50.160
1108.00,50.140
1109.00,50.128
1110.00,50.131
1111.00,50.114
1112.00,50.113
1113.00,50.096
1114.00,50.093
1115.00,50.100
1116.00,50.090
1117.00,50.084
1118.00,50.069
1119.00,50.060
1120.00,50.063
1121.00,50.048
1122.00,50.031
1123.00,50.033
1124.00,50.022
1125.00,50.014
1126.00,50.021
1127.00,50.006
1128.00,49.997
1129.00,49.974
1130.00,49.961
1131.00,49.971
1132.00,49.969
1133.00,49.902
1134.00,49.960
1135.00,49.938
1136.00,49.928
1137.00,49.929
1138.00,49.924
1139.00,49.918
1140.00,49.910
1141.00,49.890
1142.00,49.874
1143.00,49.867
1144.00,49.867
1145.00,49.889
1146.00,49.895
1147.00,49.861
1148.00,49.860
1149.00,49.865
1150.00,49.871
1151.00,49.875
1152.00,49.854
1153.00,49.848
1154.00,49.833
1155.00,49.851
1156.00,49.841
1157.00,49.853
1158.00,49.841
1159.00,49.841
1160.00,49.816
1161.00,49.828
1162.00,49.826
1163.00,49.813
1164.00,49.799
1165.00,49.802
1166.00,49.811
1167.00,49.804
1168.00,49.808
1169.00,49.796
1170.00,49.810
1171.00,49.782
1172.00,49.793
1173.00,49.792
1174.00,49.780
1175.00,49.775
1176.00,49.776
1177.00,49.787
1178.00,49.809
1179.00,49.813
1180.00,49.784
1181.00,49.805
1182.00,49.794
1183.00,49.784
1184.00,49.773
1185.00,49.782
1186.00,49.761
1187.00,49.777
1188.00,49.756
1189.00,49.767
1190.00,49.758
1191.00,49.753
1192.00,49.776
1193.00,49.754
1194.00,49.762
1195.00,49.731
1196.00,49.759
1197.00,49.753
1198.00,49.744
1199.00,49.737
1200.00,49.738
1201.00,49.746
1202.00,49.719
1203.00,49.737
1204.00,49.711
1205.00,49.726
1206.00,49.726
1207.00,49.738
1208.00,49.724
1209.00,49.721
1210.00,49.732
1211.00,49.735
1212.00,49.752
1213.00,49.707
1214.00,49.735
1215.00,49.722
1216.00,49.721
1217.00,49.738
1218.00,49.719
1219.00,49.734
1220.00,49.708
1221.00,49.714
1222.00,49.712
1223.00,49.720
1224.00,49.717
1225.00,49.708
1226.00,49.714
1227.00,49.701
1228.00,49.724
1229.00,49.720
1230.00,49.752
1231.00,49.743
1232.00,49.751
1233.00,49.754
1234.00,49.760
1235.00,49.749
1236.00,49.752
1237.00,49.746
1238.00,49.750
1239.00,49.774
1240.00,49.740
1241.00,49.751
1242.00,49.747
1243.00,49.775
1244.00,49.747
1245.00,49.775
1246.00,49.785
1247.00,49.781
1248.00,49.768
1249.00,49.772
1250.00,49.784
1251.00,49.766
1252.00,49.781
1253.00,49.778
1254.00,49.810
1255.00,49.779
1256.00,49.780
1257.00,49.750
1258.00,49.808
1259.00,49.793
1260.00,49.816
1261.00,49.811
1262.00,49.801
1263.00,49.799
1264.00,49.806
1265.00,49.806
1266.00,49.818
1267.00,49.813
1268.00,49.827
1269.00,49.832
1270.00,49.840
1271.00,49.836
1272.00,49.850
1273.00,49.852
1274.00,49.862
1275.00,49.850
1276.00,49.853
1277.00,49.854
1278.00,49.861
1279.00,49.882
1280.00,49.850
1281.00,49.869
1282.00,49.887
1283.00,49.880
1284.00,49.878
1285.00,49.883
1286.00,49.906
1287.00,49.879
1288.00,49.906
1289.00,49.894
1290.00,49.911
1291.00,49.912
1292.00,49.918
1293.00,49.907
1294.00,49.921
1295.00,49.924
1296.00,49.930
1297.00,49.934
1298.00,49.936
1299.00,49.943
1300.00,49.965
1301.00,49.959
1302.00,49.968
1303.00,49.975
1304.00,49.952
1305.00,49.967
1306.00,49.979
1307.00,49.982
1308.00,49.975
1309.00,49.985
1310.00,50.006
1311.00,49.988
1312.00,49.979
1313.00,49.985
1314.00,49.988
1315.00,50.006
1316.00,50.014
1317.00,50.023
1318.00,50.019
1319.00,50.023
1320.00,50.046
1321.00,50.188
1322.00,50.209
1323.00,50.195
1324.00,50.198
1325.00,50.184
1326.00,50.219
1327.00,50.190
1328.00,50.174
1329.00,50.212
1330.00,50.211
1331.00,50.180
1332.00,50.195
1333.00,50.181
1334.00,50.221
1335.00,50.231
1336.00,50.252
1337.00,50.296
1338.00,50.351
1339.00,50.393
1340.00,50.456
1341.00,50.505
1342.00,50.572
1343.00,50.629
1344.00,50.653
1345.00,50.726
1346.00,50.781
1347.00,50.783
1348.00,50.824
1349.00,50.843
1350.00,50.850
1351.00,50.877
1352.00,50.873
1353.00,50.881
1354.00,50.901
1355.00,50.830
1356.00,50.918
1357.00,50.891
1358.00,50.895
1359.00,50.931
1360.00,50.987
1361.00,50.968
1362.00,50.833
1363.00,50.957
1364.00,50.924
1365.00,50.900
1366.00,50.929
1367.00,50.896
1368.00,50.881
1369.00,50.897
1370.00,50.874
1371.00,50.880
1372.00,50.873
1373.00,50.871
1374.00,50.897
1375.00,50.848
1376.00,50.894
1377.00,50.859
1378.00,50.897
1379.00,50.878
1380.00,50.877
1381.00,50.857
1382.00,50.808
1383.00,50.850
1384.00,50.828
1385.00,50.827
1386.00,50.871
1387.00,50.795
1388.00,50.790
1389.00,50.739
1390.00,50.906
1391.00,50.795
1392.00,50.845
1393.00,50.896
1394.00,50.857
1395.00,50.775
1396.00,50.774
1397.00,50.787
1398.00,50.913
1399.00,50.854
1400.00,50.821
1401.00,50.822
1402.00,50.883
1403.00,50.828
1404.00,50.827
1405.00,50.908
1406.00,50.881
1407.00,50.910
1408.00,50.911
1409.00,50.864
1410.00,50.911
1411.00,50.893
1412.00,50.977
1413.00,50.874
1414.00,50.900
1415.00,50.962
1416.00,50.948
1417.00,51.003
1418.00,50.985
1419.00,50.954
1420.00,50.999
1421.00,51.027
1422.00,51.028
1423.00,51.023
1424.00,51.030
1425.00,51.060
1426.00,51.057
1427.00,51.070
1428.00,51.097
1429.00,51.108
1430.00,51.104
1431.00,51.131
1432.00,51.136
1433.00,51.171
1434.00,51.144
1435.00,51.197
1436.00,51.212
1437.00,51.203
1438.00,51.208
1439.00,51.257
1440.00,51.247
1441.00,51.240
1442.00,51.266
1443.00,51.282
1444.00,51.330
1445.00,51.298
1446.00,51.288
1447.00,51.341
1448.00,51.381
1449.00,51.371
1450.00,51.373
1451.00,51.390
1452.00,51.395
1453.00,51.433
1454.00,51.432
1455.00,51.469
1456.00,51.474
1457.00,51.454
1458.00,51.514
1459.00,51.530
1460.00,51.513
1461.00,51.547
1462.00,51.567
1463.00,51.580
1464.00,51.583
1465.00,51.610
1466.00,51.624
1467.00,51.619
1468.00,51.659
1469.00,51.673
1470.00,51.664
1471.00,51.677
1472.00,51.708
1473.00,51.703
1474.00,51.723
1475.00,51.730
1476.00,51.739
1477.00,51.734
1478.00,51.759
1479.00,51.768
1480.00,51.783
1481.00,51.794
1482.00,51.807
1483.00,51.839
1484.00,51.838
1485.00,51.836
1486.00,51.850
1487.00,51.867
1488.00,51.889
1489.00,51.876
1490.00,51.886
1491.00,51.917
1492.00,51.930
1493.00,51.914
1494.00,51.952
1495.00,51.954
1496.00,51.952
1497.00,51.971
1498.00,51.976
1499.00,52.000
1500.00,52.015
1501.00, 
1502.00, 
1503.00, 
1504.00, 
1505.00, 
1506.00, 
1507.00, 
1508.00, 
1509.00, 
1510.00, 
1511.00, 
1512.00, 
1513.00, 
1514.00, 
1515.00, 
1516.00, 
1517.00, 
1518.00, 
1519.00, 
1520.00, 
1521.00, 
1522.00, 
1523.00, 
1524.00, 
1525.00, 
1526.00, 
1527.00, 
1528.00, 
1529.00, 
1530.00, 
1531.00, 
1532.00, 
1533.00, 
1534.00, 
1535.00, 
1536.00, 
1537.00, 
1538.00, 
1539.00, 
1540.00, 
1541.00, 
1542.00, 
1543.00, 
1544.00, 
1545.00, 
1546.00, 
1547.00, 
1548.00, 
1549.00, 
1550.00, 
1551.00, 
1552.00, 
1553.00, 
1554.00, 
1555.00, 
1556.00, 
1557.00, 
1558.00, 
1559.00, 
1560.00, 
1561.00, 
1562.00, 
1563.00, 
1564.00, 
1565.00, 
1566.00, 
1567.00, 
1568.00, 
1569.00, 
1570.00, 
1571.00, 
1572.00, 
1573.00, 
1574.00, 
1575.00, 
1576.00, 
1577.00, 
1578.00, 
1579.00, 
1580.00, 
1581.00, 
1582.00, 
1583.00, 
1584.00, 
1585.00, 
1586.00, 
1587.00, 
1588.00, 
1589.00, 
1590.00, 
1591.00, 
1592.00, 
1593.00, 
1594.00, 
1595.00, 
1596.00, 
1597.00, 
1598.00, 
1599.00, 
1600.00, 
1601.00, 
1602.00, 
1603.00, 
1604.00, 
1605.00, 
1606.00, 
1607.00, 
1608.00, 
1609.00, 
1610.00, 
1611.00, 
1612.00, 
1613.00, 
1614.00, 
1615.00, 
1616.00, 
1617.00, 
1618.00, 
1619.00, 
1620.00, 
1621.00, 
1622.00, 
1623.00, 
1624.00, 
1625.00, 
1626.00, 
1627.00, 
1628.00, 
1629.00, 
1630.00, 
1631.00, 
1632.00, 
1633.00, 
1634.00, 
1635.00, 
1636.00, 
1637.00, 
1638.00, 
1639.00, 
1640.00, 
1641.00, 
1642.00, 
1643.00, 
1644.00, 
1645.00, 
1646.00, 
1647.00, 
1648.00, 
1649.00, 
1650.00, 
1651.00, 
1652.00, 
1653.00, 
1654.00, 
1655.00, 
1656.00, 
1657.00, 
1658.00, 
1659.00, 
1660.00, 
1661.00, 
1662.00, 
1663.00, 
1664.00, 
1665.00, 
1666.00, 
1667.00, 
1668.00, 
1669.00, 
1670.00, 
1671.00, 
1672.00, 
1673.00, 
1674.00, 
1675.00, 
1676.00, 
1677.00, 
1678.00, 
1679.00, 
1680.00, 
1681.00, 
1682.00, 
1683.00, 
1684.00, 
1685.00, 
1686.00, 
1687.00, 
1688.00, 
1689.00, 
1690.00, 
1691.00, 
1692.00, 
1693.00, 
1694.00, 
1695.00, 
1696.00, 
1697.00, 
1698.00, 
1699.00, 
1700.00, 
1701.00, 
1702.00, 
1703.00, 
1704.00, 
1705.00, 
1706.00, 
1707.00, 
1708.00, 
1709.00, 
1710.00, 
1711.00, 
1712.00, 
1713.00, 
1714.00, 
1715.00, 
1716.00, 
1717.00, 
1718.00, 
1719.00, 
1720.00, 
1721.00, 
1722.00, 
1723.00, 
1724.00, 
1725.00, 
1726.00, 
1727.00, 
1728.00, 
1729.00, 
1730.00, 
1731.00, 
1732.00, 
1733.00, 
1734.00, 
1735.00, 
1736.00, 
1737.00, 
1738.00, 
1739.00, 
1740.00, 
1741.00, 
1742.00, 
1743.00, 
1744.00, 
1745.00, 
1746.00, 
1747.00, 
1748.00, 
1749.00, 
1750.00, 
1751.00, 
1752.00, 
1753.00, 
1754.00, 
1755.00, 
1756.00, 
1757.00, 
1758.00, 
1759.00, 
1760.00, 
1761.00, 
1762.00, 
1763.00, 
1764.00, 
1765.00, 
1766.00, 
1767.00, 
1768.00, 
1769.00, 
1770.00, 
1771.00, 
1772.00, 
1773.00, 
1774.00, 
1775.00, 
1776.00, 
1777.00, 
1778.00, 
1779.00, 
1780.00, 
1781.00, 
1782.00, 
1783.00, 
1784.00, 
1785.00, 
1786.00, 
1787.00, 
1788.00, 
1789.00, 
1790.00, 
1791.00, 
1792.00, 
1793.00, 
1794.00, 
1795.00, 
1796.00, 
1797.00, 
1798.00, 
1799.00, 
1800.00, 
1801.00, 
1802.00, 
1803.00, 
1804.00, 
1805.00, 
1806.00, 
1807.00, 
1808.00, 
1809.00, 
1810.00, 
1811.00, 
1812.00, 
1813.00, 
1814.00, 
1815.00, 
1816.00, 
1817.00, 
1818.00, 
1819.00, 
1820.00, 
1821.00, 
1822.00, 
1823.00, 
1824.00, 
1825.00, 
1826.00, 
1827.00, 
1828.00, 
1829.00, 
1830.00, 
1831.00, 
1832.00, 
1833.00, 
1834.00, 
1835.00, 
1836.00, 
1837.00, 
1838.00, 
1839.00, 
1840.00, 
1841.00, 
1842.00, 
1843.00, 
1844.00, 
1845.00, 
1846.00, 
1847.00, 
1848.00, 
1849.00, 
1850.00, 
1851.00, 
1852.00, 
1853.00, 
1854.00, 
1855.00, 
1856.00, 
1857.00, 
1858.00, 
1859.00, 
1860.00, 
1861.00, 
1862.00, 
1863.00, 
1864.00, 
1865.00, 
1866.00, 
1867.00, 
1868.00, 
1869.00, 
1870.00, 
1871.00, 
1872.00, 
1873.00, 
1874.00, 
1875.00, 
1876.00, 
1877.00, 
1878.00, 
1879.00, 
1880.00, 
1881.00, 
1882.00, 
1883.00, 
1884.00, 
1885.00, 
1886.00, 
1887.00, 
1888.00, 
1889.00, 
1890.00, 
1891.00, 
1892.00, 
1893.00, 
1894.00, 
1895.00, 
1896.00, 
1897.00, 
1898.00, 
1899.00, 
1900.00, 
1901.00, 
1902.00, 
1903.00, 
1904.00, 
1905.00, 
1906.00, 
1907.00, 
1908.00, 
1909.00, 
1910.00, 
1911.00, 
1912.00, 
1913.00, 
1914.00, 
1915.00, 
1916.00, 
1917.00, 
1918.00, 
1919.00, 
1920.00, 
1921.00, 
1922.00, 
1923.00, 
1924.00, 
1925.00, 
1926.00, 
1927.00, 
1928.00, 
1929.00, 
1930.00, 
1931.00, 
1932.00, 
1933.00, 
1934.00, 
1935.00, 
1936.00, 
1937.00, 
1938.00, 
1939.00, 
1940.00, 
1941.00, 
1942.00, 
1943.00, 
1944.00, 
1945.00, 
1946.00, 
1947.00, 
1948.00, 
1949.00, 
1950.00, 
1951.00, 
1952.00, 
1953.00, 
1954.00, 
1955.00, 
1956.00, 
1957.00, 
1958.00, 
1959.00, 
1960.00, 
1961.00, 
1962.00, 
1963.00, 
1964.00, 
1965.00, 
1966.00, 
1967.00, 
1968.00, 
1969.00, 
1970.00, 
1971.00, 
1972.00, 
1973.00, 
1974.00, 
1975.00, 
1976.00, 
1977.00, 
1978.00, 
1979.00, 
1980.00, 
1981.00, 
1982.00, 
1983.00, 
1984.00, 
1985.00, 
1986.00, 
1987.00, 
1988.00, 
1989.00, 
1990.00, 
1991.00, 
1992.00, 
1993.00, 
1994.00, 
1995.00, 
1996.00, 
1997.00, 
1998.00, 
1999.00, 
2000.00, 
2001.00, 
2002.00, 
2003.00, 
2004.00, 
2005.00, 
2006.00, 
2007.00, 
2008.00, 
2009.00, 
2010.00, 
2011.00, 
2012.00, 
2013.00, 
2014.00, 
2015.00, 
2016.00, 
2017.00, 
2018.00, 
2019.00, 
2020.00, 
2021.00, 
2022.00, 
2023.00, 
2024.00, 
2025.00, 
2026.00, 
2027.00, 
2028.00, 
2029.00, 
2030.00, 
2031.00, 
2032.00, 
2033.00, 
2034.00, 
2035.00, 
2036.00, 
2037.00, 
2038.00, 
2039.00, 
2040.00, 
2041.00, 
2042.00, 
2043.00, 
2044.00, 
2045.00, 
2046.00, 
2047.00, 
2048.00, 
2049.00, 
2050.00, 
2051.00, 
2052.00, 
2053.00, 
2054.00, 
2055.00, 
2056.00, 
2057.00, 
2058.00, 
2059.00, 
2060.00, 
2061.00, 
2062.00, 
2063.00, 
2064.00, 
2065.00, 
2066.00, 
2067.00, 
2068.00, 
2069.00, 
2070.00, 
2071.00, 
2072.00, 
2073.00, 
2074.00, 
2075.00, 
2076.00, 
2077.00, 
2078.00, 
2079.00, 
2080.00, 
2081.00, 
2082.00, 
2083.00, 
2084.00, 
2085.00, 
2086.00, 
2087.00, 
2088.00, 
2089.00, 
2090.00, 
2091.00, 
2092.00, 
2093.00, 
2094.00, 
2095.00, 
2096.00, 
2097.00, 
2098.00, 
2099.00, 
2100.00, 
2101.00, 
2102.00, 
2103.00, 
2104.00, 
2105.00, 
2106.00, 
2107.00, 
2108.00, 
2109.00, 
2110.00, 
2111.00, 
2112.00, 
2113.00, 
2114.00, 
2115.00, 
2116.00, 
2117.00, 
2118.00, 
2119.00, 
2120.00, 
2121.00, 
2122.00, 
2123.00, 
2124.00, 
2125.00, 
2126.00, 
2127.00, 
2128.00, 
2129.00, 
2130.00, 
2131.00, 
2132.00, 
2133.00, 
2134.00, 
2135.00, 
2136.00, 
2137.00, 
2138.00, 
2139.00, 
2140.00, 
2141.00, 
2142.00, 
2143.00, 
2144.00, 
2145.00, 
2146.00, 
2147.00, 
2148.00, 
2149.00, 
2150.00, 
2151.00, 
2152.00, 
2153.00, 
2154.00, 
2155.00, 
2156.00, 
2157.00, 
2158.00, 
2159.00, 
2160.00, 
2161.00, 
2162.00, 
2163.00, 
2164.00, 
2165.00, 
2166.00, 
2167.00, 
2168.00, 
2169.00, 
2170.00, 
2171.00, 
2172.00, 
2173.00, 
2174.00, 
2175.00, 
2176.00, 
2177.00, 
2178.00, 
2179.00, 
2180.00, 
2181.00, 
2182.00, 
2183.00, 
2184.00, 
2185.00, 
2186.00, 
2187.00, 
2188.00, 
2189.00, 
2190.00, 
2191.00, 
2192.00, 
2193.00, 
2194.00, 
2195.00, 
2196.00, 
2197.00, 
2198.00, 
2199.00, 
2200.00, 
2201.00, 
2202.00, 
2203.00, 
2204.00, 
2205.00, 
2206.00, 
2207.00, 
2208.00, 
2209.00, 
2210.00, 
2211.00, 
2212.00, 
2213.00, 
2214.00, 
2215.00, 
2216.00, 
2217.00, 
2218.00, 
2219.00, 
2220.00, 
2221.00, 
2222.00, 
2223.00, 
2224.00, 
2225.00, 
2226.00, 
2227.00, 
2228.00, 
2229.00, 
2230.00, 
2231.00, 
2232.00, 
2233.00, 
2234.00, 
2235.00, 
2236.00, 
2237.00, 
2238.00, 
2239.00, 
2240.00, 
2241.00, 
2242.00, 
2243.00, 
2244.00, 
2245.00, 
2246.00, 
2247.00, 
2248.00, 
2249.00, 
2250.00, 
2251.00, 
2252.00, 
2253.00, 
2254.00, 
2255.00, 
2256.00, 
2257.00, 
2258.00, 
2259.00, 
2260.00, 
2261.00, 
2262.00, 
2263.00, 
2264.00, 
2265.00, 
2266.00, 
2267.00, 
2268.00, 
2269.00, 
2270.00, 
2271.00, 
2272.00, 
2273.00, 
2274.00, 
2275.00, 
2276.00, 
2277.00, 
2278.00, 
2279.00, 
2280.00, 
2281.00, 
2282.00, 
2283.00, 
2284.00, 
2285.00, 
2286.00, 
2287.00, 
2288.00, 
2289.00, 
2290.00, 
2291.00, 
2292.00, 
2293.00, 
2294.00, 
2295.00, 
2296.00, 
2297.00, 
2298.00, 
2299.00, 
2300.00, 
2301.00, 
2302.00, 
2303.00, 
2304.00, 
2305.00, 
2306.00, 
2307.00, 
2308.00, 
2309.00, 
2310.00, 
2311.00, 
2312.00, 
2313.00, 
2314.00, 
2315.00, 
2316.00, 
2317.00, 
2318.00, 
2319.00, 
2320.00, 
2321.00, 
2322.00, 
2323.00, 
2324.00, 
2325.00, 
2326.00, 
2327.00, 
2328.00, 
2329.00, 
2330.00, 
2331.00, 
2332.00, 
2333.00, 
2334.00, 
2335.00, 
2336.00, 
2337.00, 
2338.00, 
2339.00, 
2340.00, 
2341.00, 
2342.00, 
2343.00, 
2344.00, 
2345.00, 
2346.00, 
2347.00, 
2348.00, 
2349.00, 
2350.00, 
2351.00, 
2352.00, 
2353.00, 
2354.00, 
2355.00, 
2356.00, 
2357.00, 
2358.00, 
2359.00, 
2360.00, 
2361.00, 
2362.00, 
2363.00, 
2364.00, 
2365.00, 
2366.00, 
2367.00, 
2368.00, 
2369.00, 
2370.00, 
2371.00, 
2372.00, 
2373.00, 
2374.00, 
2375.00, 
2376.00, 
2377.00, 
2378.00, 
2379.00, 
2380.00, 
2381.00, 
2382.00, 
2383.00, 
2384.00, 
2385.00, 
2386.00, 
2387.00, 
2388.00, 
2389.00, 
2390.00, 
2391.00, 
2392.00, 
2393.00, 
2394.00, 
2395.00, 
2396.00, 
2397.00, 
2398.00, 
2399.00, 
2400.00, 
2401.00, 
2402.00, 
2403.00, 
2404.00, 
2405.00, 
2406.00, 
2407.00, 
2408.00, 
2409.00, 
2410.00, 
2411.00, 
2412.00, 
2413.00, 
2414.00, 
2415.00, 
2416.00, 
2417.00, 
2418.00, 
2419.00, 
2420.00, 
2421.00, 
2422.00, 
2423.00, 
2424.00, 
2425.00, 
2426.00, 
2427.00, 
2428.00, 
2429.00, 
2430.00, 
2431.00, 
2432.00, 
2433.00, 
2434.00, 
2435.00, 
2436.00, 
2437.00, 
2438.00, 
2439.00, 
2440.00, 
2441.00, 
2442.00, 
2443.00, 
2444.00, 
2445.00, 
2446.00, 
2447.00, 
2448.00, 
2449.00, 
2450.00, 
2451.00, 
2452.00, 
2453.00, 
2454.00, 
2455.00, 
2456.00, 
2457.00, 
2458.00, 
2459.00, 
2460.00, 
2461.00, 
2462.00, 
2463.00, 
2464.00, 
2465.00, 
2466.00, 
2467.00, 
2468.00, 
2469.00, 
2470.00, 
2471.00, 
2472.00, 
2473.00, 
2474.00, 
2475.00, 
2476.00, 
2477.00, 
2478.00, 
2479.00, 
2480.00, 
2481.00, 
2482.00, 
2483.00, 
2484.00, 
2485.00, 
2486.00, 
2487.00, 
2488.00, 
2489.00, 
2490.00, 
2491.00, 
2492.00, 
2493.00, 
2494.00, 
2495.00, 
2496.00, 
2497.00, 
2498.00, 
2499.00, 
2500.00, 
2501.00, 
2502.00, 
2503.00, 
2504.00, 
2505.00, 
2506.00, 
2507.00, 
2508.00, 
2509.00, 
2510.00, 
2511.00, 
2512.00, 
2513.00, 
2514.00, 
2515.00, 
2516.00, 
2517.00, 
2518.00, 
2519.00, 
2520.00, 
2521.00, 
2522.00, 
2523.00, 
2524.00, 
2525.00, 
2526.00, 
2527.00, 
2528.00, 
2529.00, 
2530.00, 
2531.00, 
2532.00, 
2533.00, 
2534.00, 
2535.00, 
2536.00, 
2537.00, 
2538.00, 
2539.00, 
2540.00, 
2541.00, 
2542.00, 
2543.00, 
2544.00, 
2545.00, 
2546.00, 
2547.00, 
2548.00, 
2549.00, 
2550.00, 
2551.00, 
2552.00, 
2553.00, 
2554.00, 
2555.00, 
2556.00, 
2557.00, 
2558.00, 
2559.00, 
2560.00, 
2561.00, 
2562.00, 
2563.00, 
2564.00, 
2565.00, 
2566.00, 
2567.00, 
2568.00, 
2569.00, 
2570.00, 
2571.00, 
2572.00, 
2573.00, 
2574.00, 
2575.00, 
2576.00, 
2577.00, 
2578.00, 
2579.00, 
2580.00, 
2581.00, 
2582.00, 
2583.00, 
2584.00, 
2585.00, 
2586.00, 
2587.00, 
2588.00, 
2589.00, 
2590.00, 
2591.00, 
2592.00, 
2593.00, 
2594.00, 
2595.00, 
2596.00, 
2597.00, 
2598.00, 
2599.00, 
2600.00, 
