"2cP4 - RawData"
"Wavelength nm.","T%"
200.00,0.002
201.00,0.006
202.00,-0.001
203.00,0.001
204.00,0.001
205.00,-0.001
206.00,0.001
207.00,-0.001
208.00,-0.003
209.00,-0.001
210.00,-0.000
211.00,0.003
212.00,0.000
213.00,0.003
214.00,0.001
215.00,0.000
216.00,0.002
217.00,-0.000
218.00,-0.001
219.00,-0.000
220.00,0.002
221.00,-0.001
222.00,-0.002
223.00,-0.000
224.00,0.001
225.00,0.002
226.00,0.001
227.00,0.002
228.00,0.001
229.00,0.001
230.00,-0.000
231.00,-0.000
232.00,0.001
233.00,0.001
234.00,0.001
235.00,-0.002
236.00,0.000
237.00,0.002
238.00,-0.000
239.00,0.001
240.00,-0.000
241.00,0.000
242.00,0.001
243.00,0.002
244.00,-0.000
245.00,-0.000
246.00,-0.001
247.00,0.000
248.00,-0.001
249.00,0.001
250.00,-0.000
251.00,0.000
252.00,-0.000
253.00,0.001
254.00,0.001
255.00,-0.000
256.00,0.000
257.00,0.000
258.00,-0.001
259.00,-0.000
260.00,-0.002
261.00,-0.001
262.00,0.001
263.00,-0.001
264.00,-0.001
265.00,0.001
266.00,-0.000
267.00,0.001
268.00,-0.000
269.00,0.001
270.00,-0.000
271.00,0.000
272.00,-0.000
273.00,-0.001
274.00,-0.001
275.00,0.000
276.00,0.001
277.00,-0.001
278.00,-0.001
279.00,-0.000
280.00,0.000
281.00,0.001
282.00,0.001
283.00,0.000
284.00,0.001
285.00,0.001
286.00,0.001
287.00,0.001
288.00,-0.000
289.00,-0.000
290.00,0.000
291.00,-0.001
292.00,0.001
293.00,0.002
294.00,-0.001
295.00,0.001
296.00,0.001
297.00,0.000
298.00,0.001
299.00,0.002
300.00,0.002
301.00,0.003
302.00,0.005
303.00,0.007
304.00,0.011
305.00,0.018
306.00,0.028
307.00,0.040
308.00,0.061
309.00,0.098
310.00,0.138
311.00,0.189
312.00,0.252
313.00,0.337
314.00,0.456
315.00,0.591
316.00,0.754
317.00,0.956
318.00,1.177
319.00,1.443
320.00,1.756
321.00,2.115
322.00,2.490
323.00,2.945
324.00,3.419
325.00,3.886
326.00,4.371
327.00,4.935
328.00,5.537
329.00,6.128
330.00,6.669
331.00,7.230
332.00,7.957
333.00,8.637
334.00,9.273
335.00,9.924
336.00,10.565
337.00,11.216
338.00,11.842
339.00,12.451
340.00,13.007
341.00,13.631
342.00,14.169
343.00,14.730
344.00,15.201
345.00,15.729
346.00,16.173
347.00,16.583
348.00,17.068
349.00,17.401
350.00,17.755
351.00,18.136
352.00,18.454
353.00,18.722
354.00,19.003
355.00,19.286
356.00,19.497
357.00,19.760
358.00,19.965
359.00,20.196
360.00,20.371
361.00,20.478
362.00,20.704
363.00,20.868
364.00,20.943
365.00,20.999
366.00,21.150
367.00,21.261
368.00,21.263
369.00,21.338
370.00,21.374
371.00,21.436
372.00,21.413
373.00,21.414
374.00,21.424
375.00,21.446
376.00,21.371
377.00,21.379
378.00,21.321
379.00,21.261
380.00,21.241
381.00,21.241
382.00,21.218
383.00,21.225
384.00,21.280
385.00,21.299
386.00,21.319
387.00,21.367
388.00,21.379
389.00,21.453
390.00,21.451
391.00,21.517
392.00,21.500
393.00,21.506
394.00,21.516
395.00,21.553
396.00,21.552
397.00,21.535
398.00,21.549
399.00,21.580
400.00,21.594
401.00,21.589
402.00,21.579
403.00,21.568
404.00,21.570
405.00,21.583
406.00,21.567
407.00,21.549
408.00,21.570
409.00,21.468
410.00,21.445
411.00,21.473
412.00,21.477
413.00,21.447
414.00,21.411
415.00,21.434
416.00,21.467
417.00,21.518
418.00,21.546
419.00,21.600
420.00,21.642
421.00,21.696
422.00,21.737
423.00,21.727
424.00,21.798
425.00,21.865
426.00,21.864
427.00,21.907
428.00,21.967
429.00,22.002
430.00,22.037
431.00,22.121
432.00,22.187
433.00,22.214
434.00,22.283
435.00,22.382
436.00,22.447
437.00,22.477
438.00,22.569
439.00,22.634
440.00,22.730
441.00,22.787
442.00,22.884
443.00,22.914
444.00,23.061
445.00,23.155
446.00,23.273
447.00,23.352
448.00,23.467
449.00,23.546
450.00,23.682
451.00,23.778
452.00,23.888
453.00,24.010
454.00,24.101
455.00,24.204
456.00,24.333
457.00,24.438
458.00,24.559
459.00,24.687
460.00,24.841
461.00,24.969
462.00,25.068
463.00,25.211
464.00,25.374
465.00,25.450
466.00,25.588
467.00,25.710
468.00,25.868
469.00,25.977
470.00,26.075
471.00,26.171
472.00,26.313
473.00,26.387
474.00,26.502
475.00,26.643
476.00,26.751
477.00,26.843
478.00,26.990
479.00,27.177
480.00,27.304
481.00,27.437
482.00,27.565
483.00,27.732
484.00,27.919
485.00,28.020
486.00,28.215
487.00,28.362
488.00,28.469
489.00,28.670
490.00,28.796
491.00,28.913
492.00,29.138
493.00,29.261
494.00,29.299
495.00,29.432
496.00,29.572
497.00,29.695
498.00,29.881
499.00,29.991
500.00,30.092
501.00,30.219
502.00,30.372
503.00,30.519
504.00,30.591
505.00,30.707
506.00,30.872
507.00,30.945
508.00,31.040
509.00,31.240
510.00,31.354
511.00,31.463
512.00,31.583
513.00,31.719
514.00,31.816
515.00,31.938
516.00,32.099
517.00,32.164
518.00,32.352
519.00,32.354
520.00,32.463
521.00,32.517
522.00,32.607
523.00,32.663
524.00,32.766
525.00,32.887
526.00,32.988
527.00,33.046
528.00,33.150
529.00,33.311
530.00,33.396
531.00,33.557
532.00,33.608
533.00,33.696
534.00,33.847
535.00,33.902
536.00,33.951
537.00,34.053
538.00,34.114
539.00,34.191
540.00,34.275
541.00,34.339
542.00,34.346
543.00,34.457
544.00,34.522
545.00,34.588
546.00,34.678
547.00,34.706
548.00,34.858
549.00,34.924
550.00,34.939
551.00,35.099
552.00,35.137
553.00,35.154
554.00,35.214
555.00,35.289
556.00,35.363
557.00,35.326
558.00,35.485
559.00,35.588
560.00,35.622
561.00,35.698
562.00,35.784
563.00,35.784
564.00,35.860
565.00,35.869
566.00,35.862
567.00,35.946
568.00,35.999
569.00,35.988
570.00,36.079
571.00,36.106
572.00,36.202
573.00,36.191
574.00,36.245
575.00,36.278
576.00,36.263
577.00,36.319
578.00,36.411
579.00,36.481
580.00,36.509
581.00,36.639
582.00,36.694
583.00,36.751
584.00,36.856
585.00,36.908
586.00,36.984
587.00,37.002
588.00,37.015
589.00,37.000
590.00,37.099
591.00,37.125
592.00,37.158
593.00,37.214
594.00,37.307
595.00,37.381
596.00,37.422
597.00,37.488
598.00,37.533
599.00,37.543
600.00,37.639
601.00,37.659
602.00,37.674
603.00,37.736
604.00,37.711
605.00,37.765
606.00,37.862
607.00,37.878
608.00,37.991
609.00,38.124
610.00,38.002
611.00,38.010
612.00,38.098
613.00,38.151
614.00,38.085
615.00,38.231
616.00,38.479
617.00,38.458
618.00,38.479
619.00,38.568
620.00,38.544
621.00,38.618
622.00,38.671
623.00,38.778
624.00,38.877
625.00,38.907
626.00,38.991
627.00,38.996
628.00,39.065
629.00,39.082
630.00,39.143
631.00,39.239
632.00,39.344
633.00,39.385
634.00,39.523
635.00,39.633
636.00,39.725
637.00,39.754
638.00,39.854
639.00,39.854
640.00,39.938
641.00,39.958
642.00,40.093
643.00,40.137
644.00,40.241
645.00,40.311
646.00,40.465
647.00,40.492
648.00,40.613
649.00,40.689
650.00,40.678
651.00,40.767
652.00,40.940
653.00,40.911
654.00,40.970
655.00,41.151
656.00,41.440
657.00,41.362
658.00,41.622
659.00,41.719
660.00,41.649
661.00,41.717
662.00,41.777
663.00,41.866
664.00,42.127
665.00,42.260
666.00,42.169
667.00,42.325
668.00,42.358
669.00,42.607
670.00,42.708
671.00,42.637
672.00,42.732
673.00,42.888
674.00,42.965
675.00,43.071
676.00,43.223
677.00,43.405
678.00,43.208
679.00,43.432
680.00,43.550
681.00,43.742
682.00,43.840
683.00,43.828
684.00,44.027
685.00,44.055
686.00,43.930
687.00,44.080
688.00,44.262
689.00,44.268
690.00,44.438
691.00,44.768
692.00,44.615
693.00,44.585
694.00,44.676
695.00,44.918
696.00,45.086
697.00,45.033
698.00,45.116
699.00,45.298
700.00,45.299
701.00,45.198
702.00,45.473
703.00,45.816
704.00,45.779
705.00,45.714
706.00,45.898
707.00,45.945
708.00,45.845
709.00,46.165
710.00,46.524
711.00,46.248
712.00,46.338
713.00,46.431
714.00,46.530
715.00,46.611
716.00,46.618
717.00,46.717
718.00,46.678
719.00,46.875
720.00,47.008
721.00,51.326
722.00,51.311
723.00,51.354
724.00,51.368
725.00,51.327
726.00,51.426
727.00,51.438
728.00,51.491
729.00,51.471
730.00,51.541
731.00,51.583
732.00,51.651
733.00,51.593
734.00,51.695
735.00,51.708
736.00,51.729
737.00,51.683
738.00,51.848
739.00,51.858
740.00,51.951
741.00,51.952
742.00,52.014
743.00,52.001
744.00,51.982
745.00,51.968
746.00,52.085
747.00,52.056
748.00,51.989
749.00,52.024
750.00,52.122
751.00,51.997
752.00,52.085
753.00,52.044
754.00,52.106
755.00,52.079
756.00,52.093
757.00,52.093
758.00,52.105
759.00,52.142
760.00,52.143
761.00,52.207
762.00,52.214
763.00,52.178
764.00,52.214
765.00,52.287
766.00,52.271
767.00,52.279
768.00,52.269
769.00,52.322
770.00,52.389
771.00,52.410
772.00,52.423
773.00,52.361
774.00,52.322
775.00,52.353
776.00,52.396
777.00,52.408
778.00,52.425
779.00,52.381
780.00,52.482
781.00,52.395
782.00,52.437
783.00,52.444
784.00,52.429
785.00,52.394
786.00,52.369
787.00,52.396
788.00,52.384
789.00,52.448
790.00,52.407
791.00,52.417
792.00,52.304
793.00,52.325
794.00,52.351
795.00,52.382
796.00,52.404
797.00,52.270
798.00,52.391
799.00,52.285
800.00,52.290
801.00,52.295
802.00,52.330
803.00,52.271
804.00,52.270
805.00,52.276
806.00,52.238
807.00,52.225
808.00,52.251
809.00,52.267
810.00,52.169
811.00,52.170
812.00,52.253
813.00,52.173
814.00,52.208
815.00,52.216
816.00,52.135
817.00,52.087
818.00,52.075
819.00,52.077
820.00,52.023
821.00,52.036
822.00,52.117
823.00,51.920
824.00,52.048
825.00,52.002
826.00,51.967
827.00,52.156
828.00,51.993
829.00,51.932
830.00,51.998
831.00,54.172
832.00,54.145
833.00,54.077
834.00,54.098
835.00,54.090
836.00,54.106
837.00,54.072
838.00,54.042
839.00,54.027
840.00,53.989
841.00,54.004
842.00,53.983
843.00,53.994
844.00,53.945
845.00,53.964
846.00,53.836
847.00,53.896
848.00,53.869
849.00,53.806
850.00,53.778
851.00,53.727
852.00,53.752
853.00,53.713
854.00,53.682
855.00,53.636
856.00,53.648
857.00,53.607
858.00,53.617
859.00,53.557
860.00,53.536
861.00,53.516
862.00,53.619
863.00,53.497
864.00,53.476
865.00,53.494
866.00,53.467
867.00,53.488
868.00,53.484
869.00,53.442
870.00,53.440
871.00,53.423
872.00,53.413
873.00,53.392
874.00,53.384
875.00,53.376
876.00,53.314
877.00,53.537
878.00,53.311
879.00,53.320
880.00,53.309
881.00,53.302
882.00,53.308
883.00,53.289
884.00,53.223
885.00,53.239
886.00,53.216
887.00,53.192
888.00,53.147
889.00,53.274
890.00,53.160
891.00,53.086
892.00,53.082
893.00,53.079
894.00,53.077
895.00,53.044
896.00,53.020
897.00,52.998
898.00,52.960
899.00,52.976
900.00,52.967
901.00,52.972
902.00,52.953
903.00,52.908
904.00,52.904
905.00,52.855
906.00,52.984
907.00,52.846
908.00,52.841
909.00,52.815
910.00,52.784
911.00,52.788
912.00,52.780
913.00,52.725
914.00,52.725
915.00,52.711
916.00,52.626
917.00,52.758
918.00,52.658
919.00,52.612
920.00,52.600
921.00,52.535
922.00,52.647
923.00,52.500
924.00,52.510
925.00,52.499
926.00,52.490
927.00,52.464
928.00,52.460
929.00,52.447
930.00,52.381
931.00,52.409
932.00,52.363
933.00,52.346
934.00,52.345
935.00,52.304
936.00,52.283
937.00,52.292
938.00,52.261
939.00,52.280
940.00,52.228
941.00,52.217
942.00,52.329
943.00,52.186
944.00,52.157
945.00,52.151
946.00,52.130
947.00,52.098
948.00,52.088
949.00,52.055
950.00,52.049
951.00,52.040
952.00,51.992
953.00,51.958
954.00,51.949
955.00,51.907
956.00,51.902
957.00,51.861
958.00,51.889
959.00,51.835
960.00,51.831
961.00,51.805
962.00,51.840
963.00,51.773
964.00,51.774
965.00,51.756
966.00,51.734
967.00,51.741
968.00,51.709
969.00,51.743
970.00,51.714
971.00,51.708
972.00,51.693
973.00,51.726
974.00,51.726
975.00,51.697
976.00,51.724
977.00,51.723
978.00,51.754
979.00,51.714
980.00,51.723
981.00,51.728
982.00,51.687
983.00,51.697
984.00,51.690
985.00,51.699
986.00,51.664
987.00,51.669
988.00,51.657
989.00,51.649
990.00,51.626
991.00,51.615
992.00,51.639
993.00,51.585
994.00,51.586
995.00,51.593
996.00,51.570
997.00,51.558
998.00,51.537
999.00,51.550
1000.00,51.508
1001.00,51.509
1002.00,51.499
1003.00,51.487
1004.00,51.459
1005.00,51.454
1006.00,51.473
1007.00,51.423
1008.00,51.424
1009.00,51.413
1010.00,51.398
1011.00,51.382
1012.00,51.350
1013.00,51.361
1014.00,51.322
1015.00,51.335
1016.00,51.296
1017.00,51.283
1018.00,51.254
1019.00,51.237
1020.00,51.240
1021.00,51.220
1022.00,51.218
1023.00,51.167
1024.00,51.165
1025.00,51.158
1026.00,51.145
1027.00,51.121
1028.00,51.112
1029.00,51.098
1030.00,51.085
1031.00,51.086
1032.00,51.036
1033.00,51.052
1034.00,51.007
1035.00,50.981
1036.00,50.960
1037.00,50.932
1038.00,50.914
1039.00,50.878
1040.00,50.890
1041.00,50.855
1042.00,50.846
1043.00,50.822
1044.00,50.852
1045.00,50.835
1046.00,50.834
1047.00,50.844
1048.00,50.841
1049.00,50.867
1050.00,50.866
1051.00,50.889
1052.00,50.904
1053.00,50.908
1054.00,50.913
1055.00,50.937
1056.00,50.933
1057.00,50.933
1058.00,50.919
1059.00,50.911
1060.00,50.908
1061.00,50.918
1062.00,50.898
1063.00,50.905
1064.00,50.885
1065.00,50.877
1066.00,50.876
1067.00,50.856
1068.00,50.887
1069.00,50.863
1070.00,50.811
1071.00,50.803
1072.00,50.822
1073.00,50.800
1074.00,50.805
1075.00,50.783
1076.00,50.769
1077.00,50.755
1078.00,50.727
1079.00,50.727
1080.00,50.734
1081.00,50.698
1082.00,50.709
1083.00,50.696
1084.00,50.709
1085.00,50.733
1086.00,50.676
1087.00,50.674
1088.00,50.661
1089.00,50.646
1090.00,50.645
1091.00,50.645
1092.00,50.639
1093.00,50.617
1094.00,50.622
1095.00,50.600
1096.00,50.611
1097.00,50.625
1098.00,50.588
1099.00,50.588
1100.00,50.555
1101.00,50.557
1102.00,50.554
1103.00,50.535
1104.00,50.528
1105.00,50.523
1106.00,50.510
1107.00,50.495
1108.00,50.477
1109.00,50.465
1110.00,50.477
1111.00,50.454
1112.00,50.452
1113.00,50.446
1114.00,50.420
1115.00,50.449
1116.00,50.435
1117.00,50.402
1118.00,50.392
1119.00,50.398
1120.00,50.391
1121.00,50.376
1122.00,50.358
1123.00,50.358
1124.00,50.365
1125.00,50.378
1126.00,50.343
1127.00,50.351
1128.00,50.303
1129.00,50.320
1130.00,50.318
1131.00,50.308
1132.00,50.305
1133.00,50.291
1134.00,50.277
1135.00,50.274
1136.00,50.258
1137.00,50.268
1138.00,50.263
1139.00,50.250
1140.00,50.250
1141.00,50.244
1142.00,50.227
1143.00,50.224
1144.00,50.212
1145.00,50.245
1146.00,50.252
1147.00,50.200
1148.00,50.204
1149.00,50.212
1150.00,50.205
1151.00,50.211
1152.00,50.191
1153.00,50.186
1154.00,50.179
1155.00,50.181
1156.00,50.166
1157.00,50.181
1158.00,50.167
1159.00,50.170
1160.00,50.159
1161.00,50.166
1162.00,50.170
1163.00,50.164
1164.00,50.157
1165.00,50.160
1166.00,50.150
1167.00,50.151
1168.00,50.164
1169.00,50.139
1170.00,50.150
1171.00,50.133
1172.00,50.142
1173.00,50.129
1174.00,50.138
1175.00,50.135
1176.00,50.140
1177.00,50.128
1178.00,50.133
1179.00,50.142
1180.00,50.108
1181.00,50.134
1182.00,50.129
1183.00,50.111
1184.00,50.102
1185.00,50.119
1186.00,50.094
1187.00,50.111
1188.00,50.094
1189.00,50.099
1190.00,50.094
1191.00,50.074
1192.00,50.101
1193.00,50.092
1194.00,50.091
1195.00,50.072
1196.00,50.089
1197.00,50.081
1198.00,50.068
1199.00,50.060
1200.00,50.076
1201.00,50.082
1202.00,50.057
1203.00,50.057
1204.00,50.069
1205.00,50.092
1206.00,50.090
1207.00,50.075
1208.00,50.055
1209.00,50.073
1210.00,50.063
1211.00,50.067
1212.00,50.090
1213.00,50.034
1214.00,50.060
1215.00,50.061
1216.00,50.055
1217.00,50.062
1218.00,50.054
1219.00,50.067
1220.00,50.060
1221.00,50.064
1222.00,50.058
1223.00,50.072
1224.00,50.047
1225.00,50.050
1226.00,50.063
1227.00,50.046
1228.00,50.065
1229.00,50.072
1230.00,50.108
1231.00,50.099
1232.00,50.111
1233.00,50.105
1234.00,50.113
1235.00,50.104
1236.00,50.112
1237.00,50.122
1238.00,50.097
1239.00,50.119
1240.00,50.095
1241.00,50.093
1242.00,50.108
1243.00,50.109
1244.00,50.089
1245.00,50.124
1246.00,50.112
1247.00,50.116
1248.00,50.112
1249.00,50.112
1250.00,50.119
1251.00,50.113
1252.00,50.134
1253.00,50.127
1254.00,50.142
1255.00,50.136
1256.00,50.138
1257.00,50.096
1258.00,50.158
1259.00,50.146
1260.00,50.155
1261.00,50.153
1262.00,50.148
1263.00,50.135
1264.00,50.150
1265.00,50.146
1266.00,50.154
1267.00,50.171
1268.00,50.176
1269.00,50.164
1270.00,50.170
1271.00,50.157
1272.00,50.181
1273.00,50.198
1274.00,50.180
1275.00,50.198
1276.00,50.186
1277.00,50.202
1278.00,50.220
1279.00,50.205
1280.00,50.199
1281.00,50.213
1282.00,50.223
1283.00,50.215
1284.00,50.239
1285.00,50.214
1286.00,50.240
1287.00,50.224
1288.00,50.252
1289.00,50.241
1290.00,50.252
1291.00,50.260
1292.00,50.262
1293.00,50.251
1294.00,50.267
1295.00,50.277
1296.00,50.275
1297.00,50.304
1298.00,50.324
1299.00,50.288
1300.00,50.307
1301.00,50.298
1302.00,50.313
1303.00,50.329
1304.00,50.296
1305.00,50.323
1306.00,50.325
1307.00,50.331
1308.00,50.336
1309.00,50.321
1310.00,50.332
1311.00,50.324
1312.00,50.318
1313.00,50.332
1314.00,50.359
1315.00,50.375
1316.00,50.376
1317.00,50.389
1318.00,50.368
1319.00,50.381
1320.00,50.400
1321.00,50.547
1322.00,50.562
1323.00,50.536
1324.00,50.539
1325.00,50.519
1326.00,50.571
1327.00,50.527
1328.00,50.542
1329.00,50.562
1330.00,50.552
1331.00,50.551
1332.00,50.545
1333.00,50.548
1334.00,50.570
1335.00,50.576
1336.00,50.585
1337.00,50.631
1338.00,50.705
1339.00,50.755
1340.00,50.799
1341.00,50.850
1342.00,50.910
1343.00,50.983
1344.00,51.031
1345.00,51.077
1346.00,51.107
1347.00,51.126
1348.00,51.158
1349.00,51.178
1350.00,51.186
1351.00,51.212
1352.00,51.201
1353.00,51.202
1354.00,51.221
1355.00,51.171
1356.00,51.262
1357.00,51.177
1358.00,51.243
1359.00,51.278
1360.00,51.329
1361.00,51.270
1362.00,51.165
1363.00,51.295
1364.00,51.271
1365.00,51.243
1366.00,51.262
1367.00,51.247
1368.00,51.199
1369.00,51.247
1370.00,51.230
1371.00,51.151
1372.00,51.199
1373.00,51.218
1374.00,51.247
1375.00,51.212
1376.00,51.241
1377.00,51.223
1378.00,51.238
1379.00,51.221
1380.00,51.235
1381.00,51.175
1382.00,51.236
1383.00,51.203
1384.00,51.205
1385.00,51.198
1386.00,51.238
1387.00,51.146
1388.00,51.252
1389.00,51.070
1390.00,51.232
1391.00,51.204
1392.00,51.208
1393.00,51.195
1394.00,51.237
1395.00,51.195
1396.00,51.145
1397.00,51.089
1398.00,51.217
1399.00,51.301
1400.00,51.294
1401.00,51.168
1402.00,51.313
1403.00,51.337
1404.00,51.210
1405.00,51.257
1406.00,51.248
1407.00,51.257
1408.00,51.336
1409.00,51.231
1410.00,51.292
1411.00,51.249
1412.00,51.341
1413.00,51.287
1414.00,51.310
1415.00,51.317
1416.00,51.305
1417.00,51.368
1418.00,51.356
1419.00,51.340
1420.00,51.367
1421.00,51.401
1422.00,51.383
1423.00,51.403
1424.00,51.406
1425.00,51.419
1426.00,51.417
1427.00,51.440
1428.00,51.449
1429.00,51.449
1430.00,51.473
1431.00,51.494
1432.00,51.502
1433.00,51.540
1434.00,51.507
1435.00,51.545
1436.00,51.555
1437.00,51.537
1438.00,51.557
1439.00,51.601
1440.00,51.601
1441.00,51.601
1442.00,51.638
1443.00,51.620
1444.00,51.702
1445.00,51.674
1446.00,51.680
1447.00,51.700
1448.00,51.771
1449.00,51.746
1450.00,51.765
1451.00,51.774
1452.00,51.773
1453.00,51.805
1454.00,51.830
1455.00,51.836
1456.00,51.852
1457.00,51.854
1458.00,51.882
1459.00,51.898
1460.00,51.891
1461.00,51.914
1462.00,51.922
1463.00,51.943
1464.00,51.969
1465.00,51.974
1466.00,51.982
1467.00,51.991
1468.00,52.027
1469.00,52.021
1470.00,52.032
1471.00,52.047
1472.00,52.068
1473.00,52.063
1474.00,52.097
1475.00,52.113
1476.00,52.119
1477.00,52.109
1478.00,52.134
1479.00,52.153
1480.00,52.166
1481.00,52.179
1482.00,52.198
1483.00,52.212
1484.00,52.228
1485.00,52.238
1486.00,52.249
1487.00,52.260
1488.00,52.269
1489.00,52.268
1490.00,52.287
1491.00,52.307
1492.00,52.315
1493.00,52.304
1494.00,52.324
1495.00,52.317
1496.00,52.340
1497.00,52.345
1498.00,52.360
1499.00,52.371
1500.00,52.392
1501.00, 
1502.00, 
1503.00, 
1504.00, 
1505.00, 
1506.00, 
1507.00, 
1508.00, 
1509.00, 
1510.00, 
1511.00, 
1512.00, 
1513.00, 
1514.00, 
1515.00, 
1516.00, 
1517.00, 
1518.00, 
1519.00, 
1520.00, 
1521.00, 
1522.00, 
1523.00, 
1524.00, 
1525.00, 
1526.00, 
1527.00, 
1528.00, 
1529.00, 
1530.00, 
1531.00, 
1532.00, 
1533.00, 
1534.00, 
1535.00, 
1536.00, 
1537.00, 
1538.00, 
1539.00, 
1540.00, 
1541.00, 
1542.00, 
1543.00, 
1544.00, 
1545.00, 
1546.00, 
1547.00, 
1548.00, 
1549.00, 
1550.00, 
1551.00, 
1552.00, 
1553.00, 
1554.00, 
1555.00, 
1556.00, 
1557.00, 
1558.00, 
1559.00, 
1560.00, 
1561.00, 
1562.00, 
1563.00, 
1564.00, 
1565.00, 
1566.00, 
1567.00, 
1568.00, 
1569.00, 
1570.00, 
1571.00, 
1572.00, 
1573.00, 
1574.00, 
1575.00, 
1576.00, 
1577.00, 
1578.00, 
1579.00, 
1580.00, 
1581.00, 
1582.00, 
1583.00, 
1584.00, 
1585.00, 
1586.00, 
1587.00, 
1588.00, 
1589.00, 
1590.00, 
1591.00, 
1592.00, 
1593.00, 
1594.00, 
1595.00, 
1596.00, 
1597.00, 
1598.00, 
1599.00, 
1600.00, 
1601.00, 
1602.00, 
1603.00, 
1604.00, 
1605.00, 
1606.00, 
1607.00, 
1608.00, 
1609.00, 
1610.00, 
1611.00, 
1612.00, 
1613.00, 
1614.00, 
1615.00, 
1616.00, 
1617.00, 
1618.00, 
1619.00, 
1620.00, 
1621.00, 
1622.00, 
1623.00, 
1624.00, 
1625.00, 
1626.00, 
1627.00, 
1628.00, 
1629.00, 
1630.00, 
1631.00, 
1632.00, 
1633.00, 
1634.00, 
1635.00, 
1636.00, 
1637.00, 
1638.00, 
1639.00, 
1640.00, 
1641.00, 
1642.00, 
1643.00, 
1644.00, 
1645.00, 
1646.00, 
1647.00, 
1648.00, 
1649.00, 
1650.00, 
1651.00, 
1652.00, 
1653.00, 
1654.00, 
1655.00, 
1656.00, 
1657.00, 
1658.00, 
1659.00, 
1660.00, 
1661.00, 
1662.00, 
1663.00, 
1664.00, 
1665.00, 
1666.00, 
1667.00, 
1668.00, 
1669.00, 
1670.00, 
1671.00, 
1672.00, 
1673.00, 
1674.00, 
1675.00, 
1676.00, 
1677.00, 
1678.00, 
1679.00, 
1680.00, 
1681.00, 
1682.00, 
1683.00, 
1684.00, 
1685.00, 
1686.00, 
1687.00, 
1688.00, 
1689.00, 
1690.00, 
1691.00, 
1692.00, 
1693.00, 
1694.00, 
1695.00, 
1696.00, 
1697.00, 
1698.00, 
1699.00, 
1700.00, 
1701.00, 
1702.00, 
1703.00, 
1704.00, 
1705.00, 
1706.00, 
1707.00, 
1708.00, 
1709.00, 
1710.00, 
1711.00, 
1712.00, 
1713.00, 
1714.00, 
1715.00, 
1716.00, 
1717.00, 
1718.00, 
1719.00, 
1720.00, 
1721.00, 
1722.00, 
1723.00, 
1724.00, 
1725.00, 
1726.00, 
1727.00, 
1728.00, 
1729.00, 
1730.00, 
1731.00, 
1732.00, 
1733.00, 
1734.00, 
1735.00, 
1736.00, 
1737.00, 
1738.00, 
1739.00, 
1740.00, 
1741.00, 
1742.00, 
1743.00, 
1744.00, 
1745.00, 
1746.00, 
1747.00, 
1748.00, 
1749.00, 
1750.00, 
1751.00, 
1752.00, 
1753.00, 
1754.00, 
1755.00, 
1756.00, 
1757.00, 
1758.00, 
1759.00, 
1760.00, 
1761.00, 
1762.00, 
1763.00, 
1764.00, 
1765.00, 
1766.00, 
1767.00, 
1768.00, 
1769.00, 
1770.00, 
1771.00, 
1772.00, 
1773.00, 
1774.00, 
1775.00, 
1776.00, 
1777.00, 
1778.00, 
1779.00, 
1780.00, 
1781.00, 
1782.00, 
1783.00, 
1784.00, 
1785.00, 
1786.00, 
1787.00, 
1788.00, 
1789.00, 
1790.00, 
1791.00, 
1792.00, 
1793.00, 
1794.00, 
1795.00, 
1796.00, 
1797.00, 
1798.00, 
1799.00, 
1800.00, 
1801.00, 
1802.00, 
1803.00, 
1804.00, 
1805.00, 
1806.00, 
1807.00, 
1808.00, 
1809.00, 
1810.00, 
1811.00, 
1812.00, 
1813.00, 
1814.00, 
1815.00, 
1816.00, 
1817.00, 
1818.00, 
1819.00, 
1820.00, 
1821.00, 
1822.00, 
1823.00, 
1824.00, 
1825.00, 
1826.00, 
1827.00, 
1828.00, 
1829.00, 
1830.00, 
1831.00, 
1832.00, 
1833.00, 
1834.00, 
1835.00, 
1836.00, 
1837.00, 
1838.00, 
1839.00, 
1840.00, 
1841.00, 
1842.00, 
1843.00, 
1844.00, 
1845.00, 
1846.00, 
1847.00, 
1848.00, 
1849.00, 
1850.00, 
1851.00, 
1852.00, 
1853.00, 
1854.00, 
1855.00, 
1856.00, 
1857.00, 
1858.00, 
1859.00, 
1860.00, 
1861.00, 
1862.00, 
1863.00, 
1864.00, 
1865.00, 
1866.00, 
1867.00, 
1868.00, 
1869.00, 
1870.00, 
1871.00, 
1872.00, 
1873.00, 
1874.00, 
1875.00, 
1876.00, 
1877.00, 
1878.00, 
1879.00, 
1880.00, 
1881.00, 
1882.00, 
1883.00, 
1884.00, 
1885.00, 
1886.00, 
1887.00, 
1888.00, 
1889.00, 
1890.00, 
1891.00, 
1892.00, 
1893.00, 
1894.00, 
1895.00, 
1896.00, 
1897.00, 
1898.00, 
1899.00, 
1900.00, 
1901.00, 
1902.00, 
1903.00, 
1904.00, 
1905.00, 
1906.00, 
1907.00, 
1908.00, 
1909.00, 
1910.00, 
1911.00, 
1912.00, 
1913.00, 
1914.00, 
1915.00, 
1916.00, 
1917.00, 
1918.00, 
1919.00, 
1920.00, 
1921.00, 
1922.00, 
1923.00, 
1924.00, 
1925.00, 
1926.00, 
1927.00, 
1928.00, 
1929.00, 
1930.00, 
1931.00, 
1932.00, 
1933.00, 
1934.00, 
1935.00, 
1936.00, 
1937.00, 
1938.00, 
1939.00, 
1940.00, 
1941.00, 
1942.00, 
1943.00, 
1944.00, 
1945.00, 
1946.00, 
1947.00, 
1948.00, 
1949.00, 
1950.00, 
1951.00, 
1952.00, 
1953.00, 
1954.00, 
1955.00, 
1956.00, 
1957.00, 
1958.00, 
1959.00, 
1960.00, 
1961.00, 
1962.00, 
1963.00, 
1964.00, 
1965.00, 
1966.00, 
1967.00, 
1968.00, 
1969.00, 
1970.00, 
1971.00, 
1972.00, 
1973.00, 
1974.00, 
1975.00, 
1976.00, 
1977.00, 
1978.00, 
1979.00, 
1980.00, 
1981.00, 
1982.00, 
1983.00, 
1984.00, 
1985.00, 
1986.00, 
1987.00, 
1988.00, 
1989.00, 
1990.00, 
1991.00, 
1992.00, 
1993.00, 
1994.00, 
1995.00, 
1996.00, 
1997.00, 
1998.00, 
1999.00, 
2000.00, 
2001.00, 
2002.00, 
2003.00, 
2004.00, 
2005.00, 
2006.00, 
2007.00, 
2008.00, 
2009.00, 
2010.00, 
2011.00, 
2012.00, 
2013.00, 
2014.00, 
2015.00, 
2016.00, 
2017.00, 
2018.00, 
2019.00, 
2020.00, 
2021.00, 
2022.00, 
2023.00, 
2024.00, 
2025.00, 
2026.00, 
2027.00, 
2028.00, 
2029.00, 
2030.00, 
2031.00, 
2032.00, 
2033.00, 
2034.00, 
2035.00, 
2036.00, 
2037.00, 
2038.00, 
2039.00, 
2040.00, 
2041.00, 
2042.00, 
2043.00, 
2044.00, 
2045.00, 
2046.00, 
2047.00, 
2048.00, 
2049.00, 
2050.00, 
2051.00, 
2052.00, 
2053.00, 
2054.00, 
2055.00, 
2056.00, 
2057.00, 
2058.00, 
2059.00, 
2060.00, 
2061.00, 
2062.00, 
2063.00, 
2064.00, 
2065.00, 
2066.00, 
2067.00, 
2068.00, 
2069.00, 
2070.00, 
2071.00, 
2072.00, 
2073.00, 
2074.00, 
2075.00, 
2076.00, 
2077.00, 
2078.00, 
2079.00, 
2080.00, 
2081.00, 
2082.00, 
2083.00, 
2084.00, 
2085.00, 
2086.00, 
2087.00, 
2088.00, 
2089.00, 
2090.00, 
2091.00, 
2092.00, 
2093.00, 
2094.00, 
2095.00, 
2096.00, 
2097.00, 
2098.00, 
2099.00, 
2100.00, 
2101.00, 
2102.00, 
2103.00, 
2104.00, 
2105.00, 
2106.00, 
2107.00, 
2108.00, 
2109.00, 
2110.00, 
2111.00, 
2112.00, 
2113.00, 
2114.00, 
2115.00, 
2116.00, 
2117.00, 
2118.00, 
2119.00, 
2120.00, 
2121.00, 
2122.00, 
2123.00, 
2124.00, 
2125.00, 
2126.00, 
2127.00, 
2128.00, 
2129.00, 
2130.00, 
2131.00, 
2132.00, 
2133.00, 
2134.00, 
2135.00, 
2136.00, 
2137.00, 
2138.00, 
2139.00, 
2140.00, 
2141.00, 
2142.00, 
2143.00, 
2144.00, 
2145.00, 
2146.00, 
2147.00, 
2148.00, 
2149.00, 
2150.00, 
2151.00, 
2152.00, 
2153.00, 
2154.00, 
2155.00, 
2156.00, 
2157.00, 
2158.00, 
2159.00, 
2160.00, 
2161.00, 
2162.00, 
2163.00, 
2164.00, 
2165.00, 
2166.00, 
2167.00, 
2168.00, 
2169.00, 
2170.00, 
2171.00, 
2172.00, 
2173.00, 
2174.00, 
2175.00, 
2176.00, 
2177.00, 
2178.00, 
2179.00, 
2180.00, 
2181.00, 
2182.00, 
2183.00, 
2184.00, 
2185.00, 
2186.00, 
2187.00, 
2188.00, 
2189.00, 
2190.00, 
2191.00, 
2192.00, 
2193.00, 
2194.00, 
2195.00, 
2196.00, 
2197.00, 
2198.00, 
2199.00, 
2200.00, 
2201.00, 
2202.00, 
2203.00, 
2204.00, 
2205.00, 
2206.00, 
2207.00, 
2208.00, 
2209.00, 
2210.00, 
2211.00, 
2212.00, 
2213.00, 
2214.00, 
2215.00, 
2216.00, 
2217.00, 
2218.00, 
2219.00, 
2220.00, 
2221.00, 
2222.00, 
2223.00, 
2224.00, 
2225.00, 
2226.00, 
2227.00, 
2228.00, 
2229.00, 
2230.00, 
2231.00, 
2232.00, 
2233.00, 
2234.00, 
2235.00, 
2236.00, 
2237.00, 
2238.00, 
2239.00, 
2240.00, 
2241.00, 
2242.00, 
2243.00, 
2244.00, 
2245.00, 
2246.00, 
2247.00, 
2248.00, 
2249.00, 
2250.00, 
2251.00, 
2252.00, 
2253.00, 
2254.00, 
2255.00, 
2256.00, 
2257.00, 
2258.00, 
2259.00, 
2260.00, 
2261.00, 
2262.00, 
2263.00, 
2264.00, 
2265.00, 
2266.00, 
2267.00, 
2268.00, 
2269.00, 
2270.00, 
2271.00, 
2272.00, 
2273.00, 
2274.00, 
2275.00, 
2276.00, 
2277.00, 
2278.00, 
2279.00, 
2280.00, 
2281.00, 
2282.00, 
2283.00, 
2284.00, 
2285.00, 
2286.00, 
2287.00, 
2288.00, 
2289.00, 
2290.00, 
2291.00, 
2292.00, 
2293.00, 
2294.00, 
2295.00, 
2296.00, 
2297.00, 
2298.00, 
2299.00, 
2300.00, 
2301.00, 
2302.00, 
2303.00, 
2304.00, 
2305.00, 
2306.00, 
2307.00, 
2308.00, 
2309.00, 
2310.00, 
2311.00, 
2312.00, 
2313.00, 
2314.00, 
2315.00, 
2316.00, 
2317.00, 
2318.00, 
2319.00, 
2320.00, 
2321.00, 
2322.00, 
2323.00, 
2324.00, 
2325.00, 
2326.00, 
2327.00, 
2328.00, 
2329.00, 
2330.00, 
2331.00, 
2332.00, 
2333.00, 
2334.00, 
2335.00, 
2336.00, 
2337.00, 
2338.00, 
2339.00, 
2340.00, 
2341.00, 
2342.00, 
2343.00, 
2344.00, 
2345.00, 
2346.00, 
2347.00, 
2348.00, 
2349.00, 
2350.00, 
2351.00, 
2352.00, 
2353.00, 
2354.00, 
2355.00, 
2356.00, 
2357.00, 
2358.00, 
2359.00, 
2360.00, 
2361.00, 
2362.00, 
2363.00, 
2364.00, 
2365.00, 
2366.00, 
2367.00, 
2368.00, 
2369.00, 
2370.00, 
2371.00, 
2372.00, 
2373.00, 
2374.00, 
2375.00, 
2376.00, 
2377.00, 
2378.00, 
2379.00, 
2380.00, 
2381.00, 
2382.00, 
2383.00, 
2384.00, 
2385.00, 
2386.00, 
2387.00, 
2388.00, 
2389.00, 
2390.00, 
2391.00, 
2392.00, 
2393.00, 
2394.00, 
2395.00, 
2396.00, 
2397.00, 
2398.00, 
2399.00, 
2400.00, 
2401.00, 
2402.00, 
2403.00, 
2404.00, 
2405.00, 
2406.00, 
2407.00, 
2408.00, 
2409.00, 
2410.00, 
2411.00, 
2412.00, 
2413.00, 
2414.00, 
2415.00, 
2416.00, 
2417.00, 
2418.00, 
2419.00, 
2420.00, 
2421.00, 
2422.00, 
2423.00, 
2424.00, 
2425.00, 
2426.00, 
2427.00, 
2428.00, 
2429.00, 
2430.00, 
2431.00, 
2432.00, 
2433.00, 
2434.00, 
2435.00, 
2436.00, 
2437.00, 
2438.00, 
2439.00, 
2440.00, 
2441.00, 
2442.00, 
2443.00, 
2444.00, 
2445.00, 
2446.00, 
2447.00, 
2448.00, 
2449.00, 
2450.00, 
2451.00, 
2452.00, 
2453.00, 
2454.00, 
2455.00, 
2456.00, 
2457.00, 
2458.00, 
2459.00, 
2460.00, 
2461.00, 
2462.00, 
2463.00, 
2464.00, 
2465.00, 
2466.00, 
2467.00, 
2468.00, 
2469.00, 
2470.00, 
2471.00, 
2472.00, 
2473.00, 
2474.00, 
2475.00, 
2476.00, 
2477.00, 
2478.00, 
2479.00, 
2480.00, 
2481.00, 
2482.00, 
2483.00, 
2484.00, 
2485.00, 
2486.00, 
2487.00, 
2488.00, 
2489.00, 
2490.00, 
2491.00, 
2492.00, 
2493.00, 
2494.00, 
2495.00, 
2496.00, 
2497.00, 
2498.00, 
2499.00, 
2500.00, 
2501.00, 
2502.00, 
2503.00, 
2504.00, 
2505.00, 
2506.00, 
2507.00, 
2508.00, 
2509.00, 
2510.00, 
2511.00, 
2512.00, 
2513.00, 
2514.00, 
2515.00, 
2516.00, 
2517.00, 
2518.00, 
2519.00, 
2520.00, 
2521.00, 
2522.00, 
2523.00, 
2524.00, 
2525.00, 
2526.00, 
2527.00, 
2528.00, 
2529.00, 
2530.00, 
2531.00, 
2532.00, 
2533.00, 
2534.00, 
2535.00, 
2536.00, 
2537.00, 
2538.00, 
2539.00, 
2540.00, 
2541.00, 
2542.00, 
2543.00, 
2544.00, 
2545.00, 
2546.00, 
2547.00, 
2548.00, 
2549.00, 
2550.00, 
2551.00, 
2552.00, 
2553.00, 
2554.00, 
2555.00, 
2556.00, 
2557.00, 
2558.00, 
2559.00, 
2560.00, 
2561.00, 
2562.00, 
2563.00, 
2564.00, 
2565.00, 
2566.00, 
2567.00, 
2568.00, 
2569.00, 
2570.00, 
2571.00, 
2572.00, 
2573.00, 
2574.00, 
2575.00, 
2576.00, 
2577.00, 
2578.00, 
2579.00, 
2580.00, 
2581.00, 
2582.00, 
2583.00, 
2584.00, 
2585.00, 
2586.00, 
2587.00, 
2588.00, 
2589.00, 
2590.00, 
2591.00, 
2592.00, 
2593.00, 
2594.00, 
2595.00, 
2596.00, 
2597.00, 
2598.00, 
2599.00, 
2600.00, 
