"1aP2 - RawData"
"Wavelength nm.","T%"
200.00,0.001
201.00,0.001
202.00,-0.000
203.00,0.000
204.00,0.003
205.00,0.002
206.00,0.003
207.00,-0.003
208.00,0.004
209.00,-0.001
210.00,0.002
211.00,0.001
212.00,0.001
213.00,0.001
214.00,0.003
215.00,-0.001
216.00,0.002
217.00,-0.003
218.00,0.003
219.00,0.002
220.00,-0.000
221.00,0.000
222.00,0.002
223.00,-0.002
224.00,0.001
225.00,0.001
226.00,0.003
227.00,-0.002
228.00,0.001
229.00,0.001
230.00,-0.000
231.00,0.000
232.00,0.002
233.00,-0.000
234.00,0.002
235.00,0.003
236.00,0.001
237.00,0.003
238.00,-0.000
239.00,0.001
240.00,0.000
241.00,0.002
242.00,0.001
243.00,-0.000
244.00,0.001
245.00,0.000
246.00,-0.001
247.00,-0.001
248.00,-0.000
249.00,0.001
250.00,0.000
251.00,-0.001
252.00,-0.000
253.00,-0.001
254.00,0.001
255.00,0.001
256.00,0.002
257.00,0.001
258.00,-0.001
259.00,-0.001
260.00,-0.001
261.00,0.000
262.00,0.001
263.00,0.000
264.00,-0.002
265.00,0.001
266.00,-0.001
267.00,-0.001
268.00,-0.001
269.00,0.000
270.00,0.001
271.00,-0.000
272.00,0.001
273.00,0.001
274.00,0.001
275.00,-0.001
276.00,0.002
277.00,-0.000
278.00,-0.000
279.00,0.001
280.00,0.000
281.00,-0.000
282.00,0.002
283.00,0.001
284.00,-0.000
285.00,0.001
286.00,0.002
287.00,-0.001
288.00,0.001
289.00,0.001
290.00,-0.000
291.00,-0.000
292.00,0.001
293.00,0.001
294.00,0.001
295.00,-0.001
296.00,0.002
297.00,0.000
298.00,0.002
299.00,0.001
300.00,0.003
301.00,0.005
302.00,0.007
303.00,0.009
304.00,0.018
305.00,0.031
306.00,0.045
307.00,0.069
308.00,0.113
309.00,0.168
310.00,0.229
311.00,0.314
312.00,0.423
313.00,0.578
314.00,0.736
315.00,0.970
316.00,1.211
317.00,1.532
318.00,1.861
319.00,2.280
320.00,2.765
321.00,3.251
322.00,3.848
323.00,4.502
324.00,5.152
325.00,5.857
326.00,6.439
327.00,7.358
328.00,8.146
329.00,8.950
330.00,9.778
331.00,10.618
332.00,11.495
333.00,12.413
334.00,13.267
335.00,14.092
336.00,14.927
337.00,15.822
338.00,16.685
339.00,17.367
340.00,18.127
341.00,18.777
342.00,19.620
343.00,20.259
344.00,20.870
345.00,21.559
346.00,22.100
347.00,22.597
348.00,23.116
349.00,23.581
350.00,24.004
351.00,24.427
352.00,24.791
353.00,25.137
354.00,25.445
355.00,25.805
356.00,26.110
357.00,26.314
358.00,26.556
359.00,26.810
360.00,27.091
361.00,27.223
362.00,27.415
363.00,27.626
364.00,27.681
365.00,27.768
366.00,27.891
367.00,27.999
368.00,28.062
369.00,28.057
370.00,28.153
371.00,28.196
372.00,28.075
373.00,28.141
374.00,28.205
375.00,28.182
376.00,28.101
377.00,27.971
378.00,27.967
379.00,27.877
380.00,27.851
381.00,27.857
382.00,27.811
383.00,27.879
384.00,27.886
385.00,27.943
386.00,28.016
387.00,28.004
388.00,28.146
389.00,28.009
390.00,28.167
391.00,28.204
392.00,28.261
393.00,28.268
394.00,28.308
395.00,28.319
396.00,28.315
397.00,28.316
398.00,28.325
399.00,28.330
400.00,28.369
401.00,28.308
402.00,28.294
403.00,28.331
404.00,28.360
405.00,28.301
406.00,28.276
407.00,28.215
408.00,28.279
409.00,28.210
410.00,28.117
411.00,28.141
412.00,28.100
413.00,28.164
414.00,28.078
415.00,28.114
416.00,28.178
417.00,28.123
418.00,28.142
419.00,28.245
420.00,28.330
421.00,28.337
422.00,28.323
423.00,28.373
424.00,28.382
425.00,28.440
426.00,28.461
427.00,28.554
428.00,28.554
429.00,28.589
430.00,28.658
431.00,28.757
432.00,28.789
433.00,28.831
434.00,28.818
435.00,28.904
436.00,28.953
437.00,29.072
438.00,29.166
439.00,29.224
440.00,29.312
441.00,29.364
442.00,29.425
443.00,29.526
444.00,29.635
445.00,29.708
446.00,29.808
447.00,29.892
448.00,30.000
449.00,30.104
450.00,30.213
451.00,30.293
452.00,30.396
453.00,30.524
454.00,30.613
455.00,30.702
456.00,30.837
457.00,30.930
458.00,31.006
459.00,31.171
460.00,31.316
461.00,31.478
462.00,31.536
463.00,31.698
464.00,31.783
465.00,31.890
466.00,32.021
467.00,32.164
468.00,32.249
469.00,32.357
470.00,32.452
471.00,32.556
472.00,32.659
473.00,32.719
474.00,32.906
475.00,33.029
476.00,33.029
477.00,33.148
478.00,33.265
479.00,33.472
480.00,33.578
481.00,33.661
482.00,33.843
483.00,33.958
484.00,34.146
485.00,34.296
486.00,34.459
487.00,34.592
488.00,34.724
489.00,34.919
490.00,35.040
491.00,35.106
492.00,35.373
493.00,35.478
494.00,35.453
495.00,35.561
496.00,35.744
497.00,35.821
498.00,35.957
499.00,36.096
500.00,36.226
501.00,36.336
502.00,36.462
503.00,36.593
504.00,36.620
505.00,36.729
506.00,36.808
507.00,36.898
508.00,36.975
509.00,37.233
510.00,37.288
511.00,37.342
512.00,37.514
513.00,37.657
514.00,37.731
515.00,37.866
516.00,37.997
517.00,38.046
518.00,38.187
519.00,38.212
520.00,38.278
521.00,38.363
522.00,38.456
523.00,38.452
524.00,38.546
525.00,38.693
526.00,38.752
527.00,38.809
528.00,38.840
529.00,39.014
530.00,39.168
531.00,39.265
532.00,39.363
533.00,39.462
534.00,39.498
535.00,39.608
536.00,39.686
537.00,39.735
538.00,39.798
539.00,39.832
540.00,39.927
541.00,39.903
542.00,39.958
543.00,39.981
544.00,40.086
545.00,40.124
546.00,40.142
547.00,40.325
548.00,40.363
549.00,40.419
550.00,40.435
551.00,40.538
552.00,40.613
553.00,40.612
554.00,40.713
555.00,40.718
556.00,40.750
557.00,40.862
558.00,40.859
559.00,40.970
560.00,40.992
561.00,41.097
562.00,41.095
563.00,41.110
564.00,41.177
565.00,41.203
566.00,41.192
567.00,41.237
568.00,41.314
569.00,41.305
570.00,41.358
571.00,41.432
572.00,41.437
573.00,41.349
574.00,41.409
575.00,41.384
576.00,41.452
577.00,41.499
578.00,41.575
579.00,41.539
580.00,41.582
581.00,41.737
582.00,41.869
583.00,41.838
584.00,41.947
585.00,42.044
586.00,42.041
587.00,42.144
588.00,42.145
589.00,41.996
590.00,42.142
591.00,42.169
592.00,42.278
593.00,42.328
594.00,42.262
595.00,42.307
596.00,42.380
597.00,42.422
598.00,42.518
599.00,42.498
600.00,42.568
601.00,42.613
602.00,42.639
603.00,42.549
604.00,42.599
605.00,42.686
606.00,42.673
607.00,42.731
608.00,42.896
609.00,42.950
610.00,42.831
611.00,42.896
612.00,42.889
613.00,42.940
614.00,43.006
615.00,43.048
616.00,43.129
617.00,43.130
618.00,43.093
619.00,43.172
620.00,43.164
621.00,43.131
622.00,43.333
623.00,43.476
624.00,43.449
625.00,43.528
626.00,43.530
627.00,43.558
628.00,43.515
629.00,43.528
630.00,43.549
631.00,43.610
632.00,43.753
633.00,43.802
634.00,43.723
635.00,43.873
636.00,44.095
637.00,44.211
638.00,44.172
639.00,44.274
640.00,44.280
641.00,44.326
642.00,44.408
643.00,44.492
644.00,44.682
645.00,44.712
646.00,44.740
647.00,44.777
648.00,44.794
649.00,44.792
650.00,44.776
651.00,44.873
652.00,44.970
653.00,44.976
654.00,45.103
655.00,45.172
656.00,45.348
657.00,45.312
658.00,45.370
659.00,45.475
660.00,45.430
661.00,45.371
662.00,45.560
663.00,45.672
664.00,45.934
665.00,46.093
666.00,46.077
667.00,46.079
668.00,46.147
669.00,46.337
670.00,46.426
671.00,46.460
672.00,47.171
673.00,46.530
674.00,46.634
675.00,46.713
676.00,46.863
677.00,47.006
678.00,46.826
679.00,46.879
680.00,47.105
681.00,47.244
682.00,47.137
683.00,47.123
684.00,47.311
685.00,47.401
686.00,47.229
687.00,47.491
688.00,47.568
689.00,47.488
690.00,47.708
691.00,48.006
692.00,47.651
693.00,47.667
694.00,47.916
695.00,48.162
696.00,48.090
697.00,48.059
698.00,48.121
699.00,48.286
700.00,48.355
701.00,48.406
702.00,48.495
703.00,48.727
704.00,48.737
705.00,48.428
706.00,48.673
707.00,48.658
708.00,48.660
709.00,49.175
710.00,49.049
711.00,48.897
712.00,48.949
713.00,49.144
714.00,49.121
715.00,49.166
716.00,49.128
717.00,49.301
718.00,49.366
719.00,49.353
720.00,49.436
721.00,53.804
722.00,53.824
723.00,53.887
724.00,53.828
725.00,53.937
726.00,53.897
727.00,53.795
728.00,53.944
729.00,53.848
730.00,53.941
731.00,53.991
732.00,53.912
733.00,53.989
734.00,53.950
735.00,54.092
736.00,53.940
737.00,54.105
738.00,54.080
739.00,54.135
740.00,54.106
741.00,54.102
742.00,54.205
743.00,54.071
744.00,54.107
745.00,54.177
746.00,54.110
747.00,54.135
748.00,54.084
749.00,54.119
750.00,54.094
751.00,54.050
752.00,54.074
753.00,54.115
754.00,54.110
755.00,54.013
756.00,54.007
757.00,54.099
758.00,54.116
759.00,54.061
760.00,54.114
761.00,54.042
762.00,54.070
763.00,54.125
764.00,54.055
765.00,54.065
766.00,54.089
767.00,54.101
768.00,54.122
769.00,54.065
770.00,54.131
771.00,54.109
772.00,54.134
773.00,54.117
774.00,54.115
775.00,54.120
776.00,54.099
777.00,54.147
778.00,54.069
779.00,54.137
780.00,54.100
781.00,54.122
782.00,54.091
783.00,54.105
784.00,54.111
785.00,54.032
786.00,54.118
787.00,54.020
788.00,53.964
789.00,54.000
790.00,53.951
791.00,54.069
792.00,53.921
793.00,53.979
794.00,53.963
795.00,53.951
796.00,53.957
797.00,53.901
798.00,53.955
799.00,53.780
800.00,53.827
801.00,53.840
802.00,53.874
803.00,53.845
804.00,53.743
805.00,53.801
806.00,53.679
807.00,53.785
808.00,53.688
809.00,53.670
810.00,53.680
811.00,53.753
812.00,53.675
813.00,53.589
814.00,53.580
815.00,53.656
816.00,53.641
817.00,53.584
818.00,53.474
819.00,53.559
820.00,53.420
821.00,53.580
822.00,53.504
823.00,53.439
824.00,53.559
825.00,53.388
826.00,53.462
827.00,53.494
828.00,53.495
829.00,53.389
830.00,53.412
831.00,55.908
832.00,55.917
833.00,55.862
834.00,55.867
835.00,55.811
836.00,55.844
837.00,55.803
838.00,55.770
839.00,55.713
840.00,55.688
841.00,55.724
842.00,55.656
843.00,55.662
844.00,55.825
845.00,55.648
846.00,55.661
847.00,55.638
848.00,55.653
849.00,55.545
850.00,55.514
851.00,55.479
852.00,55.510
853.00,55.422
854.00,55.406
855.00,55.424
856.00,55.380
857.00,55.343
858.00,55.306
859.00,55.274
860.00,55.284
861.00,55.288
862.00,55.208
863.00,55.265
864.00,55.212
865.00,55.220
866.00,55.227
867.00,55.247
868.00,55.203
869.00,55.177
870.00,55.292
871.00,55.189
872.00,55.176
873.00,55.144
874.00,55.198
875.00,55.071
876.00,55.151
877.00,55.094
878.00,55.122
879.00,55.105
880.00,55.077
881.00,55.042
882.00,55.105
883.00,55.008
884.00,54.969
885.00,55.006
886.00,54.967
887.00,54.935
888.00,54.915
889.00,54.848
890.00,54.890
891.00,54.857
892.00,54.852
893.00,54.838
894.00,54.858
895.00,54.810
896.00,54.805
897.00,54.779
898.00,54.742
899.00,54.781
900.00,54.732
901.00,54.709
902.00,54.720
903.00,54.706
904.00,54.677
905.00,54.685
906.00,54.680
907.00,54.659
908.00,54.589
909.00,54.591
910.00,54.559
911.00,54.550
912.00,54.557
913.00,54.518
914.00,54.525
915.00,54.487
916.00,54.482
917.00,54.479
918.00,54.434
919.00,54.413
920.00,54.389
921.00,54.387
922.00,54.384
923.00,54.378
924.00,54.334
925.00,54.396
926.00,54.337
927.00,54.312
928.00,54.253
929.00,54.252
930.00,54.238
931.00,54.233
932.00,54.162
933.00,54.202
934.00,54.183
935.00,54.150
936.00,54.119
937.00,54.105
938.00,54.121
939.00,54.095
940.00,54.020
941.00,54.105
942.00,54.033
943.00,54.017
944.00,53.983
945.00,53.983
946.00,53.975
947.00,53.926
948.00,53.906
949.00,53.900
950.00,53.904
951.00,53.857
952.00,53.854
953.00,53.810
954.00,53.777
955.00,53.746
956.00,53.783
957.00,53.707
958.00,53.730
959.00,53.662
960.00,53.656
961.00,53.663
962.00,53.637
963.00,53.589
964.00,53.609
965.00,53.612
966.00,53.601
967.00,53.592
968.00,53.570
969.00,53.605
970.00,53.555
971.00,53.588
972.00,53.546
973.00,53.574
974.00,53.606
975.00,53.577
976.00,53.587
977.00,53.570
978.00,53.620
979.00,53.573
980.00,53.594
981.00,53.585
982.00,53.546
983.00,53.579
984.00,53.547
985.00,53.576
986.00,53.532
987.00,53.556
988.00,53.506
989.00,53.510
990.00,53.511
991.00,53.515
992.00,53.511
993.00,53.471
994.00,53.476
995.00,53.447
996.00,53.446
997.00,53.424
998.00,53.379
999.00,53.415
1000.00,53.418
1001.00,53.350
1002.00,53.383
1003.00,53.385
1004.00,53.358
1005.00,53.324
1006.00,53.353
1007.00,53.329
1008.00,53.306
1009.00,53.282
1010.00,53.265
1011.00,53.271
1012.00,53.295
1013.00,53.271
1014.00,53.219
1015.00,53.239
1016.00,53.216
1017.00,53.193
1018.00,53.195
1019.00,53.155
1020.00,53.149
1021.00,53.145
1022.00,53.154
1023.00,53.093
1024.00,53.113
1025.00,53.068
1026.00,53.069
1027.00,53.046
1028.00,53.014
1029.00,53.012
1030.00,52.983
1031.00,53.006
1032.00,52.971
1033.00,52.976
1034.00,52.943
1035.00,52.931
1036.00,52.908
1037.00,52.879
1038.00,52.886
1039.00,52.842
1040.00,52.831
1041.00,52.815
1042.00,52.789
1043.00,52.791
1044.00,52.801
1045.00,52.775
1046.00,52.787
1047.00,52.794
1048.00,52.802
1049.00,52.821
1050.00,52.798
1051.00,52.870
1052.00,52.859
1053.00,52.852
1054.00,52.859
1055.00,52.892
1056.00,52.901
1057.00,52.901
1058.00,52.881
1059.00,52.879
1060.00,52.912
1061.00,52.869
1062.00,52.875
1063.00,52.874
1064.00,52.871
1065.00,52.867
1066.00,52.864
1067.00,52.845
1068.00,52.891
1069.00,52.830
1070.00,52.824
1071.00,52.816
1072.00,52.816
1073.00,52.801
1074.00,52.797
1075.00,52.768
1076.00,52.791
1077.00,52.782
1078.00,52.740
1079.00,52.769
1080.00,52.760
1081.00,52.745
1082.00,52.774
1083.00,52.760
1084.00,52.751
1085.00,52.761
1086.00,52.725
1087.00,52.733
1088.00,52.722
1089.00,52.700
1090.00,52.723
1091.00,52.746
1092.00,52.702
1093.00,52.704
1094.00,52.663
1095.00,52.665
1096.00,52.652
1097.00,52.649
1098.00,52.647
1099.00,52.639
1100.00,52.605
1101.00,52.622
1102.00,52.601
1103.00,52.609
1104.00,52.593
1105.00,52.576
1106.00,52.568
1107.00,52.573
1108.00,52.547
1109.00,52.554
1110.00,52.547
1111.00,52.529
1112.00,52.519
1113.00,52.520
1114.00,52.506
1115.00,52.523
1116.00,52.493
1117.00,52.491
1118.00,52.484
1119.00,52.471
1120.00,52.476
1121.00,52.486
1122.00,52.453
1123.00,52.453
1124.00,52.454
1125.00,52.450
1126.00,52.444
1127.00,52.437
1128.00,52.420
1129.00,52.418
1130.00,52.391
1131.00,52.409
1132.00,52.400
1133.00,52.380
1134.00,52.404
1135.00,52.384
1136.00,52.378
1137.00,52.412
1138.00,52.376
1139.00,52.381
1140.00,52.371
1141.00,52.345
1142.00,52.357
1143.00,52.374
1144.00,52.322
1145.00,52.341
1146.00,52.347
1147.00,52.324
1148.00,52.324
1149.00,52.344
1150.00,52.350
1151.00,52.372
1152.00,52.365
1153.00,52.350
1154.00,52.338
1155.00,52.318
1156.00,52.332
1157.00,52.326
1158.00,52.334
1159.00,52.336
1160.00,52.323
1161.00,52.336
1162.00,52.335
1163.00,52.314
1164.00,52.334
1165.00,52.335
1166.00,52.316
1167.00,52.319
1168.00,52.338
1169.00,52.323
1170.00,52.336
1171.00,52.308
1172.00,52.308
1173.00,52.306
1174.00,52.295
1175.00,52.311
1176.00,52.314
1177.00,52.285
1178.00,52.317
1179.00,52.330
1180.00,52.321
1181.00,52.331
1182.00,52.305
1183.00,52.342
1184.00,52.304
1185.00,52.302
1186.00,52.304
1187.00,52.302
1188.00,52.283
1189.00,52.311
1190.00,52.286
1191.00,52.282
1192.00,52.324
1193.00,52.292
1194.00,52.291
1195.00,52.275
1196.00,52.294
1197.00,52.315
1198.00,52.326
1199.00,52.307
1200.00,52.331
1201.00,52.320
1202.00,52.287
1203.00,52.313
1204.00,52.275
1205.00,52.295
1206.00,52.305
1207.00,52.296
1208.00,52.292
1209.00,52.299
1210.00,52.295
1211.00,52.306
1212.00,52.319
1213.00,52.295
1214.00,52.320
1215.00,52.283
1216.00,52.275
1217.00,52.303
1218.00,52.301
1219.00,52.303
1220.00,52.284
1221.00,52.294
1222.00,52.298
1223.00,52.318
1224.00,52.317
1225.00,52.320
1226.00,52.303
1227.00,52.296
1228.00,52.332
1229.00,52.289
1230.00,52.341
1231.00,52.340
1232.00,52.347
1233.00,52.370
1234.00,52.351
1235.00,52.357
1236.00,52.364
1237.00,52.352
1238.00,52.333
1239.00,52.343
1240.00,52.321
1241.00,52.352
1242.00,52.348
1243.00,52.346
1244.00,52.335
1245.00,52.363
1246.00,52.380
1247.00,52.379
1248.00,52.367
1249.00,52.376
1250.00,52.401
1251.00,52.371
1252.00,52.383
1253.00,52.377
1254.00,52.402
1255.00,52.406
1256.00,52.376
1257.00,52.390
1258.00,52.443
1259.00,52.422
1260.00,52.425
1261.00,52.442
1262.00,52.410
1263.00,52.412
1264.00,52.439
1265.00,52.437
1266.00,52.445
1267.00,52.458
1268.00,52.458
1269.00,52.480
1270.00,52.484
1271.00,52.494
1272.00,52.498
1273.00,52.507
1274.00,52.523
1275.00,52.534
1276.00,52.512
1277.00,52.535
1278.00,52.545
1279.00,52.536
1280.00,52.532
1281.00,52.548
1282.00,52.559
1283.00,52.560
1284.00,52.545
1285.00,52.563
1286.00,52.572
1287.00,52.557
1288.00,52.575
1289.00,52.562
1290.00,52.583
1291.00,52.593
1292.00,52.575
1293.00,52.591
1294.00,52.610
1295.00,52.604
1296.00,52.614
1297.00,52.620
1298.00,52.641
1299.00,52.616
1300.00,52.637
1301.00,52.619
1302.00,52.657
1303.00,52.630
1304.00,52.622
1305.00,52.656
1306.00,52.636
1307.00,52.661
1308.00,52.663
1309.00,52.666
1310.00,52.675
1311.00,52.662
1312.00,52.679
1313.00,52.691
1314.00,52.691
1315.00,52.715
1316.00,52.716
1317.00,52.733
1318.00,52.743
1319.00,52.755
1320.00,52.744
1321.00,52.923
1322.00,52.892
1323.00,52.886
1324.00,52.881
1325.00,52.863
1326.00,52.915
1327.00,52.874
1328.00,52.876
1329.00,52.878
1330.00,52.901
1331.00,52.880
1332.00,52.890
1333.00,52.878
1334.00,52.914
1335.00,52.943
1336.00,52.953
1337.00,52.989
1338.00,53.049
1339.00,53.071
1340.00,53.143
1341.00,53.208
1342.00,53.257
1343.00,53.316
1344.00,53.357
1345.00,53.431
1346.00,53.466
1347.00,53.447
1348.00,53.489
1349.00,53.510
1350.00,53.526
1351.00,53.551
1352.00,53.548
1353.00,53.559
1354.00,53.597
1355.00,53.637
1356.00,53.612
1357.00,53.640
1358.00,53.608
1359.00,53.612
1360.00,53.654
1361.00,53.714
1362.00,53.482
1363.00,53.681
1364.00,53.741
1365.00,53.601
1366.00,53.656
1367.00,53.643
1368.00,53.493
1369.00,53.640
1370.00,53.586
1371.00,53.564
1372.00,53.568
1373.00,53.609
1374.00,53.635
1375.00,53.603
1376.00,53.584
1377.00,53.550
1378.00,53.554
1379.00,53.635
1380.00,53.588
1381.00,53.654
1382.00,53.458
1383.00,53.607
1384.00,53.535
1385.00,53.537
1386.00,53.569
1387.00,53.542
1388.00,53.527
1389.00,53.562
1390.00,53.538
1391.00,53.555
1392.00,53.569
1393.00,53.551
1394.00,53.612
1395.00,53.572
1396.00,53.509
1397.00,53.512
1398.00,53.586
1399.00,53.570
1400.00,53.558
1401.00,53.538
1402.00,53.628
1403.00,53.630
1404.00,53.607
1405.00,53.628
1406.00,53.657
1407.00,53.644
1408.00,53.653
1409.00,53.640
1410.00,53.675
1411.00,53.659
1412.00,53.779
1413.00,53.626
1414.00,53.667
1415.00,53.697
1416.00,53.676
1417.00,53.722
1418.00,53.705
1419.00,53.737
1420.00,53.742
1421.00,53.758
1422.00,53.727
1423.00,53.778
1424.00,53.752
1425.00,53.825
1426.00,53.760
1427.00,53.806
1428.00,53.826
1429.00,53.850
1430.00,53.832
1431.00,53.881
1432.00,53.888
1433.00,53.898
1434.00,53.896
1435.00,53.922
1436.00,53.937
1437.00,53.928
1438.00,53.926
1439.00,53.976
1440.00,54.023
1441.00,54.005
1442.00,53.999
1443.00,54.008
1444.00,54.071
1445.00,54.040
1446.00,54.072
1447.00,54.099
1448.00,54.142
1449.00,54.102
1450.00,54.126
1451.00,54.137
1452.00,54.158
1453.00,54.160
1454.00,54.168
1455.00,54.198
1456.00,54.222
1457.00,54.195
1458.00,54.252
1459.00,54.261
1460.00,54.269
1461.00,54.255
1462.00,54.294
1463.00,54.322
1464.00,54.303
1465.00,54.337
1466.00,54.346
1467.00,54.358
1468.00,54.414
1469.00,54.391
1470.00,54.417
1471.00,54.415
1472.00,54.419
1473.00,54.441
1474.00,54.470
1475.00,54.506
1476.00,54.505
1477.00,54.476
1478.00,54.535
1479.00,54.520
1480.00,54.521
1481.00,54.530
1482.00,54.538
1483.00,54.571
1484.00,54.579
1485.00,54.561
1486.00,54.586
1487.00,54.611
1488.00,54.630
1489.00,54.633
1490.00,54.626
1491.00,54.646
1492.00,54.681
1493.00,54.635
1494.00,54.691
1495.00,54.668
1496.00,54.707
1497.00,54.695
1498.00,54.699
1499.00,54.692
1500.00,54.728
1501.00, 
1502.00, 
1503.00, 
1504.00, 
1505.00, 
1506.00, 
1507.00, 
1508.00, 
1509.00, 
1510.00, 
1511.00, 
1512.00, 
1513.00, 
1514.00, 
1515.00, 
1516.00, 
1517.00, 
1518.00, 
1519.00, 
1520.00, 
1521.00, 
1522.00, 
1523.00, 
1524.00, 
1525.00, 
1526.00, 
1527.00, 
1528.00, 
1529.00, 
1530.00, 
1531.00, 
1532.00, 
1533.00, 
1534.00, 
1535.00, 
1536.00, 
1537.00, 
1538.00, 
1539.00, 
1540.00, 
1541.00, 
1542.00, 
1543.00, 
1544.00, 
1545.00, 
1546.00, 
1547.00, 
1548.00, 
1549.00, 
1550.00, 
1551.00, 
1552.00, 
1553.00, 
1554.00, 
1555.00, 
1556.00, 
1557.00, 
1558.00, 
1559.00, 
1560.00, 
1561.00, 
1562.00, 
1563.00, 
1564.00, 
1565.00, 
1566.00, 
1567.00, 
1568.00, 
1569.00, 
1570.00, 
1571.00, 
1572.00, 
1573.00, 
1574.00, 
1575.00, 
1576.00, 
1577.00, 
1578.00, 
1579.00, 
1580.00, 
1581.00, 
1582.00, 
1583.00, 
1584.00, 
1585.00, 
1586.00, 
1587.00, 
1588.00, 
1589.00, 
1590.00, 
1591.00, 
1592.00, 
1593.00, 
1594.00, 
1595.00, 
1596.00, 
1597.00, 
1598.00, 
1599.00, 
1600.00, 
1601.00, 
1602.00, 
1603.00, 
1604.00, 
1605.00, 
1606.00, 
1607.00, 
1608.00, 
1609.00, 
1610.00, 
1611.00, 
1612.00, 
1613.00, 
1614.00, 
1615.00, 
1616.00, 
1617.00, 
1618.00, 
1619.00, 
1620.00, 
1621.00, 
1622.00, 
1623.00, 
1624.00, 
1625.00, 
1626.00, 
1627.00, 
1628.00, 
1629.00, 
1630.00, 
1631.00, 
1632.00, 
1633.00, 
1634.00, 
1635.00, 
1636.00, 
1637.00, 
1638.00, 
1639.00, 
1640.00, 
1641.00, 
1642.00, 
1643.00, 
1644.00, 
1645.00, 
1646.00, 
1647.00, 
1648.00, 
1649.00, 
1650.00, 
1651.00, 
1652.00, 
1653.00, 
1654.00, 
1655.00, 
1656.00, 
1657.00, 
1658.00, 
1659.00, 
1660.00, 
1661.00, 
1662.00, 
1663.00, 
1664.00, 
1665.00, 
1666.00, 
1667.00, 
1668.00, 
1669.00, 
1670.00, 
1671.00, 
1672.00, 
1673.00, 
1674.00, 
1675.00, 
1676.00, 
1677.00, 
1678.00, 
1679.00, 
1680.00, 
1681.00, 
1682.00, 
1683.00, 
1684.00, 
1685.00, 
1686.00, 
1687.00, 
1688.00, 
1689.00, 
1690.00, 
1691.00, 
1692.00, 
1693.00, 
1694.00, 
1695.00, 
1696.00, 
1697.00, 
1698.00, 
1699.00, 
1700.00, 
1701.00, 
1702.00, 
1703.00, 
1704.00, 
1705.00, 
1706.00, 
1707.00, 
1708.00, 
1709.00, 
1710.00, 
1711.00, 
1712.00, 
1713.00, 
1714.00, 
1715.00, 
1716.00, 
1717.00, 
1718.00, 
1719.00, 
1720.00, 
1721.00, 
1722.00, 
1723.00, 
1724.00, 
1725.00, 
1726.00, 
1727.00, 
1728.00, 
1729.00, 
1730.00, 
1731.00, 
1732.00, 
1733.00, 
1734.00, 
1735.00, 
1736.00, 
1737.00, 
1738.00, 
1739.00, 
1740.00, 
1741.00, 
1742.00, 
1743.00, 
1744.00, 
1745.00, 
1746.00, 
1747.00, 
1748.00, 
1749.00, 
1750.00, 
1751.00, 
1752.00, 
1753.00, 
1754.00, 
1755.00, 
1756.00, 
1757.00, 
1758.00, 
1759.00, 
1760.00, 
1761.00, 
1762.00, 
1763.00, 
1764.00, 
1765.00, 
1766.00, 
1767.00, 
1768.00, 
1769.00, 
1770.00, 
1771.00, 
1772.00, 
1773.00, 
1774.00, 
1775.00, 
1776.00, 
1777.00, 
1778.00, 
1779.00, 
1780.00, 
1781.00, 
1782.00, 
1783.00, 
1784.00, 
1785.00, 
1786.00, 
1787.00, 
1788.00, 
1789.00, 
1790.00, 
1791.00, 
1792.00, 
1793.00, 
1794.00, 
1795.00, 
1796.00, 
1797.00, 
1798.00, 
1799.00, 
1800.00, 
1801.00, 
1802.00, 
1803.00, 
1804.00, 
1805.00, 
1806.00, 
1807.00, 
1808.00, 
1809.00, 
1810.00, 
1811.00, 
1812.00, 
1813.00, 
1814.00, 
1815.00, 
1816.00, 
1817.00, 
1818.00, 
1819.00, 
1820.00, 
1821.00, 
1822.00, 
1823.00, 
1824.00, 
1825.00, 
1826.00, 
1827.00, 
1828.00, 
1829.00, 
1830.00, 
1831.00, 
1832.00, 
1833.00, 
1834.00, 
1835.00, 
1836.00, 
1837.00, 
1838.00, 
1839.00, 
1840.00, 
1841.00, 
1842.00, 
1843.00, 
1844.00, 
1845.00, 
1846.00, 
1847.00, 
1848.00, 
1849.00, 
1850.00, 
1851.00, 
1852.00, 
1853.00, 
1854.00, 
1855.00, 
1856.00, 
1857.00, 
1858.00, 
1859.00, 
1860.00, 
1861.00, 
1862.00, 
1863.00, 
1864.00, 
1865.00, 
1866.00, 
1867.00, 
1868.00, 
1869.00, 
1870.00, 
1871.00, 
1872.00, 
1873.00, 
1874.00, 
1875.00, 
1876.00, 
1877.00, 
1878.00, 
1879.00, 
1880.00, 
1881.00, 
1882.00, 
1883.00, 
1884.00, 
1885.00, 
1886.00, 
1887.00, 
1888.00, 
1889.00, 
1890.00, 
1891.00, 
1892.00, 
1893.00, 
1894.00, 
1895.00, 
1896.00, 
1897.00, 
1898.00, 
1899.00, 
1900.00, 
1901.00, 
1902.00, 
1903.00, 
1904.00, 
1905.00, 
1906.00, 
1907.00, 
1908.00, 
1909.00, 
1910.00, 
1911.00, 
1912.00, 
1913.00, 
1914.00, 
1915.00, 
1916.00, 
1917.00, 
1918.00, 
1919.00, 
1920.00, 
1921.00, 
1922.00, 
1923.00, 
1924.00, 
1925.00, 
1926.00, 
1927.00, 
1928.00, 
1929.00, 
1930.00, 
1931.00, 
1932.00, 
1933.00, 
1934.00, 
1935.00, 
1936.00, 
1937.00, 
1938.00, 
1939.00, 
1940.00, 
1941.00, 
1942.00, 
1943.00, 
1944.00, 
1945.00, 
1946.00, 
1947.00, 
1948.00, 
1949.00, 
1950.00, 
1951.00, 
1952.00, 
1953.00, 
1954.00, 
1955.00, 
1956.00, 
1957.00, 
1958.00, 
1959.00, 
1960.00, 
1961.00, 
1962.00, 
1963.00, 
1964.00, 
1965.00, 
1966.00, 
1967.00, 
1968.00, 
1969.00, 
1970.00, 
1971.00, 
1972.00, 
1973.00, 
1974.00, 
1975.00, 
1976.00, 
1977.00, 
1978.00, 
1979.00, 
1980.00, 
1981.00, 
1982.00, 
1983.00, 
1984.00, 
1985.00, 
1986.00, 
1987.00, 
1988.00, 
1989.00, 
1990.00, 
1991.00, 
1992.00, 
1993.00, 
1994.00, 
1995.00, 
1996.00, 
1997.00, 
1998.00, 
1999.00, 
2000.00, 
2001.00, 
2002.00, 
2003.00, 
2004.00, 
2005.00, 
2006.00, 
2007.00, 
2008.00, 
2009.00, 
2010.00, 
2011.00, 
2012.00, 
2013.00, 
2014.00, 
2015.00, 
2016.00, 
2017.00, 
2018.00, 
2019.00, 
2020.00, 
2021.00, 
2022.00, 
2023.00, 
2024.00, 
2025.00, 
2026.00, 
2027.00, 
2028.00, 
2029.00, 
2030.00, 
2031.00, 
2032.00, 
2033.00, 
2034.00, 
2035.00, 
2036.00, 
2037.00, 
2038.00, 
2039.00, 
2040.00, 
2041.00, 
2042.00, 
2043.00, 
2044.00, 
2045.00, 
2046.00, 
2047.00, 
2048.00, 
2049.00, 
2050.00, 
2051.00, 
2052.00, 
2053.00, 
2054.00, 
2055.00, 
2056.00, 
2057.00, 
2058.00, 
2059.00, 
2060.00, 
2061.00, 
2062.00, 
2063.00, 
2064.00, 
2065.00, 
2066.00, 
2067.00, 
2068.00, 
2069.00, 
2070.00, 
2071.00, 
2072.00, 
2073.00, 
2074.00, 
2075.00, 
2076.00, 
2077.00, 
2078.00, 
2079.00, 
2080.00, 
2081.00, 
2082.00, 
2083.00, 
2084.00, 
2085.00, 
2086.00, 
2087.00, 
2088.00, 
2089.00, 
2090.00, 
2091.00, 
2092.00, 
2093.00, 
2094.00, 
2095.00, 
2096.00, 
2097.00, 
2098.00, 
2099.00, 
2100.00, 
2101.00, 
2102.00, 
2103.00, 
2104.00, 
2105.00, 
2106.00, 
2107.00, 
2108.00, 
2109.00, 
2110.00, 
2111.00, 
2112.00, 
2113.00, 
2114.00, 
2115.00, 
2116.00, 
2117.00, 
2118.00, 
2119.00, 
2120.00, 
2121.00, 
2122.00, 
2123.00, 
2124.00, 
2125.00, 
2126.00, 
2127.00, 
2128.00, 
2129.00, 
2130.00, 
2131.00, 
2132.00, 
2133.00, 
2134.00, 
2135.00, 
2136.00, 
2137.00, 
2138.00, 
2139.00, 
2140.00, 
2141.00, 
2142.00, 
2143.00, 
2144.00, 
2145.00, 
2146.00, 
2147.00, 
2148.00, 
2149.00, 
2150.00, 
2151.00, 
2152.00, 
2153.00, 
2154.00, 
2155.00, 
2156.00, 
2157.00, 
2158.00, 
2159.00, 
2160.00, 
2161.00, 
2162.00, 
2163.00, 
2164.00, 
2165.00, 
2166.00, 
2167.00, 
2168.00, 
2169.00, 
2170.00, 
2171.00, 
2172.00, 
2173.00, 
2174.00, 
2175.00, 
2176.00, 
2177.00, 
2178.00, 
2179.00, 
2180.00, 
2181.00, 
2182.00, 
2183.00, 
2184.00, 
2185.00, 
2186.00, 
2187.00, 
2188.00, 
2189.00, 
2190.00, 
2191.00, 
2192.00, 
2193.00, 
2194.00, 
2195.00, 
2196.00, 
2197.00, 
2198.00, 
2199.00, 
2200.00, 
2201.00, 
2202.00, 
2203.00, 
2204.00, 
2205.00, 
2206.00, 
2207.00, 
2208.00, 
2209.00, 
2210.00, 
2211.00, 
2212.00, 
2213.00, 
2214.00, 
2215.00, 
2216.00, 
2217.00, 
2218.00, 
2219.00, 
2220.00, 
2221.00, 
2222.00, 
2223.00, 
2224.00, 
2225.00, 
2226.00, 
2227.00, 
2228.00, 
2229.00, 
2230.00, 
2231.00, 
2232.00, 
2233.00, 
2234.00, 
2235.00, 
2236.00, 
2237.00, 
2238.00, 
2239.00, 
2240.00, 
2241.00, 
2242.00, 
2243.00, 
2244.00, 
2245.00, 
2246.00, 
2247.00, 
2248.00, 
2249.00, 
2250.00, 
2251.00, 
2252.00, 
2253.00, 
2254.00, 
2255.00, 
2256.00, 
2257.00, 
2258.00, 
2259.00, 
2260.00, 
2261.00, 
2262.00, 
2263.00, 
2264.00, 
2265.00, 
2266.00, 
2267.00, 
2268.00, 
2269.00, 
2270.00, 
2271.00, 
2272.00, 
2273.00, 
2274.00, 
2275.00, 
2276.00, 
2277.00, 
2278.00, 
2279.00, 
2280.00, 
2281.00, 
2282.00, 
2283.00, 
2284.00, 
2285.00, 
2286.00, 
2287.00, 
2288.00, 
2289.00, 
2290.00, 
2291.00, 
2292.00, 
2293.00, 
2294.00, 
2295.00, 
2296.00, 
2297.00, 
2298.00, 
2299.00, 
2300.00, 
2301.00, 
2302.00, 
2303.00, 
2304.00, 
2305.00, 
2306.00, 
2307.00, 
2308.00, 
2309.00, 
2310.00, 
2311.00, 
2312.00, 
2313.00, 
2314.00, 
2315.00, 
2316.00, 
2317.00, 
2318.00, 
2319.00, 
2320.00, 
2321.00, 
2322.00, 
2323.00, 
2324.00, 
2325.00, 
2326.00, 
2327.00, 
2328.00, 
2329.00, 
2330.00, 
2331.00, 
2332.00, 
2333.00, 
2334.00, 
2335.00, 
2336.00, 
2337.00, 
2338.00, 
2339.00, 
2340.00, 
2341.00, 
2342.00, 
2343.00, 
2344.00, 
2345.00, 
2346.00, 
2347.00, 
2348.00, 
2349.00, 
2350.00, 
2351.00, 
2352.00, 
2353.00, 
2354.00, 
2355.00, 
2356.00, 
2357.00, 
2358.00, 
2359.00, 
2360.00, 
2361.00, 
2362.00, 
2363.00, 
2364.00, 
2365.00, 
2366.00, 
2367.00, 
2368.00, 
2369.00, 
2370.00, 
2371.00, 
2372.00, 
2373.00, 
2374.00, 
2375.00, 
2376.00, 
2377.00, 
2378.00, 
2379.00, 
2380.00, 
2381.00, 
2382.00, 
2383.00, 
2384.00, 
2385.00, 
2386.00, 
2387.00, 
2388.00, 
2389.00, 
2390.00, 
2391.00, 
2392.00, 
2393.00, 
2394.00, 
2395.00, 
2396.00, 
2397.00, 
2398.00, 
2399.00, 
2400.00, 
2401.00, 
2402.00, 
2403.00, 
2404.00, 
2405.00, 
2406.00, 
2407.00, 
2408.00, 
2409.00, 
2410.00, 
2411.00, 
2412.00, 
2413.00, 
2414.00, 
2415.00, 
2416.00, 
2417.00, 
2418.00, 
2419.00, 
2420.00, 
2421.00, 
2422.00, 
2423.00, 
2424.00, 
2425.00, 
2426.00, 
2427.00, 
2428.00, 
2429.00, 
2430.00, 
2431.00, 
2432.00, 
2433.00, 
2434.00, 
2435.00, 
2436.00, 
2437.00, 
2438.00, 
2439.00, 
2440.00, 
2441.00, 
2442.00, 
2443.00, 
2444.00, 
2445.00, 
2446.00, 
2447.00, 
2448.00, 
2449.00, 
2450.00, 
2451.00, 
2452.00, 
2453.00, 
2454.00, 
2455.00, 
2456.00, 
2457.00, 
2458.00, 
2459.00, 
2460.00, 
2461.00, 
2462.00, 
2463.00, 
2464.00, 
2465.00, 
2466.00, 
2467.00, 
2468.00, 
2469.00, 
2470.00, 
2471.00, 
2472.00, 
2473.00, 
2474.00, 
2475.00, 
2476.00, 
2477.00, 
2478.00, 
2479.00, 
2480.00, 
2481.00, 
2482.00, 
2483.00, 
2484.00, 
2485.00, 
2486.00, 
2487.00, 
2488.00, 
2489.00, 
2490.00, 
2491.00, 
2492.00, 
2493.00, 
2494.00, 
2495.00, 
2496.00, 
2497.00, 
2498.00, 
2499.00, 
2500.00, 
2501.00, 
2502.00, 
2503.00, 
2504.00, 
2505.00, 
2506.00, 
2507.00, 
2508.00, 
2509.00, 
2510.00, 
2511.00, 
2512.00, 
2513.00, 
2514.00, 
2515.00, 
2516.00, 
2517.00, 
2518.00, 
2519.00, 
2520.00, 
2521.00, 
2522.00, 
2523.00, 
2524.00, 
2525.00, 
2526.00, 
2527.00, 
2528.00, 
2529.00, 
2530.00, 
2531.00, 
2532.00, 
2533.00, 
2534.00, 
2535.00, 
2536.00, 
2537.00, 
2538.00, 
2539.00, 
2540.00, 
2541.00, 
2542.00, 
2543.00, 
2544.00, 
2545.00, 
2546.00, 
2547.00, 
2548.00, 
2549.00, 
2550.00, 
2551.00, 
2552.00, 
2553.00, 
2554.00, 
2555.00, 
2556.00, 
2557.00, 
2558.00, 
2559.00, 
2560.00, 
2561.00, 
2562.00, 
2563.00, 
2564.00, 
2565.00, 
2566.00, 
2567.00, 
2568.00, 
2569.00, 
2570.00, 
2571.00, 
2572.00, 
2573.00, 
2574.00, 
2575.00, 
2576.00, 
2577.00, 
2578.00, 
2579.00, 
2580.00, 
2581.00, 
2582.00, 
2583.00, 
2584.00, 
2585.00, 
2586.00, 
2587.00, 
2588.00, 
2589.00, 
2590.00, 
2591.00, 
2592.00, 
2593.00, 
2594.00, 
2595.00, 
2596.00, 
2597.00, 
2598.00, 
2599.00, 
2600.00, 
