"1bP2 - RawData"
"Wavelength nm.","T%"
200.00,0.005
201.00,0.000
202.00,0.001
203.00,-0.000
204.00,0.000
205.00,0.004
206.00,0.002
207.00,0.000
208.00,0.003
209.00,-0.001
210.00,0.001
211.00,0.002
212.00,0.000
213.00,0.002
214.00,0.001
215.00,0.002
216.00,-0.000
217.00,0.000
218.00,0.001
219.00,0.002
220.00,0.004
221.00,0.002
222.00,-0.003
223.00,-0.000
224.00,-0.002
225.00,0.001
226.00,0.001
227.00,0.002
228.00,0.002
229.00,-0.000
230.00,-0.001
231.00,0.001
232.00,0.001
233.00,-0.001
234.00,0.000
235.00,-0.002
236.00,-0.000
237.00,-0.001
238.00,-0.001
239.00,-0.000
240.00,0.001
241.00,0.001
242.00,0.001
243.00,0.002
244.00,-0.001
245.00,-0.000
246.00,-0.000
247.00,-0.001
248.00,-0.000
249.00,0.002
250.00,-0.001
251.00,0.002
252.00,0.000
253.00,0.001
254.00,0.001
255.00,0.000
256.00,-0.000
257.00,-0.000
258.00,0.000
259.00,0.002
260.00,-0.001
261.00,-0.001
262.00,-0.001
263.00,0.000
264.00,-0.000
265.00,0.001
266.00,-0.000
267.00,-0.001
268.00,0.000
269.00,0.001
270.00,-0.000
271.00,-0.000
272.00,0.000
273.00,0.000
274.00,-0.001
275.00,0.001
276.00,0.001
277.00,0.001
278.00,0.002
279.00,0.001
280.00,0.001
281.00,0.001
282.00,0.002
283.00,-0.000
284.00,0.000
285.00,0.001
286.00,0.001
287.00,-0.000
288.00,-0.000
289.00,-0.000
290.00,0.001
291.00,-0.001
292.00,0.000
293.00,-0.001
294.00,0.001
295.00,0.002
296.00,0.000
297.00,-0.001
298.00,0.001
299.00,0.004
300.00,0.007
301.00,0.008
302.00,0.009
303.00,0.014
304.00,0.019
305.00,0.036
306.00,0.054
307.00,0.078
308.00,0.114
309.00,0.179
310.00,0.251
311.00,0.344
312.00,0.470
313.00,0.624
314.00,0.814
315.00,1.057
316.00,1.328
317.00,1.656
318.00,2.027
319.00,2.461
320.00,2.978
321.00,3.542
322.00,4.146
323.00,4.828
324.00,5.544
325.00,6.320
326.00,7.041
327.00,7.869
328.00,8.717
329.00,9.587
330.00,10.516
331.00,11.410
332.00,12.321
333.00,13.258
334.00,14.155
335.00,15.068
336.00,15.941
337.00,16.860
338.00,17.714
339.00,18.526
340.00,19.320
341.00,20.188
342.00,20.884
343.00,21.588
344.00,22.207
345.00,22.963
346.00,23.554
347.00,24.072
348.00,24.585
349.00,25.055
350.00,25.553
351.00,25.966
352.00,26.346
353.00,26.755
354.00,27.044
355.00,27.439
356.00,27.736
357.00,28.008
358.00,28.249
359.00,28.557
360.00,28.827
361.00,28.964
362.00,29.194
363.00,29.384
364.00,29.488
365.00,29.525
366.00,29.721
367.00,29.818
368.00,29.805
369.00,29.886
370.00,29.981
371.00,30.019
372.00,29.968
373.00,29.992
374.00,30.018
375.00,29.991
376.00,29.955
377.00,29.826
378.00,29.811
379.00,29.696
380.00,29.583
381.00,29.657
382.00,29.580
383.00,29.688
384.00,29.765
385.00,29.764
386.00,29.789
387.00,29.901
388.00,30.025
389.00,29.930
390.00,30.011
391.00,30.007
392.00,30.085
393.00,30.129
394.00,30.159
395.00,30.115
396.00,30.064
397.00,30.162
398.00,30.182
399.00,30.175
400.00,30.215
401.00,30.155
402.00,30.140
403.00,30.158
404.00,30.204
405.00,30.115
406.00,30.134
407.00,30.051
408.00,30.086
409.00,29.979
410.00,29.909
411.00,29.950
412.00,29.840
413.00,29.928
414.00,29.883
415.00,29.871
416.00,29.966
417.00,29.880
418.00,29.915
419.00,30.031
420.00,30.083
421.00,30.081
422.00,30.060
423.00,30.155
424.00,30.198
425.00,30.220
426.00,30.212
427.00,30.310
428.00,30.286
429.00,30.356
430.00,30.426
431.00,30.446
432.00,30.447
433.00,30.550
434.00,30.578
435.00,30.649
436.00,30.701
437.00,30.737
438.00,30.842
439.00,30.877
440.00,30.973
441.00,30.975
442.00,31.071
443.00,31.143
444.00,31.217
445.00,31.307
446.00,31.423
447.00,31.475
448.00,31.553
449.00,31.667
450.00,31.747
451.00,31.877
452.00,31.944
453.00,31.994
454.00,32.059
455.00,32.227
456.00,32.305
457.00,32.438
458.00,32.493
459.00,32.644
460.00,32.764
461.00,32.909
462.00,32.971
463.00,33.097
464.00,33.207
465.00,33.326
466.00,33.439
467.00,33.538
468.00,33.620
469.00,33.723
470.00,33.783
471.00,33.918
472.00,33.987
473.00,34.064
474.00,34.199
475.00,34.292
476.00,34.303
477.00,34.428
478.00,34.533
479.00,34.715
480.00,34.826
481.00,34.929
482.00,35.047
483.00,35.187
484.00,35.390
485.00,35.387
486.00,35.647
487.00,35.728
488.00,35.903
489.00,36.071
490.00,36.185
491.00,36.250
492.00,36.517
493.00,36.612
494.00,36.559
495.00,36.670
496.00,36.774
497.00,36.850
498.00,36.939
499.00,37.132
500.00,37.281
501.00,37.385
502.00,37.493
503.00,37.597
504.00,37.604
505.00,37.717
506.00,37.815
507.00,37.883
508.00,37.969
509.00,38.166
510.00,38.258
511.00,38.337
512.00,38.437
513.00,38.589
514.00,38.655
515.00,38.790
516.00,38.925
517.00,38.927
518.00,39.066
519.00,39.142
520.00,39.165
521.00,39.220
522.00,39.269
523.00,39.328
524.00,39.409
525.00,39.490
526.00,39.584
527.00,39.609
528.00,39.644
529.00,39.864
530.00,40.001
531.00,40.079
532.00,40.152
533.00,40.234
534.00,40.290
535.00,40.359
536.00,40.406
537.00,40.482
538.00,40.578
539.00,40.550
540.00,40.658
541.00,40.663
542.00,40.688
543.00,40.697
544.00,40.783
545.00,40.831
546.00,40.832
547.00,41.018
548.00,40.989
549.00,41.032
550.00,41.136
551.00,41.219
552.00,41.322
553.00,41.318
554.00,41.369
555.00,41.408
556.00,41.499
557.00,41.542
558.00,41.537
559.00,41.632
560.00,41.676
561.00,41.745
562.00,41.764
563.00,41.844
564.00,41.855
565.00,41.878
566.00,41.873
567.00,41.882
568.00,41.978
569.00,41.951
570.00,41.998
571.00,42.043
572.00,42.037
573.00,41.995
574.00,42.058
575.00,42.025
576.00,42.044
577.00,42.173
578.00,42.199
579.00,42.205
580.00,42.187
581.00,42.349
582.00,42.489
583.00,42.463
584.00,42.584
585.00,42.650
586.00,42.660
587.00,42.712
588.00,42.682
589.00,42.678
590.00,42.824
591.00,42.770
592.00,42.859
593.00,42.903
594.00,42.817
595.00,42.873
596.00,42.973
597.00,42.979
598.00,43.108
599.00,43.127
600.00,43.200
601.00,43.124
602.00,43.119
603.00,43.111
604.00,43.170
605.00,43.237
606.00,43.226
607.00,43.265
608.00,43.415
609.00,43.518
610.00,43.361
611.00,43.368
612.00,43.398
613.00,43.462
614.00,43.460
615.00,43.538
616.00,43.603
617.00,43.588
618.00,43.541
619.00,43.652
620.00,43.660
621.00,43.654
622.00,43.840
623.00,43.891
624.00,43.979
625.00,44.008
626.00,43.946
627.00,44.017
628.00,43.996
629.00,44.057
630.00,44.090
631.00,44.119
632.00,44.216
633.00,44.320
634.00,44.380
635.00,44.479
636.00,44.444
637.00,44.482
638.00,44.543
639.00,44.673
640.00,44.627
641.00,44.679
642.00,44.731
643.00,44.805
644.00,44.938
645.00,44.929
646.00,45.033
647.00,45.065
648.00,44.949
649.00,45.009
650.00,44.991
651.00,45.115
652.00,45.178
653.00,45.197
654.00,45.213
655.00,45.459
656.00,45.642
657.00,45.459
658.00,45.561
659.00,45.567
660.00,45.611
661.00,45.615
662.00,45.702
663.00,45.831
664.00,46.046
665.00,46.213
666.00,46.132
667.00,46.131
668.00,46.184
669.00,46.243
670.00,46.528
671.00,46.426
672.00,46.590
673.00,46.468
674.00,46.604
675.00,46.626
676.00,46.654
677.00,46.960
678.00,46.766
679.00,46.826
680.00,47.021
681.00,47.069
682.00,46.964
683.00,46.914
684.00,47.185
685.00,47.303
686.00,47.109
687.00,47.249
688.00,47.256
689.00,47.214
690.00,47.401
691.00,47.731
692.00,47.458
693.00,47.499
694.00,47.622
695.00,47.788
696.00,47.775
697.00,47.703
698.00,47.772
699.00,47.967
700.00,48.035
701.00,48.053
702.00,48.038
703.00,48.274
704.00,48.264
705.00,48.070
706.00,48.195
707.00,48.230
708.00,48.330
709.00,48.766
710.00,48.422
711.00,48.333
712.00,48.320
713.00,48.527
714.00,48.611
715.00,48.614
716.00,48.567
717.00,48.683
718.00,48.865
719.00,48.777
720.00,48.671
721.00,53.473
722.00,53.513
723.00,53.463
724.00,53.449
725.00,53.501
726.00,53.449
727.00,53.493
728.00,53.416
729.00,53.425
730.00,53.403
731.00,53.449
732.00,53.392
733.00,53.527
734.00,53.515
735.00,53.526
736.00,53.477
737.00,53.507
738.00,53.523
739.00,53.494
740.00,53.451
741.00,53.508
742.00,53.588
743.00,53.487
744.00,53.481
745.00,53.552
746.00,53.525
747.00,53.476
748.00,53.460
749.00,53.424
750.00,53.365
751.00,53.344
752.00,53.396
753.00,53.396
754.00,53.409
755.00,53.340
756.00,53.297
757.00,53.374
758.00,53.350
759.00,53.246
760.00,53.353
761.00,53.278
762.00,53.316
763.00,53.355
764.00,53.338
765.00,53.307
766.00,53.238
767.00,53.304
768.00,53.256
769.00,53.289
770.00,53.340
771.00,53.267
772.00,53.337
773.00,53.268
774.00,53.297
775.00,53.274
776.00,53.238
777.00,53.295
778.00,53.222
779.00,53.283
780.00,53.214
781.00,53.251
782.00,53.311
783.00,53.255
784.00,53.212
785.00,53.045
786.00,53.203
787.00,53.117
788.00,53.068
789.00,53.082
790.00,53.025
791.00,53.171
792.00,52.942
793.00,53.038
794.00,53.083
795.00,53.037
796.00,53.034
797.00,52.961
798.00,52.989
799.00,52.911
800.00,52.900
801.00,52.921
802.00,52.917
803.00,52.823
804.00,52.781
805.00,52.843
806.00,52.819
807.00,52.840
808.00,52.747
809.00,52.694
810.00,52.628
811.00,52.720
812.00,52.763
813.00,52.640
814.00,52.624
815.00,52.668
816.00,52.677
817.00,52.584
818.00,52.523
819.00,52.510
820.00,52.393
821.00,52.466
822.00,52.456
823.00,52.432
824.00,52.512
825.00,52.457
826.00,52.443
827.00,52.472
828.00,52.407
829.00,52.368
830.00,52.331
831.00,54.925
832.00,55.042
833.00,54.901
834.00,54.906
835.00,54.888
836.00,54.885
837.00,54.837
838.00,54.851
839.00,54.785
840.00,54.736
841.00,54.748
842.00,54.709
843.00,54.749
844.00,54.731
845.00,54.677
846.00,54.695
847.00,54.621
848.00,54.632
849.00,54.558
850.00,54.527
851.00,54.520
852.00,54.532
853.00,54.466
854.00,54.426
855.00,54.358
856.00,54.377
857.00,54.349
858.00,54.282
859.00,54.274
860.00,54.298
861.00,54.310
862.00,54.233
863.00,54.219
864.00,54.215
865.00,54.254
866.00,54.199
867.00,54.223
868.00,54.196
869.00,54.180
870.00,54.193
871.00,54.182
872.00,54.191
873.00,54.123
874.00,54.172
875.00,54.216
876.00,54.143
877.00,54.069
878.00,54.084
879.00,54.063
880.00,54.028
881.00,54.008
882.00,54.056
883.00,54.024
884.00,53.980
885.00,53.991
886.00,53.939
887.00,53.898
888.00,53.897
889.00,53.827
890.00,53.868
891.00,53.824
892.00,53.809
893.00,53.812
894.00,53.821
895.00,53.793
896.00,53.751
897.00,53.743
898.00,53.729
899.00,53.739
900.00,53.709
901.00,53.701
902.00,53.693
903.00,53.807
904.00,53.668
905.00,53.664
906.00,53.657
907.00,53.625
908.00,53.575
909.00,53.566
910.00,53.533
911.00,53.548
912.00,53.520
913.00,53.453
914.00,53.551
915.00,53.438
916.00,53.425
917.00,53.407
918.00,53.415
919.00,53.382
920.00,53.346
921.00,53.349
922.00,53.337
923.00,53.298
924.00,53.277
925.00,53.300
926.00,53.276
927.00,53.245
928.00,53.204
929.00,53.217
930.00,53.206
931.00,53.187
932.00,53.144
933.00,53.172
934.00,53.156
935.00,53.113
936.00,53.101
937.00,53.073
938.00,53.079
939.00,53.051
940.00,53.014
941.00,53.023
942.00,52.979
943.00,52.974
944.00,52.937
945.00,52.945
946.00,52.927
947.00,52.892
948.00,52.874
949.00,52.855
950.00,52.848
951.00,52.825
952.00,52.806
953.00,52.751
954.00,52.764
955.00,52.719
956.00,52.708
957.00,52.677
958.00,52.680
959.00,52.591
960.00,52.606
961.00,52.611
962.00,52.616
963.00,52.555
964.00,52.572
965.00,52.587
966.00,52.570
967.00,52.554
968.00,52.524
969.00,52.567
970.00,52.518
971.00,52.539
972.00,52.498
973.00,52.547
974.00,52.556
975.00,52.533
976.00,52.547
977.00,52.536
978.00,52.585
979.00,52.536
980.00,52.561
981.00,52.554
982.00,52.504
983.00,52.530
984.00,52.517
985.00,52.529
986.00,52.490
987.00,52.530
988.00,52.488
989.00,52.470
990.00,52.466
991.00,52.470
992.00,52.468
993.00,52.436
994.00,52.424
995.00,52.420
996.00,52.400
997.00,52.384
998.00,52.358
999.00,52.387
1000.00,52.323
1001.00,52.308
1002.00,52.344
1003.00,52.343
1004.00,52.317
1005.00,52.272
1006.00,52.317
1007.00,52.284
1008.00,52.263
1009.00,52.235
1010.00,52.252
1011.00,52.235
1012.00,52.207
1013.00,52.217
1014.00,52.159
1015.00,52.197
1016.00,52.157
1017.00,52.146
1018.00,52.151
1019.00,52.101
1020.00,52.109
1021.00,52.120
1022.00,52.085
1023.00,52.029
1024.00,52.040
1025.00,52.018
1026.00,51.996
1027.00,51.972
1028.00,51.960
1029.00,51.947
1030.00,51.932
1031.00,51.945
1032.00,51.924
1033.00,51.931
1034.00,51.906
1035.00,51.897
1036.00,51.883
1037.00,51.833
1038.00,51.809
1039.00,51.773
1040.00,51.765
1041.00,51.739
1042.00,51.726
1043.00,51.720
1044.00,51.745
1045.00,51.720
1046.00,51.737
1047.00,51.754
1048.00,51.768
1049.00,51.770
1050.00,51.783
1051.00,51.845
1052.00,51.819
1053.00,51.806
1054.00,51.821
1055.00,51.845
1056.00,51.844
1057.00,51.849
1058.00,51.835
1059.00,51.830
1060.00,51.842
1061.00,51.820
1062.00,51.814
1063.00,51.824
1064.00,51.824
1065.00,51.822
1066.00,51.801
1067.00,51.791
1068.00,51.827
1069.00,51.789
1070.00,51.766
1071.00,51.757
1072.00,51.797
1073.00,51.761
1074.00,51.768
1075.00,51.752
1076.00,51.763
1077.00,51.741
1078.00,51.704
1079.00,51.742
1080.00,51.726
1081.00,51.716
1082.00,51.708
1083.00,51.700
1084.00,51.701
1085.00,51.705
1086.00,51.681
1087.00,51.686
1088.00,51.663
1089.00,51.650
1090.00,51.655
1091.00,51.662
1092.00,51.651
1093.00,51.641
1094.00,51.619
1095.00,51.622
1096.00,51.592
1097.00,51.578
1098.00,51.581
1099.00,51.577
1100.00,51.547
1101.00,51.562
1102.00,51.553
1103.00,51.551
1104.00,51.520
1105.00,51.517
1106.00,51.503
1107.00,51.497
1108.00,51.470
1109.00,51.484
1110.00,51.480
1111.00,51.449
1112.00,51.468
1113.00,51.466
1114.00,51.449
1115.00,51.447
1116.00,51.446
1117.00,51.431
1118.00,51.411
1119.00,51.412
1120.00,51.421
1121.00,51.423
1122.00,51.394
1123.00,51.391
1124.00,51.393
1125.00,51.384
1126.00,51.374
1127.00,51.379
1128.00,51.366
1129.00,51.346
1130.00,51.329
1131.00,51.348
1132.00,51.326
1133.00,51.324
1134.00,51.336
1135.00,51.323
1136.00,51.322
1137.00,51.332
1138.00,51.320
1139.00,51.319
1140.00,51.312
1141.00,51.293
1142.00,51.300
1143.00,51.314
1144.00,51.268
1145.00,51.285
1146.00,51.276
1147.00,51.269
1148.00,51.255
1149.00,51.278
1150.00,51.286
1151.00,51.273
1152.00,51.276
1153.00,51.291
1154.00,51.267
1155.00,51.254
1156.00,51.259
1157.00,51.265
1158.00,51.256
1159.00,51.251
1160.00,51.248
1161.00,51.266
1162.00,51.251
1163.00,51.257
1164.00,51.284
1165.00,51.267
1166.00,51.268
1167.00,51.256
1168.00,51.286
1169.00,51.257
1170.00,51.247
1171.00,51.254
1172.00,51.235
1173.00,51.244
1174.00,51.264
1175.00,51.249
1176.00,51.244
1177.00,51.228
1178.00,51.248
1179.00,51.253
1180.00,51.227
1181.00,51.241
1182.00,51.240
1183.00,51.243
1184.00,51.238
1185.00,51.237
1186.00,51.234
1187.00,51.240
1188.00,51.240
1189.00,51.260
1190.00,51.228
1191.00,51.221
1192.00,51.250
1193.00,51.239
1194.00,51.244
1195.00,51.212
1196.00,51.253
1197.00,51.255
1198.00,51.233
1199.00,51.239
1200.00,51.258
1201.00,51.273
1202.00,51.239
1203.00,51.240
1204.00,51.234
1205.00,51.248
1206.00,51.237
1207.00,51.235
1208.00,51.242
1209.00,51.235
1210.00,51.222
1211.00,51.248
1212.00,51.241
1213.00,51.220
1214.00,51.271
1215.00,51.223
1216.00,51.214
1217.00,51.222
1218.00,51.227
1219.00,51.245
1220.00,51.230
1221.00,51.241
1222.00,51.234
1223.00,51.248
1224.00,51.247
1225.00,51.231
1226.00,51.242
1227.00,51.240
1228.00,51.243
1229.00,51.240
1230.00,51.270
1231.00,51.265
1232.00,51.285
1233.00,51.277
1234.00,51.291
1235.00,51.315
1236.00,51.286
1237.00,51.276
1238.00,51.263
1239.00,51.269
1240.00,51.244
1241.00,51.285
1242.00,51.281
1243.00,51.281
1244.00,51.274
1245.00,51.307
1246.00,51.315
1247.00,51.290
1248.00,51.284
1249.00,51.308
1250.00,51.342
1251.00,51.310
1252.00,51.336
1253.00,51.326
1254.00,51.347
1255.00,51.347
1256.00,51.319
1257.00,51.314
1258.00,51.354
1259.00,51.343
1260.00,51.375
1261.00,51.365
1262.00,51.344
1263.00,51.365
1264.00,51.366
1265.00,51.369
1266.00,51.373
1267.00,51.392
1268.00,51.380
1269.00,51.392
1270.00,51.410
1271.00,51.407
1272.00,51.409
1273.00,51.422
1274.00,51.433
1275.00,51.447
1276.00,51.422
1277.00,51.433
1278.00,51.459
1279.00,51.460
1280.00,51.474
1281.00,51.498
1282.00,51.474
1283.00,51.460
1284.00,51.456
1285.00,51.465
1286.00,51.475
1287.00,51.455
1288.00,51.485
1289.00,51.471
1290.00,51.510
1291.00,51.492
1292.00,51.482
1293.00,51.490
1294.00,51.504
1295.00,51.506
1296.00,51.524
1297.00,51.532
1298.00,51.550
1299.00,51.528
1300.00,51.549
1301.00,51.535
1302.00,51.569
1303.00,51.550
1304.00,51.541
1305.00,51.559
1306.00,51.552
1307.00,51.575
1308.00,51.564
1309.00,51.582
1310.00,51.590
1311.00,51.578
1312.00,51.580
1313.00,51.582
1314.00,51.604
1315.00,51.613
1316.00,51.608
1317.00,51.625
1318.00,51.632
1319.00,51.626
1320.00,51.618
1321.00,51.841
1322.00,51.797
1323.00,51.779
1324.00,51.790
1325.00,51.775
1326.00,51.810
1327.00,51.750
1328.00,51.781
1329.00,51.787
1330.00,51.799
1331.00,51.780
1332.00,51.800
1333.00,51.791
1334.00,51.816
1335.00,51.848
1336.00,51.850
1337.00,51.914
1338.00,51.934
1339.00,51.981
1340.00,52.070
1341.00,52.102
1342.00,52.175
1343.00,52.229
1344.00,52.280
1345.00,52.348
1346.00,52.379
1347.00,52.394
1348.00,52.431
1349.00,52.433
1350.00,52.451
1351.00,52.466
1352.00,52.457
1353.00,52.464
1354.00,52.506
1355.00,52.599
1356.00,52.510
1357.00,52.524
1358.00,52.486
1359.00,52.512
1360.00,52.530
1361.00,52.582
1362.00,52.390
1363.00,52.581
1364.00,52.653
1365.00,52.527
1366.00,52.608
1367.00,52.557
1368.00,52.440
1369.00,52.536
1370.00,52.510
1371.00,52.457
1372.00,52.462
1373.00,52.552
1374.00,52.492
1375.00,52.490
1376.00,52.542
1377.00,52.452
1378.00,52.463
1379.00,52.494
1380.00,52.512
1381.00,52.542
1382.00,52.471
1383.00,52.502
1384.00,52.430
1385.00,52.447
1386.00,52.464
1387.00,52.433
1388.00,52.417
1389.00,52.443
1390.00,52.437
1391.00,52.423
1392.00,52.439
1393.00,52.459
1394.00,52.482
1395.00,52.420
1396.00,52.364
1397.00,52.397
1398.00,52.484
1399.00,52.454
1400.00,52.382
1401.00,52.419
1402.00,52.515
1403.00,52.487
1404.00,52.467
1405.00,52.482
1406.00,52.526
1407.00,52.487
1408.00,52.506
1409.00,52.489
1410.00,52.532
1411.00,52.508
1412.00,52.553
1413.00,52.469
1414.00,52.509
1415.00,52.525
1416.00,52.532
1417.00,52.579
1418.00,52.579
1419.00,52.597
1420.00,52.611
1421.00,52.631
1422.00,52.607
1423.00,52.652
1424.00,52.647
1425.00,52.691
1426.00,52.657
1427.00,52.695
1428.00,52.704
1429.00,52.714
1430.00,52.694
1431.00,52.740
1432.00,52.767
1433.00,52.750
1434.00,52.749
1435.00,52.795
1436.00,52.822
1437.00,52.783
1438.00,52.789
1439.00,52.855
1440.00,52.844
1441.00,52.852
1442.00,52.902
1443.00,52.900
1444.00,52.937
1445.00,52.897
1446.00,52.939
1447.00,52.963
1448.00,52.990
1449.00,52.982
1450.00,52.999
1451.00,52.996
1452.00,53.010
1453.00,53.027
1454.00,53.032
1455.00,53.061
1456.00,53.084
1457.00,53.070
1458.00,53.120
1459.00,53.109
1460.00,53.122
1461.00,53.120
1462.00,53.141
1463.00,53.171
1464.00,53.171
1465.00,53.179
1466.00,53.179
1467.00,53.209
1468.00,53.243
1469.00,53.224
1470.00,53.237
1471.00,53.266
1472.00,53.284
1473.00,53.310
1474.00,53.317
1475.00,53.347
1476.00,53.360
1477.00,53.320
1478.00,53.360
1479.00,53.369
1480.00,53.377
1481.00,53.375
1482.00,53.396
1483.00,53.426
1484.00,53.417
1485.00,53.411
1486.00,53.442
1487.00,53.464
1488.00,53.482
1489.00,53.454
1490.00,53.470
1491.00,53.492
1492.00,53.502
1493.00,53.466
1494.00,53.517
1495.00,53.498
1496.00,53.515
1497.00,53.528
1498.00,53.553
1499.00,53.531
1500.00,53.561
1501.00, 
1502.00, 
1503.00, 
1504.00, 
1505.00, 
1506.00, 
1507.00, 
1508.00, 
1509.00, 
1510.00, 
1511.00, 
1512.00, 
1513.00, 
1514.00, 
1515.00, 
1516.00, 
1517.00, 
1518.00, 
1519.00, 
1520.00, 
1521.00, 
1522.00, 
1523.00, 
1524.00, 
1525.00, 
1526.00, 
1527.00, 
1528.00, 
1529.00, 
1530.00, 
1531.00, 
1532.00, 
1533.00, 
1534.00, 
1535.00, 
1536.00, 
1537.00, 
1538.00, 
1539.00, 
1540.00, 
1541.00, 
1542.00, 
1543.00, 
1544.00, 
1545.00, 
1546.00, 
1547.00, 
1548.00, 
1549.00, 
1550.00, 
1551.00, 
1552.00, 
1553.00, 
1554.00, 
1555.00, 
1556.00, 
1557.00, 
1558.00, 
1559.00, 
1560.00, 
1561.00, 
1562.00, 
1563.00, 
1564.00, 
1565.00, 
1566.00, 
1567.00, 
1568.00, 
1569.00, 
1570.00, 
1571.00, 
1572.00, 
1573.00, 
1574.00, 
1575.00, 
1576.00, 
1577.00, 
1578.00, 
1579.00, 
1580.00, 
1581.00, 
1582.00, 
1583.00, 
1584.00, 
1585.00, 
1586.00, 
1587.00, 
1588.00, 
1589.00, 
1590.00, 
1591.00, 
1592.00, 
1593.00, 
1594.00, 
1595.00, 
1596.00, 
1597.00, 
1598.00, 
1599.00, 
1600.00, 
1601.00, 
1602.00, 
1603.00, 
1604.00, 
1605.00, 
1606.00, 
1607.00, 
1608.00, 
1609.00, 
1610.00, 
1611.00, 
1612.00, 
1613.00, 
1614.00, 
1615.00, 
1616.00, 
1617.00, 
1618.00, 
1619.00, 
1620.00, 
1621.00, 
1622.00, 
1623.00, 
1624.00, 
1625.00, 
1626.00, 
1627.00, 
1628.00, 
1629.00, 
1630.00, 
1631.00, 
1632.00, 
1633.00, 
1634.00, 
1635.00, 
1636.00, 
1637.00, 
1638.00, 
1639.00, 
1640.00, 
1641.00, 
1642.00, 
1643.00, 
1644.00, 
1645.00, 
1646.00, 
1647.00, 
1648.00, 
1649.00, 
1650.00, 
1651.00, 
1652.00, 
1653.00, 
1654.00, 
1655.00, 
1656.00, 
1657.00, 
1658.00, 
1659.00, 
1660.00, 
1661.00, 
1662.00, 
1663.00, 
1664.00, 
1665.00, 
1666.00, 
1667.00, 
1668.00, 
1669.00, 
1670.00, 
1671.00, 
1672.00, 
1673.00, 
1674.00, 
1675.00, 
1676.00, 
1677.00, 
1678.00, 
1679.00, 
1680.00, 
1681.00, 
1682.00, 
1683.00, 
1684.00, 
1685.00, 
1686.00, 
1687.00, 
1688.00, 
1689.00, 
1690.00, 
1691.00, 
1692.00, 
1693.00, 
1694.00, 
1695.00, 
1696.00, 
1697.00, 
1698.00, 
1699.00, 
1700.00, 
1701.00, 
1702.00, 
1703.00, 
1704.00, 
1705.00, 
1706.00, 
1707.00, 
1708.00, 
1709.00, 
1710.00, 
1711.00, 
1712.00, 
1713.00, 
1714.00, 
1715.00, 
1716.00, 
1717.00, 
1718.00, 
1719.00, 
1720.00, 
1721.00, 
1722.00, 
1723.00, 
1724.00, 
1725.00, 
1726.00, 
1727.00, 
1728.00, 
1729.00, 
1730.00, 
1731.00, 
1732.00, 
1733.00, 
1734.00, 
1735.00, 
1736.00, 
1737.00, 
1738.00, 
1739.00, 
1740.00, 
1741.00, 
1742.00, 
1743.00, 
1744.00, 
1745.00, 
1746.00, 
1747.00, 
1748.00, 
1749.00, 
1750.00, 
1751.00, 
1752.00, 
1753.00, 
1754.00, 
1755.00, 
1756.00, 
1757.00, 
1758.00, 
1759.00, 
1760.00, 
1761.00, 
1762.00, 
1763.00, 
1764.00, 
1765.00, 
1766.00, 
1767.00, 
1768.00, 
1769.00, 
1770.00, 
1771.00, 
1772.00, 
1773.00, 
1774.00, 
1775.00, 
1776.00, 
1777.00, 
1778.00, 
1779.00, 
1780.00, 
1781.00, 
1782.00, 
1783.00, 
1784.00, 
1785.00, 
1786.00, 
1787.00, 
1788.00, 
1789.00, 
1790.00, 
1791.00, 
1792.00, 
1793.00, 
1794.00, 
1795.00, 
1796.00, 
1797.00, 
1798.00, 
1799.00, 
1800.00, 
1801.00, 
1802.00, 
1803.00, 
1804.00, 
1805.00, 
1806.00, 
1807.00, 
1808.00, 
1809.00, 
1810.00, 
1811.00, 
1812.00, 
1813.00, 
1814.00, 
1815.00, 
1816.00, 
1817.00, 
1818.00, 
1819.00, 
1820.00, 
1821.00, 
1822.00, 
1823.00, 
1824.00, 
1825.00, 
1826.00, 
1827.00, 
1828.00, 
1829.00, 
1830.00, 
1831.00, 
1832.00, 
1833.00, 
1834.00, 
1835.00, 
1836.00, 
1837.00, 
1838.00, 
1839.00, 
1840.00, 
1841.00, 
1842.00, 
1843.00, 
1844.00, 
1845.00, 
1846.00, 
1847.00, 
1848.00, 
1849.00, 
1850.00, 
1851.00, 
1852.00, 
1853.00, 
1854.00, 
1855.00, 
1856.00, 
1857.00, 
1858.00, 
1859.00, 
1860.00, 
1861.00, 
1862.00, 
1863.00, 
1864.00, 
1865.00, 
1866.00, 
1867.00, 
1868.00, 
1869.00, 
1870.00, 
1871.00, 
1872.00, 
1873.00, 
1874.00, 
1875.00, 
1876.00, 
1877.00, 
1878.00, 
1879.00, 
1880.00, 
1881.00, 
1882.00, 
1883.00, 
1884.00, 
1885.00, 
1886.00, 
1887.00, 
1888.00, 
1889.00, 
1890.00, 
1891.00, 
1892.00, 
1893.00, 
1894.00, 
1895.00, 
1896.00, 
1897.00, 
1898.00, 
1899.00, 
1900.00, 
1901.00, 
1902.00, 
1903.00, 
1904.00, 
1905.00, 
1906.00, 
1907.00, 
1908.00, 
1909.00, 
1910.00, 
1911.00, 
1912.00, 
1913.00, 
1914.00, 
1915.00, 
1916.00, 
1917.00, 
1918.00, 
1919.00, 
1920.00, 
1921.00, 
1922.00, 
1923.00, 
1924.00, 
1925.00, 
1926.00, 
1927.00, 
1928.00, 
1929.00, 
1930.00, 
1931.00, 
1932.00, 
1933.00, 
1934.00, 
1935.00, 
1936.00, 
1937.00, 
1938.00, 
1939.00, 
1940.00, 
1941.00, 
1942.00, 
1943.00, 
1944.00, 
1945.00, 
1946.00, 
1947.00, 
1948.00, 
1949.00, 
1950.00, 
1951.00, 
1952.00, 
1953.00, 
1954.00, 
1955.00, 
1956.00, 
1957.00, 
1958.00, 
1959.00, 
1960.00, 
1961.00, 
1962.00, 
1963.00, 
1964.00, 
1965.00, 
1966.00, 
1967.00, 
1968.00, 
1969.00, 
1970.00, 
1971.00, 
1972.00, 
1973.00, 
1974.00, 
1975.00, 
1976.00, 
1977.00, 
1978.00, 
1979.00, 
1980.00, 
1981.00, 
1982.00, 
1983.00, 
1984.00, 
1985.00, 
1986.00, 
1987.00, 
1988.00, 
1989.00, 
1990.00, 
1991.00, 
1992.00, 
1993.00, 
1994.00, 
1995.00, 
1996.00, 
1997.00, 
1998.00, 
1999.00, 
2000.00, 
2001.00, 
2002.00, 
2003.00, 
2004.00, 
2005.00, 
2006.00, 
2007.00, 
2008.00, 
2009.00, 
2010.00, 
2011.00, 
2012.00, 
2013.00, 
2014.00, 
2015.00, 
2016.00, 
2017.00, 
2018.00, 
2019.00, 
2020.00, 
2021.00, 
2022.00, 
2023.00, 
2024.00, 
2025.00, 
2026.00, 
2027.00, 
2028.00, 
2029.00, 
2030.00, 
2031.00, 
2032.00, 
2033.00, 
2034.00, 
2035.00, 
2036.00, 
2037.00, 
2038.00, 
2039.00, 
2040.00, 
2041.00, 
2042.00, 
2043.00, 
2044.00, 
2045.00, 
2046.00, 
2047.00, 
2048.00, 
2049.00, 
2050.00, 
2051.00, 
2052.00, 
2053.00, 
2054.00, 
2055.00, 
2056.00, 
2057.00, 
2058.00, 
2059.00, 
2060.00, 
2061.00, 
2062.00, 
2063.00, 
2064.00, 
2065.00, 
2066.00, 
2067.00, 
2068.00, 
2069.00, 
2070.00, 
2071.00, 
2072.00, 
2073.00, 
2074.00, 
2075.00, 
2076.00, 
2077.00, 
2078.00, 
2079.00, 
2080.00, 
2081.00, 
2082.00, 
2083.00, 
2084.00, 
2085.00, 
2086.00, 
2087.00, 
2088.00, 
2089.00, 
2090.00, 
2091.00, 
2092.00, 
2093.00, 
2094.00, 
2095.00, 
2096.00, 
2097.00, 
2098.00, 
2099.00, 
2100.00, 
2101.00, 
2102.00, 
2103.00, 
2104.00, 
2105.00, 
2106.00, 
2107.00, 
2108.00, 
2109.00, 
2110.00, 
2111.00, 
2112.00, 
2113.00, 
2114.00, 
2115.00, 
2116.00, 
2117.00, 
2118.00, 
2119.00, 
2120.00, 
2121.00, 
2122.00, 
2123.00, 
2124.00, 
2125.00, 
2126.00, 
2127.00, 
2128.00, 
2129.00, 
2130.00, 
2131.00, 
2132.00, 
2133.00, 
2134.00, 
2135.00, 
2136.00, 
2137.00, 
2138.00, 
2139.00, 
2140.00, 
2141.00, 
2142.00, 
2143.00, 
2144.00, 
2145.00, 
2146.00, 
2147.00, 
2148.00, 
2149.00, 
2150.00, 
2151.00, 
2152.00, 
2153.00, 
2154.00, 
2155.00, 
2156.00, 
2157.00, 
2158.00, 
2159.00, 
2160.00, 
2161.00, 
2162.00, 
2163.00, 
2164.00, 
2165.00, 
2166.00, 
2167.00, 
2168.00, 
2169.00, 
2170.00, 
2171.00, 
2172.00, 
2173.00, 
2174.00, 
2175.00, 
2176.00, 
2177.00, 
2178.00, 
2179.00, 
2180.00, 
2181.00, 
2182.00, 
2183.00, 
2184.00, 
2185.00, 
2186.00, 
2187.00, 
2188.00, 
2189.00, 
2190.00, 
2191.00, 
2192.00, 
2193.00, 
2194.00, 
2195.00, 
2196.00, 
2197.00, 
2198.00, 
2199.00, 
2200.00, 
2201.00, 
2202.00, 
2203.00, 
2204.00, 
2205.00, 
2206.00, 
2207.00, 
2208.00, 
2209.00, 
2210.00, 
2211.00, 
2212.00, 
2213.00, 
2214.00, 
2215.00, 
2216.00, 
2217.00, 
2218.00, 
2219.00, 
2220.00, 
2221.00, 
2222.00, 
2223.00, 
2224.00, 
2225.00, 
2226.00, 
2227.00, 
2228.00, 
2229.00, 
2230.00, 
2231.00, 
2232.00, 
2233.00, 
2234.00, 
2235.00, 
2236.00, 
2237.00, 
2238.00, 
2239.00, 
2240.00, 
2241.00, 
2242.00, 
2243.00, 
2244.00, 
2245.00, 
2246.00, 
2247.00, 
2248.00, 
2249.00, 
2250.00, 
2251.00, 
2252.00, 
2253.00, 
2254.00, 
2255.00, 
2256.00, 
2257.00, 
2258.00, 
2259.00, 
2260.00, 
2261.00, 
2262.00, 
2263.00, 
2264.00, 
2265.00, 
2266.00, 
2267.00, 
2268.00, 
2269.00, 
2270.00, 
2271.00, 
2272.00, 
2273.00, 
2274.00, 
2275.00, 
2276.00, 
2277.00, 
2278.00, 
2279.00, 
2280.00, 
2281.00, 
2282.00, 
2283.00, 
2284.00, 
2285.00, 
2286.00, 
2287.00, 
2288.00, 
2289.00, 
2290.00, 
2291.00, 
2292.00, 
2293.00, 
2294.00, 
2295.00, 
2296.00, 
2297.00, 
2298.00, 
2299.00, 
2300.00, 
2301.00, 
2302.00, 
2303.00, 
2304.00, 
2305.00, 
2306.00, 
2307.00, 
2308.00, 
2309.00, 
2310.00, 
2311.00, 
2312.00, 
2313.00, 
2314.00, 
2315.00, 
2316.00, 
2317.00, 
2318.00, 
2319.00, 
2320.00, 
2321.00, 
2322.00, 
2323.00, 
2324.00, 
2325.00, 
2326.00, 
2327.00, 
2328.00, 
2329.00, 
2330.00, 
2331.00, 
2332.00, 
2333.00, 
2334.00, 
2335.00, 
2336.00, 
2337.00, 
2338.00, 
2339.00, 
2340.00, 
2341.00, 
2342.00, 
2343.00, 
2344.00, 
2345.00, 
2346.00, 
2347.00, 
2348.00, 
2349.00, 
2350.00, 
2351.00, 
2352.00, 
2353.00, 
2354.00, 
2355.00, 
2356.00, 
2357.00, 
2358.00, 
2359.00, 
2360.00, 
2361.00, 
2362.00, 
2363.00, 
2364.00, 
2365.00, 
2366.00, 
2367.00, 
2368.00, 
2369.00, 
2370.00, 
2371.00, 
2372.00, 
2373.00, 
2374.00, 
2375.00, 
2376.00, 
2377.00, 
2378.00, 
2379.00, 
2380.00, 
2381.00, 
2382.00, 
2383.00, 
2384.00, 
2385.00, 
2386.00, 
2387.00, 
2388.00, 
2389.00, 
2390.00, 
2391.00, 
2392.00, 
2393.00, 
2394.00, 
2395.00, 
2396.00, 
2397.00, 
2398.00, 
2399.00, 
2400.00, 
2401.00, 
2402.00, 
2403.00, 
2404.00, 
2405.00, 
2406.00, 
2407.00, 
2408.00, 
2409.00, 
2410.00, 
2411.00, 
2412.00, 
2413.00, 
2414.00, 
2415.00, 
2416.00, 
2417.00, 
2418.00, 
2419.00, 
2420.00, 
2421.00, 
2422.00, 
2423.00, 
2424.00, 
2425.00, 
2426.00, 
2427.00, 
2428.00, 
2429.00, 
2430.00, 
2431.00, 
2432.00, 
2433.00, 
2434.00, 
2435.00, 
2436.00, 
2437.00, 
2438.00, 
2439.00, 
2440.00, 
2441.00, 
2442.00, 
2443.00, 
2444.00, 
2445.00, 
2446.00, 
2447.00, 
2448.00, 
2449.00, 
2450.00, 
2451.00, 
2452.00, 
2453.00, 
2454.00, 
2455.00, 
2456.00, 
2457.00, 
2458.00, 
2459.00, 
2460.00, 
2461.00, 
2462.00, 
2463.00, 
2464.00, 
2465.00, 
2466.00, 
2467.00, 
2468.00, 
2469.00, 
2470.00, 
2471.00, 
2472.00, 
2473.00, 
2474.00, 
2475.00, 
2476.00, 
2477.00, 
2478.00, 
2479.00, 
2480.00, 
2481.00, 
2482.00, 
2483.00, 
2484.00, 
2485.00, 
2486.00, 
2487.00, 
2488.00, 
2489.00, 
2490.00, 
2491.00, 
2492.00, 
2493.00, 
2494.00, 
2495.00, 
2496.00, 
2497.00, 
2498.00, 
2499.00, 
2500.00, 
2501.00, 
2502.00, 
2503.00, 
2504.00, 
2505.00, 
2506.00, 
2507.00, 
2508.00, 
2509.00, 
2510.00, 
2511.00, 
2512.00, 
2513.00, 
2514.00, 
2515.00, 
2516.00, 
2517.00, 
2518.00, 
2519.00, 
2520.00, 
2521.00, 
2522.00, 
2523.00, 
2524.00, 
2525.00, 
2526.00, 
2527.00, 
2528.00, 
2529.00, 
2530.00, 
2531.00, 
2532.00, 
2533.00, 
2534.00, 
2535.00, 
2536.00, 
2537.00, 
2538.00, 
2539.00, 
2540.00, 
2541.00, 
2542.00, 
2543.00, 
2544.00, 
2545.00, 
2546.00, 
2547.00, 
2548.00, 
2549.00, 
2550.00, 
2551.00, 
2552.00, 
2553.00, 
2554.00, 
2555.00, 
2556.00, 
2557.00, 
2558.00, 
2559.00, 
2560.00, 
2561.00, 
2562.00, 
2563.00, 
2564.00, 
2565.00, 
2566.00, 
2567.00, 
2568.00, 
2569.00, 
2570.00, 
2571.00, 
2572.00, 
2573.00, 
2574.00, 
2575.00, 
2576.00, 
2577.00, 
2578.00, 
2579.00, 
2580.00, 
2581.00, 
2582.00, 
2583.00, 
2584.00, 
2585.00, 
2586.00, 
2587.00, 
2588.00, 
2589.00, 
2590.00, 
2591.00, 
2592.00, 
2593.00, 
2594.00, 
2595.00, 
2596.00, 
2597.00, 
2598.00, 
2599.00, 
2600.00, 
