"1cP1 - RawData"
"Wavelength nm.","T%"
200.00,0.001
201.00,0.003
202.00,0.000
203.00,-0.003
204.00,0.001
205.00,0.001
206.00,0.002
207.00,0.000
208.00,0.002
209.00,0.003
210.00,0.002
211.00,0.001
212.00,0.002
213.00,-0.001
214.00,0.002
215.00,0.002
216.00,0.002
217.00,0.003
218.00,0.003
219.00,0.004
220.00,0.003
221.00,-0.001
222.00,0.001
223.00,0.003
224.00,0.004
225.00,-0.002
226.00,0.000
227.00,-0.001
228.00,-0.000
229.00,0.002
230.00,0.001
231.00,0.001
232.00,-0.001
233.00,-0.000
234.00,0.000
235.00,0.001
236.00,0.003
237.00,0.003
238.00,-0.000
239.00,-0.002
240.00,0.001
241.00,-0.000
242.00,0.002
243.00,-0.000
244.00,0.001
245.00,0.001
246.00,0.000
247.00,0.002
248.00,-0.000
249.00,-0.001
250.00,0.001
251.00,0.000
252.00,-0.002
253.00,-0.000
254.00,0.001
255.00,0.001
256.00,-0.001
257.00,-0.001
258.00,-0.001
259.00,-0.000
260.00,-0.002
261.00,-0.000
262.00,-0.000
263.00,0.001
264.00,-0.002
265.00,-0.003
266.00,0.001
267.00,-0.000
268.00,0.001
269.00,-0.000
270.00,0.002
271.00,0.001
272.00,0.002
273.00,0.001
274.00,-0.000
275.00,-0.000
276.00,-0.000
277.00,-0.001
278.00,0.001
279.00,-0.001
280.00,-0.000
281.00,0.001
282.00,0.001
283.00,0.001
284.00,0.000
285.00,0.001
286.00,-0.001
287.00,-0.002
288.00,0.000
289.00,0.001
290.00,0.001
291.00,0.001
292.00,-0.000
293.00,-0.000
294.00,0.000
295.00,0.001
296.00,-0.001
297.00,-0.000
298.00,0.000
299.00,0.002
300.00,0.001
301.00,0.000
302.00,0.001
303.00,0.001
304.00,0.002
305.00,0.002
306.00,0.004
307.00,0.002
308.00,0.004
309.00,0.011
310.00,0.018
311.00,0.029
312.00,0.044
313.00,0.070
314.00,0.102
315.00,0.145
316.00,0.213
317.00,0.301
318.00,0.411
319.00,0.558
320.00,0.738
321.00,0.952
322.00,1.223
323.00,1.549
324.00,1.912
325.00,2.307
326.00,2.744
327.00,3.255
328.00,3.803
329.00,4.381
330.00,5.020
331.00,5.714
332.00,6.406
333.00,7.187
334.00,7.931
335.00,8.592
336.00,9.479
337.00,10.290
338.00,11.098
339.00,11.854
340.00,12.670
341.00,13.471
342.00,14.207
343.00,14.928
344.00,15.585
345.00,16.339
346.00,16.941
347.00,17.536
348.00,18.085
349.00,18.631
350.00,19.210
351.00,19.653
352.00,20.105
353.00,20.552
354.00,20.922
355.00,21.342
356.00,21.719
357.00,22.028
358.00,22.337
359.00,22.669
360.00,22.985
361.00,23.185
362.00,23.419
363.00,23.607
364.00,23.760
365.00,23.891
366.00,24.038
367.00,24.173
368.00,24.230
369.00,24.335
370.00,24.436
371.00,24.442
372.00,24.404
373.00,24.401
374.00,24.443
375.00,24.430
376.00,24.337
377.00,24.255
378.00,24.157
379.00,24.060
380.00,24.014
381.00,24.033
382.00,24.089
383.00,24.107
384.00,24.198
385.00,24.253
386.00,24.315
387.00,24.446
388.00,24.546
389.00,24.526
390.00,24.591
391.00,24.664
392.00,24.739
393.00,24.770
394.00,24.832
395.00,24.883
396.00,24.882
397.00,24.932
398.00,24.921
399.00,24.925
400.00,24.978
401.00,24.941
402.00,24.932
403.00,24.956
404.00,24.999
405.00,24.939
406.00,24.927
407.00,24.854
408.00,24.902
409.00,24.785
410.00,24.722
411.00,24.741
412.00,24.696
413.00,24.733
414.00,24.660
415.00,24.686
416.00,24.730
417.00,24.717
418.00,24.709
419.00,24.798
420.00,24.851
421.00,24.850
422.00,24.873
423.00,24.909
424.00,24.954
425.00,24.992
426.00,24.980
427.00,25.040
428.00,25.051
429.00,25.118
430.00,25.152
431.00,25.207
432.00,25.231
433.00,25.298
434.00,25.374
435.00,25.397
436.00,25.457
437.00,25.503
438.00,25.564
439.00,25.596
440.00,25.707
441.00,25.745
442.00,25.808
443.00,25.885
444.00,26.010
445.00,26.087
446.00,26.154
447.00,26.284
448.00,26.347
449.00,26.452
450.00,26.571
451.00,26.650
452.00,26.748
453.00,26.848
454.00,26.935
455.00,27.034
456.00,27.191
457.00,27.273
458.00,27.364
459.00,27.486
460.00,27.637
461.00,27.746
462.00,27.862
463.00,27.969
464.00,28.094
465.00,28.198
466.00,28.334
467.00,28.448
468.00,28.513
469.00,28.643
470.00,28.734
471.00,28.828
472.00,28.884
473.00,28.938
474.00,29.141
475.00,29.230
476.00,29.314
477.00,29.399
478.00,29.538
479.00,29.728
480.00,29.830
481.00,29.927
482.00,30.075
483.00,30.209
484.00,30.389
485.00,30.503
486.00,30.700
487.00,30.832
488.00,30.981
489.00,31.139
490.00,31.267
491.00,31.341
492.00,31.610
493.00,31.707
494.00,31.674
495.00,31.824
496.00,31.937
497.00,32.067
498.00,32.240
499.00,32.311
500.00,32.401
501.00,32.521
502.00,32.630
503.00,32.854
504.00,32.850
505.00,33.021
506.00,33.106
507.00,33.166
508.00,33.269
509.00,33.490
510.00,33.561
511.00,33.613
512.00,33.842
513.00,34.038
514.00,34.015
515.00,34.136
516.00,34.292
517.00,34.309
518.00,34.505
519.00,34.561
520.00,34.630
521.00,34.735
522.00,34.774
523.00,34.811
524.00,34.923
525.00,35.025
526.00,35.131
527.00,35.188
528.00,35.273
529.00,35.449
530.00,35.601
531.00,35.707
532.00,35.799
533.00,35.888
534.00,35.973
535.00,36.051
536.00,36.136
537.00,36.228
538.00,36.302
539.00,36.311
540.00,36.407
541.00,36.469
542.00,36.546
543.00,36.589
544.00,36.683
545.00,36.763
546.00,36.785
547.00,36.945
548.00,37.007
549.00,37.044
550.00,37.098
551.00,37.225
552.00,37.297
553.00,37.292
554.00,37.403
555.00,37.438
556.00,37.494
557.00,37.566
558.00,37.610
559.00,37.706
560.00,37.740
561.00,37.831
562.00,37.853
563.00,37.886
564.00,37.955
565.00,37.997
566.00,37.982
567.00,37.965
568.00,38.054
569.00,38.061
570.00,38.104
571.00,38.233
572.00,38.172
573.00,38.070
574.00,38.190
575.00,38.268
576.00,38.289
577.00,38.420
578.00,38.474
579.00,38.520
580.00,38.529
581.00,38.701
582.00,38.777
583.00,38.790
584.00,38.903
585.00,38.920
586.00,38.995
587.00,39.094
588.00,39.043
589.00,39.003
590.00,39.133
591.00,39.184
592.00,39.268
593.00,39.332
594.00,39.295
595.00,39.314
596.00,39.370
597.00,39.405
598.00,39.486
599.00,39.521
600.00,39.604
601.00,39.632
602.00,39.619
603.00,39.534
604.00,39.600
605.00,39.724
606.00,39.746
607.00,39.830
608.00,39.944
609.00,40.024
610.00,39.842
611.00,39.850
612.00,39.867
613.00,40.050
614.00,39.998
615.00,39.960
616.00,40.087
617.00,40.272
618.00,40.277
619.00,40.320
620.00,40.315
621.00,40.410
622.00,40.524
623.00,40.509
624.00,40.593
625.00,40.673
626.00,40.667
627.00,40.690
628.00,40.716
629.00,40.766
630.00,40.769
631.00,40.860
632.00,40.937
633.00,41.067
634.00,41.103
635.00,41.252
636.00,41.249
637.00,41.285
638.00,41.357
639.00,41.415
640.00,41.410
641.00,41.445
642.00,41.508
643.00,41.634
644.00,41.762
645.00,41.764
646.00,41.806
647.00,41.915
648.00,41.852
649.00,41.906
650.00,41.978
651.00,42.093
652.00,42.190
653.00,42.151
654.00,42.232
655.00,42.351
656.00,42.610
657.00,42.460
658.00,42.586
659.00,42.651
660.00,42.660
661.00,42.586
662.00,42.739
663.00,42.860
664.00,43.136
665.00,43.274
666.00,43.192
667.00,43.248
668.00,43.307
669.00,43.514
670.00,43.717
671.00,43.573
672.00,43.677
673.00,43.807
674.00,43.798
675.00,43.921
676.00,44.137
677.00,44.247
678.00,43.986
679.00,44.097
680.00,44.210
681.00,44.359
682.00,44.305
683.00,44.291
684.00,44.468
685.00,44.477
686.00,44.246
687.00,44.443
688.00,44.851
689.00,44.877
690.00,44.957
691.00,45.234
692.00,44.977
693.00,45.007
694.00,45.225
695.00,45.393
696.00,45.298
697.00,45.258
698.00,45.384
699.00,45.552
700.00,45.515
701.00,45.660
702.00,45.720
703.00,45.871
704.00,45.924
705.00,45.823
706.00,45.774
707.00,45.841
708.00,46.013
709.00,46.322
710.00,46.268
711.00,46.282
712.00,46.166
713.00,46.392
714.00,46.438
715.00,46.429
716.00,46.336
717.00,46.586
718.00,46.705
719.00,46.559
720.00,46.645
721.00,51.196
722.00,51.255
723.00,51.266
724.00,51.199
725.00,51.251
726.00,51.200
727.00,51.212
728.00,51.207
729.00,51.226
730.00,51.263
731.00,51.308
732.00,51.258
733.00,51.314
734.00,51.426
735.00,51.378
736.00,51.307
737.00,51.435
738.00,51.346
739.00,51.414
740.00,51.435
741.00,51.467
742.00,51.539
743.00,51.445
744.00,51.476
745.00,51.492
746.00,51.507
747.00,51.425
748.00,51.436
749.00,51.463
750.00,51.376
751.00,51.392
752.00,51.381
753.00,51.366
754.00,51.366
755.00,51.288
756.00,51.378
757.00,51.382
758.00,51.439
759.00,51.339
760.00,51.377
761.00,51.392
762.00,51.377
763.00,51.393
764.00,51.327
765.00,51.354
766.00,51.341
767.00,51.405
768.00,51.443
769.00,51.395
770.00,51.380
771.00,51.427
772.00,51.390
773.00,51.396
774.00,51.413
775.00,51.417
776.00,51.450
777.00,51.394
778.00,51.395
779.00,51.455
780.00,51.364
781.00,51.370
782.00,51.413
783.00,51.424
784.00,51.331
785.00,51.284
786.00,51.351
787.00,51.250
788.00,51.283
789.00,51.241
790.00,51.214
791.00,51.373
792.00,51.123
793.00,51.188
794.00,51.175
795.00,51.131
796.00,51.184
797.00,51.163
798.00,51.161
799.00,51.126
800.00,51.017
801.00,51.067
802.00,51.096
803.00,51.026
804.00,50.990
805.00,51.045
806.00,50.935
807.00,51.007
808.00,50.954
809.00,50.885
810.00,50.876
811.00,50.941
812.00,50.877
813.00,50.807
814.00,50.882
815.00,50.832
816.00,50.859
817.00,50.752
818.00,50.686
819.00,50.712
820.00,50.616
821.00,50.646
822.00,50.694
823.00,50.645
824.00,50.734
825.00,50.589
826.00,50.587
827.00,50.697
828.00,50.536
829.00,50.555
830.00,50.687
831.00,52.861
832.00,52.819
833.00,52.812
834.00,52.802
835.00,52.743
836.00,52.732
837.00,52.706
838.00,52.699
839.00,52.644
840.00,52.622
841.00,52.624
842.00,52.596
843.00,52.603
844.00,52.611
845.00,52.555
846.00,52.572
847.00,52.493
848.00,52.478
849.00,52.398
850.00,52.397
851.00,52.337
852.00,52.369
853.00,52.339
854.00,52.298
855.00,52.218
856.00,52.257
857.00,52.189
858.00,52.176
859.00,52.132
860.00,52.141
861.00,52.156
862.00,52.062
863.00,52.082
864.00,52.066
865.00,52.053
866.00,52.020
867.00,52.059
868.00,52.025
869.00,52.013
870.00,52.019
871.00,52.020
872.00,52.004
873.00,51.969
874.00,51.998
875.00,51.922
876.00,51.980
877.00,51.899
878.00,51.913
879.00,51.863
880.00,51.837
881.00,51.813
882.00,51.878
883.00,51.799
884.00,51.726
885.00,51.893
886.00,51.739
887.00,51.687
888.00,51.697
889.00,51.591
890.00,51.659
891.00,51.614
892.00,51.598
893.00,51.571
894.00,51.595
895.00,51.549
896.00,51.543
897.00,51.518
898.00,51.493
899.00,51.494
900.00,51.474
901.00,51.583
902.00,51.441
903.00,51.428
904.00,51.403
905.00,51.384
906.00,51.361
907.00,51.325
908.00,51.301
909.00,51.282
910.00,51.267
911.00,51.276
912.00,51.250
913.00,51.216
914.00,51.157
915.00,51.217
916.00,51.151
917.00,51.140
918.00,51.129
919.00,51.088
920.00,51.052
921.00,51.034
922.00,51.029
923.00,51.003
924.00,50.975
925.00,50.974
926.00,50.953
927.00,50.955
928.00,50.909
929.00,50.895
930.00,50.982
931.00,50.873
932.00,50.814
933.00,50.843
934.00,50.821
935.00,50.803
936.00,50.767
937.00,50.742
938.00,50.745
939.00,50.746
940.00,50.688
941.00,50.697
942.00,50.667
943.00,50.664
944.00,50.607
945.00,50.619
946.00,50.597
947.00,50.568
948.00,50.548
949.00,50.536
950.00,50.524
951.00,50.496
952.00,50.475
953.00,50.418
954.00,50.399
955.00,50.350
956.00,50.350
957.00,50.304
958.00,50.328
959.00,50.262
960.00,50.266
961.00,50.255
962.00,50.247
963.00,50.200
964.00,50.208
965.00,50.213
966.00,50.209
967.00,50.197
968.00,50.164
969.00,50.198
970.00,50.162
971.00,50.180
972.00,50.144
973.00,50.197
974.00,50.197
975.00,50.146
976.00,50.202
977.00,50.183
978.00,50.211
979.00,50.152
980.00,50.175
981.00,50.176
982.00,50.140
983.00,50.150
984.00,50.135
985.00,50.159
986.00,50.110
987.00,50.127
988.00,50.090
989.00,50.089
990.00,50.073
991.00,50.091
992.00,50.083
993.00,50.047
994.00,50.032
995.00,50.018
996.00,49.998
997.00,49.979
998.00,49.966
999.00,49.991
1000.00,49.939
1001.00,49.926
1002.00,49.946
1003.00,49.918
1004.00,49.905
1005.00,49.892
1006.00,49.932
1007.00,49.901
1008.00,49.876
1009.00,49.849
1010.00,49.848
1011.00,49.842
1012.00,49.800
1013.00,49.819
1014.00,49.767
1015.00,49.779
1016.00,49.747
1017.00,49.744
1018.00,49.739
1019.00,49.698
1020.00,49.699
1021.00,49.673
1022.00,49.676
1023.00,49.625
1024.00,49.649
1025.00,49.619
1026.00,49.603
1027.00,49.586
1028.00,49.579
1029.00,49.560
1030.00,49.523
1031.00,49.549
1032.00,49.506
1033.00,49.503
1034.00,49.483
1035.00,49.451
1036.00,49.435
1037.00,49.421
1038.00,49.404
1039.00,49.370
1040.00,49.359
1041.00,49.322
1042.00,49.318
1043.00,49.308
1044.00,49.321
1045.00,49.313
1046.00,49.311
1047.00,49.322
1048.00,49.325
1049.00,49.340
1050.00,49.343
1051.00,49.393
1052.00,49.409
1053.00,49.385
1054.00,49.388
1055.00,49.419
1056.00,49.432
1057.00,49.411
1058.00,49.384
1059.00,49.390
1060.00,49.415
1061.00,49.378
1062.00,49.378
1063.00,49.388
1064.00,49.391
1065.00,49.384
1066.00,49.386
1067.00,49.367
1068.00,49.389
1069.00,49.334
1070.00,49.328
1071.00,49.314
1072.00,49.333
1073.00,49.305
1074.00,49.294
1075.00,49.286
1076.00,49.292
1077.00,49.268
1078.00,49.225
1079.00,49.243
1080.00,49.258
1081.00,49.235
1082.00,49.247
1083.00,49.257
1084.00,49.219
1085.00,49.216
1086.00,49.191
1087.00,49.203
1088.00,49.178
1089.00,49.173
1090.00,49.177
1091.00,49.179
1092.00,49.162
1093.00,49.149
1094.00,49.129
1095.00,49.123
1096.00,49.104
1097.00,49.117
1098.00,49.136
1099.00,49.102
1100.00,49.087
1101.00,49.089
1102.00,49.071
1103.00,49.073
1104.00,49.067
1105.00,49.053
1106.00,49.039
1107.00,49.032
1108.00,49.013
1109.00,49.013
1110.00,48.998
1111.00,48.995
1112.00,48.987
1113.00,48.980
1114.00,48.961
1115.00,48.958
1116.00,48.953
1117.00,48.944
1118.00,48.930
1119.00,48.922
1120.00,48.924
1121.00,48.922
1122.00,48.900
1123.00,48.887
1124.00,48.903
1125.00,48.900
1126.00,48.882
1127.00,48.886
1128.00,48.872
1129.00,48.858
1130.00,48.850
1131.00,48.861
1132.00,48.847
1133.00,48.855
1134.00,48.851
1135.00,48.837
1136.00,48.835
1137.00,48.836
1138.00,48.834
1139.00,48.840
1140.00,48.821
1141.00,48.824
1142.00,48.831
1143.00,48.864
1144.00,48.827
1145.00,48.810
1146.00,48.807
1147.00,48.790
1148.00,48.790
1149.00,48.804
1150.00,48.799
1151.00,48.801
1152.00,48.793
1153.00,48.799
1154.00,48.784
1155.00,48.780
1156.00,48.792
1157.00,48.786
1158.00,48.777
1159.00,48.785
1160.00,48.769
1161.00,48.780
1162.00,48.772
1163.00,48.769
1164.00,48.790
1165.00,48.771
1166.00,48.763
1167.00,48.756
1168.00,48.768
1169.00,48.747
1170.00,48.755
1171.00,48.735
1172.00,48.739
1173.00,48.727
1174.00,48.741
1175.00,48.748
1176.00,48.743
1177.00,48.729
1178.00,48.739
1179.00,48.752
1180.00,48.730
1181.00,48.755
1182.00,48.749
1183.00,48.759
1184.00,48.747
1185.00,48.740
1186.00,48.725
1187.00,48.730
1188.00,48.725
1189.00,48.732
1190.00,48.727
1191.00,48.716
1192.00,48.748
1193.00,48.733
1194.00,48.729
1195.00,48.705
1196.00,48.738
1197.00,48.747
1198.00,48.730
1199.00,48.730
1200.00,48.747
1201.00,48.749
1202.00,48.735
1203.00,48.736
1204.00,48.725
1205.00,48.757
1206.00,48.730
1207.00,48.746
1208.00,48.728
1209.00,48.718
1210.00,48.723
1211.00,48.720
1212.00,48.741
1213.00,48.702
1214.00,48.735
1215.00,48.702
1216.00,48.695
1217.00,48.712
1218.00,48.721
1219.00,48.752
1220.00,48.743
1221.00,48.751
1222.00,48.746
1223.00,48.759
1224.00,48.758
1225.00,48.734
1226.00,48.736
1227.00,48.724
1228.00,48.752
1229.00,48.754
1230.00,48.785
1231.00,48.781
1232.00,48.799
1233.00,48.803
1234.00,48.799
1235.00,48.805
1236.00,48.806
1237.00,48.816
1238.00,48.808
1239.00,48.817
1240.00,48.804
1241.00,48.821
1242.00,48.806
1243.00,48.808
1244.00,48.795
1245.00,48.828
1246.00,48.830
1247.00,48.820
1248.00,48.823
1249.00,48.828
1250.00,48.861
1251.00,48.849
1252.00,48.843
1253.00,48.818
1254.00,48.847
1255.00,48.835
1256.00,48.811
1257.00,48.840
1258.00,48.901
1259.00,48.877
1260.00,48.897
1261.00,48.904
1262.00,48.880
1263.00,48.888
1264.00,48.903
1265.00,48.911
1266.00,48.918
1267.00,48.923
1268.00,48.928
1269.00,48.934
1270.00,48.947
1271.00,48.940
1272.00,48.944
1273.00,48.960
1274.00,48.965
1275.00,48.977
1276.00,48.974
1277.00,49.006
1278.00,49.024
1279.00,49.010
1280.00,48.981
1281.00,48.992
1282.00,49.006
1283.00,48.993
1284.00,49.006
1285.00,49.006
1286.00,49.019
1287.00,49.008
1288.00,49.019
1289.00,49.015
1290.00,49.045
1291.00,49.053
1292.00,49.047
1293.00,49.058
1294.00,49.074
1295.00,49.083
1296.00,49.104
1297.00,49.100
1298.00,49.132
1299.00,49.092
1300.00,49.109
1301.00,49.100
1302.00,49.132
1303.00,49.132
1304.00,49.113
1305.00,49.141
1306.00,49.139
1307.00,49.151
1308.00,49.144
1309.00,49.158
1310.00,49.160
1311.00,49.150
1312.00,49.160
1313.00,49.174
1314.00,49.192
1315.00,49.205
1316.00,49.197
1317.00,49.225
1318.00,49.226
1319.00,49.225
1320.00,49.238
1321.00,49.412
1322.00,49.394
1323.00,49.374
1324.00,49.389
1325.00,49.378
1326.00,49.408
1327.00,49.359
1328.00,49.381
1329.00,49.390
1330.00,49.383
1331.00,49.377
1332.00,49.406
1333.00,49.371
1334.00,49.415
1335.00,49.449
1336.00,49.475
1337.00,49.533
1338.00,49.575
1339.00,49.625
1340.00,49.701
1341.00,49.751
1342.00,49.822
1343.00,49.861
1344.00,49.898
1345.00,49.976
1346.00,50.001
1347.00,50.010
1348.00,50.047
1349.00,50.068
1350.00,50.077
1351.00,50.110
1352.00,50.140
1353.00,49.875
1354.00,50.138
1355.00,50.078
1356.00,50.161
1357.00,50.191
1358.00,50.174
1359.00,50.183
1360.00,50.193
1361.00,50.234
1362.00,50.064
1363.00,50.232
1364.00,50.252
1365.00,50.181
1366.00,50.255
1367.00,50.204
1368.00,50.111
1369.00,50.207
1370.00,50.186
1371.00,50.113
1372.00,50.135
1373.00,50.190
1374.00,50.185
1375.00,50.173
1376.00,50.169
1377.00,50.125
1378.00,50.163
1379.00,50.201
1380.00,50.175
1381.00,50.235
1382.00,50.182
1383.00,50.180
1384.00,50.126
1385.00,50.137
1386.00,50.159
1387.00,50.137
1388.00,50.132
1389.00,50.147
1390.00,50.139
1391.00,50.103
1392.00,50.140
1393.00,50.086
1394.00,50.170
1395.00,50.039
1396.00,50.234
1397.00,50.128
1398.00,50.243
1399.00,50.163
1400.00,50.089
1401.00,50.140
1402.00,50.225
1403.00,50.227
1404.00,50.167
1405.00,50.215
1406.00,50.218
1407.00,50.241
1408.00,50.209
1409.00,50.213
1410.00,50.241
1411.00,50.223
1412.00,50.286
1413.00,50.218
1414.00,50.241
1415.00,50.282
1416.00,50.277
1417.00,50.324
1418.00,50.297
1419.00,50.311
1420.00,50.336
1421.00,50.357
1422.00,50.352
1423.00,50.416
1424.00,50.389
1425.00,50.425
1426.00,50.418
1427.00,50.422
1428.00,50.447
1429.00,50.465
1430.00,50.473
1431.00,50.512
1432.00,50.515
1433.00,50.525
1434.00,50.523
1435.00,50.565
1436.00,50.601
1437.00,50.588
1438.00,50.607
1439.00,50.646
1440.00,50.658
1441.00,50.659
1442.00,50.688
1443.00,50.721
1444.00,50.767
1445.00,50.728
1446.00,50.747
1447.00,50.794
1448.00,50.835
1449.00,50.806
1450.00,50.833
1451.00,50.829
1452.00,50.855
1453.00,50.873
1454.00,50.890
1455.00,50.921
1456.00,50.932
1457.00,50.919
1458.00,50.984
1459.00,50.977
1460.00,51.005
1461.00,51.012
1462.00,51.031
1463.00,51.063
1464.00,51.055
1465.00,51.073
1466.00,51.090
1467.00,51.096
1468.00,51.144
1469.00,51.141
1470.00,51.154
1471.00,51.155
1472.00,51.167
1473.00,51.188
1474.00,51.222
1475.00,51.264
1476.00,51.272
1477.00,51.256
1478.00,51.307
1479.00,51.303
1480.00,51.318
1481.00,51.319
1482.00,51.355
1483.00,51.368
1484.00,51.359
1485.00,51.353
1486.00,51.368
1487.00,51.394
1488.00,51.433
1489.00,51.419
1490.00,51.443
1491.00,51.466
1492.00,51.487
1493.00,51.451
1494.00,51.499
1495.00,51.481
1496.00,51.512
1497.00,51.503
1498.00,51.521
1499.00,51.531
1500.00,51.567
1501.00, 
1502.00, 
1503.00, 
1504.00, 
1505.00, 
1506.00, 
1507.00, 
1508.00, 
1509.00, 
1510.00, 
1511.00, 
1512.00, 
1513.00, 
1514.00, 
1515.00, 
1516.00, 
1517.00, 
1518.00, 
1519.00, 
1520.00, 
1521.00, 
1522.00, 
1523.00, 
1524.00, 
1525.00, 
1526.00, 
1527.00, 
1528.00, 
1529.00, 
1530.00, 
1531.00, 
1532.00, 
1533.00, 
1534.00, 
1535.00, 
1536.00, 
1537.00, 
1538.00, 
1539.00, 
1540.00, 
1541.00, 
1542.00, 
1543.00, 
1544.00, 
1545.00, 
1546.00, 
1547.00, 
1548.00, 
1549.00, 
1550.00, 
1551.00, 
1552.00, 
1553.00, 
1554.00, 
1555.00, 
1556.00, 
1557.00, 
1558.00, 
1559.00, 
1560.00, 
1561.00, 
1562.00, 
1563.00, 
1564.00, 
1565.00, 
1566.00, 
1567.00, 
1568.00, 
1569.00, 
1570.00, 
1571.00, 
1572.00, 
1573.00, 
1574.00, 
1575.00, 
1576.00, 
1577.00, 
1578.00, 
1579.00, 
1580.00, 
1581.00, 
1582.00, 
1583.00, 
1584.00, 
1585.00, 
1586.00, 
1587.00, 
1588.00, 
1589.00, 
1590.00, 
1591.00, 
1592.00, 
1593.00, 
1594.00, 
1595.00, 
1596.00, 
1597.00, 
1598.00, 
1599.00, 
1600.00, 
1601.00, 
1602.00, 
1603.00, 
1604.00, 
1605.00, 
1606.00, 
1607.00, 
1608.00, 
1609.00, 
1610.00, 
1611.00, 
1612.00, 
1613.00, 
1614.00, 
1615.00, 
1616.00, 
1617.00, 
1618.00, 
1619.00, 
1620.00, 
1621.00, 
1622.00, 
1623.00, 
1624.00, 
1625.00, 
1626.00, 
1627.00, 
1628.00, 
1629.00, 
1630.00, 
1631.00, 
1632.00, 
1633.00, 
1634.00, 
1635.00, 
1636.00, 
1637.00, 
1638.00, 
1639.00, 
1640.00, 
1641.00, 
1642.00, 
1643.00, 
1644.00, 
1645.00, 
1646.00, 
1647.00, 
1648.00, 
1649.00, 
1650.00, 
1651.00, 
1652.00, 
1653.00, 
1654.00, 
1655.00, 
1656.00, 
1657.00, 
1658.00, 
1659.00, 
1660.00, 
1661.00, 
1662.00, 
1663.00, 
1664.00, 
1665.00, 
1666.00, 
1667.00, 
1668.00, 
1669.00, 
1670.00, 
1671.00, 
1672.00, 
1673.00, 
1674.00, 
1675.00, 
1676.00, 
1677.00, 
1678.00, 
1679.00, 
1680.00, 
1681.00, 
1682.00, 
1683.00, 
1684.00, 
1685.00, 
1686.00, 
1687.00, 
1688.00, 
1689.00, 
1690.00, 
1691.00, 
1692.00, 
1693.00, 
1694.00, 
1695.00, 
1696.00, 
1697.00, 
1698.00, 
1699.00, 
1700.00, 
1701.00, 
1702.00, 
1703.00, 
1704.00, 
1705.00, 
1706.00, 
1707.00, 
1708.00, 
1709.00, 
1710.00, 
1711.00, 
1712.00, 
1713.00, 
1714.00, 
1715.00, 
1716.00, 
1717.00, 
1718.00, 
1719.00, 
1720.00, 
1721.00, 
1722.00, 
1723.00, 
1724.00, 
1725.00, 
1726.00, 
1727.00, 
1728.00, 
1729.00, 
1730.00, 
1731.00, 
1732.00, 
1733.00, 
1734.00, 
1735.00, 
1736.00, 
1737.00, 
1738.00, 
1739.00, 
1740.00, 
1741.00, 
1742.00, 
1743.00, 
1744.00, 
1745.00, 
1746.00, 
1747.00, 
1748.00, 
1749.00, 
1750.00, 
1751.00, 
1752.00, 
1753.00, 
1754.00, 
1755.00, 
1756.00, 
1757.00, 
1758.00, 
1759.00, 
1760.00, 
1761.00, 
1762.00, 
1763.00, 
1764.00, 
1765.00, 
1766.00, 
1767.00, 
1768.00, 
1769.00, 
1770.00, 
1771.00, 
1772.00, 
1773.00, 
1774.00, 
1775.00, 
1776.00, 
1777.00, 
1778.00, 
1779.00, 
1780.00, 
1781.00, 
1782.00, 
1783.00, 
1784.00, 
1785.00, 
1786.00, 
1787.00, 
1788.00, 
1789.00, 
1790.00, 
1791.00, 
1792.00, 
1793.00, 
1794.00, 
1795.00, 
1796.00, 
1797.00, 
1798.00, 
1799.00, 
1800.00, 
1801.00, 
1802.00, 
1803.00, 
1804.00, 
1805.00, 
1806.00, 
1807.00, 
1808.00, 
1809.00, 
1810.00, 
1811.00, 
1812.00, 
1813.00, 
1814.00, 
1815.00, 
1816.00, 
1817.00, 
1818.00, 
1819.00, 
1820.00, 
1821.00, 
1822.00, 
1823.00, 
1824.00, 
1825.00, 
1826.00, 
1827.00, 
1828.00, 
1829.00, 
1830.00, 
1831.00, 
1832.00, 
1833.00, 
1834.00, 
1835.00, 
1836.00, 
1837.00, 
1838.00, 
1839.00, 
1840.00, 
1841.00, 
1842.00, 
1843.00, 
1844.00, 
1845.00, 
1846.00, 
1847.00, 
1848.00, 
1849.00, 
1850.00, 
1851.00, 
1852.00, 
1853.00, 
1854.00, 
1855.00, 
1856.00, 
1857.00, 
1858.00, 
1859.00, 
1860.00, 
1861.00, 
1862.00, 
1863.00, 
1864.00, 
1865.00, 
1866.00, 
1867.00, 
1868.00, 
1869.00, 
1870.00, 
1871.00, 
1872.00, 
1873.00, 
1874.00, 
1875.00, 
1876.00, 
1877.00, 
1878.00, 
1879.00, 
1880.00, 
1881.00, 
1882.00, 
1883.00, 
1884.00, 
1885.00, 
1886.00, 
1887.00, 
1888.00, 
1889.00, 
1890.00, 
1891.00, 
1892.00, 
1893.00, 
1894.00, 
1895.00, 
1896.00, 
1897.00, 
1898.00, 
1899.00, 
1900.00, 
1901.00, 
1902.00, 
1903.00, 
1904.00, 
1905.00, 
1906.00, 
1907.00, 
1908.00, 
1909.00, 
1910.00, 
1911.00, 
1912.00, 
1913.00, 
1914.00, 
1915.00, 
1916.00, 
1917.00, 
1918.00, 
1919.00, 
1920.00, 
1921.00, 
1922.00, 
1923.00, 
1924.00, 
1925.00, 
1926.00, 
1927.00, 
1928.00, 
1929.00, 
1930.00, 
1931.00, 
1932.00, 
1933.00, 
1934.00, 
1935.00, 
1936.00, 
1937.00, 
1938.00, 
1939.00, 
1940.00, 
1941.00, 
1942.00, 
1943.00, 
1944.00, 
1945.00, 
1946.00, 
1947.00, 
1948.00, 
1949.00, 
1950.00, 
1951.00, 
1952.00, 
1953.00, 
1954.00, 
1955.00, 
1956.00, 
1957.00, 
1958.00, 
1959.00, 
1960.00, 
1961.00, 
1962.00, 
1963.00, 
1964.00, 
1965.00, 
1966.00, 
1967.00, 
1968.00, 
1969.00, 
1970.00, 
1971.00, 
1972.00, 
1973.00, 
1974.00, 
1975.00, 
1976.00, 
1977.00, 
1978.00, 
1979.00, 
1980.00, 
1981.00, 
1982.00, 
1983.00, 
1984.00, 
1985.00, 
1986.00, 
1987.00, 
1988.00, 
1989.00, 
1990.00, 
1991.00, 
1992.00, 
1993.00, 
1994.00, 
1995.00, 
1996.00, 
1997.00, 
1998.00, 
1999.00, 
2000.00, 
2001.00, 
2002.00, 
2003.00, 
2004.00, 
2005.00, 
2006.00, 
2007.00, 
2008.00, 
2009.00, 
2010.00, 
2011.00, 
2012.00, 
2013.00, 
2014.00, 
2015.00, 
2016.00, 
2017.00, 
2018.00, 
2019.00, 
2020.00, 
2021.00, 
2022.00, 
2023.00, 
2024.00, 
2025.00, 
2026.00, 
2027.00, 
2028.00, 
2029.00, 
2030.00, 
2031.00, 
2032.00, 
2033.00, 
2034.00, 
2035.00, 
2036.00, 
2037.00, 
2038.00, 
2039.00, 
2040.00, 
2041.00, 
2042.00, 
2043.00, 
2044.00, 
2045.00, 
2046.00, 
2047.00, 
2048.00, 
2049.00, 
2050.00, 
2051.00, 
2052.00, 
2053.00, 
2054.00, 
2055.00, 
2056.00, 
2057.00, 
2058.00, 
2059.00, 
2060.00, 
2061.00, 
2062.00, 
2063.00, 
2064.00, 
2065.00, 
2066.00, 
2067.00, 
2068.00, 
2069.00, 
2070.00, 
2071.00, 
2072.00, 
2073.00, 
2074.00, 
2075.00, 
2076.00, 
2077.00, 
2078.00, 
2079.00, 
2080.00, 
2081.00, 
2082.00, 
2083.00, 
2084.00, 
2085.00, 
2086.00, 
2087.00, 
2088.00, 
2089.00, 
2090.00, 
2091.00, 
2092.00, 
2093.00, 
2094.00, 
2095.00, 
2096.00, 
2097.00, 
2098.00, 
2099.00, 
2100.00, 
2101.00, 
2102.00, 
2103.00, 
2104.00, 
2105.00, 
2106.00, 
2107.00, 
2108.00, 
2109.00, 
2110.00, 
2111.00, 
2112.00, 
2113.00, 
2114.00, 
2115.00, 
2116.00, 
2117.00, 
2118.00, 
2119.00, 
2120.00, 
2121.00, 
2122.00, 
2123.00, 
2124.00, 
2125.00, 
2126.00, 
2127.00, 
2128.00, 
2129.00, 
2130.00, 
2131.00, 
2132.00, 
2133.00, 
2134.00, 
2135.00, 
2136.00, 
2137.00, 
2138.00, 
2139.00, 
2140.00, 
2141.00, 
2142.00, 
2143.00, 
2144.00, 
2145.00, 
2146.00, 
2147.00, 
2148.00, 
2149.00, 
2150.00, 
2151.00, 
2152.00, 
2153.00, 
2154.00, 
2155.00, 
2156.00, 
2157.00, 
2158.00, 
2159.00, 
2160.00, 
2161.00, 
2162.00, 
2163.00, 
2164.00, 
2165.00, 
2166.00, 
2167.00, 
2168.00, 
2169.00, 
2170.00, 
2171.00, 
2172.00, 
2173.00, 
2174.00, 
2175.00, 
2176.00, 
2177.00, 
2178.00, 
2179.00, 
2180.00, 
2181.00, 
2182.00, 
2183.00, 
2184.00, 
2185.00, 
2186.00, 
2187.00, 
2188.00, 
2189.00, 
2190.00, 
2191.00, 
2192.00, 
2193.00, 
2194.00, 
2195.00, 
2196.00, 
2197.00, 
2198.00, 
2199.00, 
2200.00, 
2201.00, 
2202.00, 
2203.00, 
2204.00, 
2205.00, 
2206.00, 
2207.00, 
2208.00, 
2209.00, 
2210.00, 
2211.00, 
2212.00, 
2213.00, 
2214.00, 
2215.00, 
2216.00, 
2217.00, 
2218.00, 
2219.00, 
2220.00, 
2221.00, 
2222.00, 
2223.00, 
2224.00, 
2225.00, 
2226.00, 
2227.00, 
2228.00, 
2229.00, 
2230.00, 
2231.00, 
2232.00, 
2233.00, 
2234.00, 
2235.00, 
2236.00, 
2237.00, 
2238.00, 
2239.00, 
2240.00, 
2241.00, 
2242.00, 
2243.00, 
2244.00, 
2245.00, 
2246.00, 
2247.00, 
2248.00, 
2249.00, 
2250.00, 
2251.00, 
2252.00, 
2253.00, 
2254.00, 
2255.00, 
2256.00, 
2257.00, 
2258.00, 
2259.00, 
2260.00, 
2261.00, 
2262.00, 
2263.00, 
2264.00, 
2265.00, 
2266.00, 
2267.00, 
2268.00, 
2269.00, 
2270.00, 
2271.00, 
2272.00, 
2273.00, 
2274.00, 
2275.00, 
2276.00, 
2277.00, 
2278.00, 
2279.00, 
2280.00, 
2281.00, 
2282.00, 
2283.00, 
2284.00, 
2285.00, 
2286.00, 
2287.00, 
2288.00, 
2289.00, 
2290.00, 
2291.00, 
2292.00, 
2293.00, 
2294.00, 
2295.00, 
2296.00, 
2297.00, 
2298.00, 
2299.00, 
2300.00, 
2301.00, 
2302.00, 
2303.00, 
2304.00, 
2305.00, 
2306.00, 
2307.00, 
2308.00, 
2309.00, 
2310.00, 
2311.00, 
2312.00, 
2313.00, 
2314.00, 
2315.00, 
2316.00, 
2317.00, 
2318.00, 
2319.00, 
2320.00, 
2321.00, 
2322.00, 
2323.00, 
2324.00, 
2325.00, 
2326.00, 
2327.00, 
2328.00, 
2329.00, 
2330.00, 
2331.00, 
2332.00, 
2333.00, 
2334.00, 
2335.00, 
2336.00, 
2337.00, 
2338.00, 
2339.00, 
2340.00, 
2341.00, 
2342.00, 
2343.00, 
2344.00, 
2345.00, 
2346.00, 
2347.00, 
2348.00, 
2349.00, 
2350.00, 
2351.00, 
2352.00, 
2353.00, 
2354.00, 
2355.00, 
2356.00, 
2357.00, 
2358.00, 
2359.00, 
2360.00, 
2361.00, 
2362.00, 
2363.00, 
2364.00, 
2365.00, 
2366.00, 
2367.00, 
2368.00, 
2369.00, 
2370.00, 
2371.00, 
2372.00, 
2373.00, 
2374.00, 
2375.00, 
2376.00, 
2377.00, 
2378.00, 
2379.00, 
2380.00, 
2381.00, 
2382.00, 
2383.00, 
2384.00, 
2385.00, 
2386.00, 
2387.00, 
2388.00, 
2389.00, 
2390.00, 
2391.00, 
2392.00, 
2393.00, 
2394.00, 
2395.00, 
2396.00, 
2397.00, 
2398.00, 
2399.00, 
2400.00, 
2401.00, 
2402.00, 
2403.00, 
2404.00, 
2405.00, 
2406.00, 
2407.00, 
2408.00, 
2409.00, 
2410.00, 
2411.00, 
2412.00, 
2413.00, 
2414.00, 
2415.00, 
2416.00, 
2417.00, 
2418.00, 
2419.00, 
2420.00, 
2421.00, 
2422.00, 
2423.00, 
2424.00, 
2425.00, 
2426.00, 
2427.00, 
2428.00, 
2429.00, 
2430.00, 
2431.00, 
2432.00, 
2433.00, 
2434.00, 
2435.00, 
2436.00, 
2437.00, 
2438.00, 
2439.00, 
2440.00, 
2441.00, 
2442.00, 
2443.00, 
2444.00, 
2445.00, 
2446.00, 
2447.00, 
2448.00, 
2449.00, 
2450.00, 
2451.00, 
2452.00, 
2453.00, 
2454.00, 
2455.00, 
2456.00, 
2457.00, 
2458.00, 
2459.00, 
2460.00, 
2461.00, 
2462.00, 
2463.00, 
2464.00, 
2465.00, 
2466.00, 
2467.00, 
2468.00, 
2469.00, 
2470.00, 
2471.00, 
2472.00, 
2473.00, 
2474.00, 
2475.00, 
2476.00, 
2477.00, 
2478.00, 
2479.00, 
2480.00, 
2481.00, 
2482.00, 
2483.00, 
2484.00, 
2485.00, 
2486.00, 
2487.00, 
2488.00, 
2489.00, 
2490.00, 
2491.00, 
2492.00, 
2493.00, 
2494.00, 
2495.00, 
2496.00, 
2497.00, 
2498.00, 
2499.00, 
2500.00, 
2501.00, 
2502.00, 
2503.00, 
2504.00, 
2505.00, 
2506.00, 
2507.00, 
2508.00, 
2509.00, 
2510.00, 
2511.00, 
2512.00, 
2513.00, 
2514.00, 
2515.00, 
2516.00, 
2517.00, 
2518.00, 
2519.00, 
2520.00, 
2521.00, 
2522.00, 
2523.00, 
2524.00, 
2525.00, 
2526.00, 
2527.00, 
2528.00, 
2529.00, 
2530.00, 
2531.00, 
2532.00, 
2533.00, 
2534.00, 
2535.00, 
2536.00, 
2537.00, 
2538.00, 
2539.00, 
2540.00, 
2541.00, 
2542.00, 
2543.00, 
2544.00, 
2545.00, 
2546.00, 
2547.00, 
2548.00, 
2549.00, 
2550.00, 
2551.00, 
2552.00, 
2553.00, 
2554.00, 
2555.00, 
2556.00, 
2557.00, 
2558.00, 
2559.00, 
2560.00, 
2561.00, 
2562.00, 
2563.00, 
2564.00, 
2565.00, 
2566.00, 
2567.00, 
2568.00, 
2569.00, 
2570.00, 
2571.00, 
2572.00, 
2573.00, 
2574.00, 
2575.00, 
2576.00, 
2577.00, 
2578.00, 
2579.00, 
2580.00, 
2581.00, 
2582.00, 
2583.00, 
2584.00, 
2585.00, 
2586.00, 
2587.00, 
2588.00, 
2589.00, 
2590.00, 
2591.00, 
2592.00, 
2593.00, 
2594.00, 
2595.00, 
2596.00, 
2597.00, 
2598.00, 
2599.00, 
2600.00, 
