"1cP3 - RawData"
"Wavelength nm.","T%"
200.00,-0.001
201.00,0.000
202.00,0.002
203.00,-0.000
204.00,0.001
205.00,-0.000
206.00,0.000
207.00,-0.001
208.00,0.004
209.00,0.002
210.00,0.002
211.00,0.000
212.00,-0.001
213.00,0.000
214.00,-0.000
215.00,0.002
216.00,-0.003
217.00,0.004
218.00,-0.002
219.00,0.001
220.00,0.001
221.00,0.000
222.00,-0.001
223.00,-0.001
224.00,-0.000
225.00,0.002
226.00,-0.002
227.00,0.002
228.00,0.000
229.00,0.001
230.00,-0.001
231.00,-0.000
232.00,-0.000
233.00,0.001
234.00,0.000
235.00,-0.000
236.00,0.000
237.00,0.001
238.00,-0.001
239.00,-0.001
240.00,-0.001
241.00,-0.001
242.00,0.001
243.00,0.001
244.00,0.000
245.00,0.002
246.00,-0.001
247.00,0.002
248.00,0.001
249.00,-0.003
250.00,-0.001
251.00,0.001
252.00,-0.002
253.00,-0.000
254.00,0.001
255.00,0.001
256.00,0.002
257.00,0.001
258.00,0.001
259.00,0.001
260.00,0.003
261.00,0.001
262.00,-0.000
263.00,0.001
264.00,-0.001
265.00,-0.002
266.00,0.000
267.00,0.000
268.00,-0.001
269.00,0.000
270.00,-0.002
271.00,-0.000
272.00,0.000
273.00,0.000
274.00,-0.001
275.00,0.000
276.00,-0.001
277.00,-0.000
278.00,0.000
279.00,0.001
280.00,0.003
281.00,-0.000
282.00,0.000
283.00,-0.001
284.00,0.002
285.00,0.001
286.00,0.002
287.00,-0.001
288.00,0.001
289.00,0.003
290.00,0.001
291.00,-0.000
292.00,0.002
293.00,-0.001
294.00,0.001
295.00,-0.001
296.00,0.000
297.00,0.000
298.00,-0.001
299.00,0.001
300.00,0.000
301.00,0.001
302.00,0.001
303.00,0.002
304.00,0.000
305.00,0.000
306.00,0.002
307.00,0.005
308.00,0.006
309.00,0.012
310.00,0.023
311.00,0.033
312.00,0.054
313.00,0.074
314.00,0.113
315.00,0.168
316.00,0.245
317.00,0.346
318.00,0.467
319.00,0.628
320.00,0.829
321.00,1.087
322.00,1.389
323.00,1.759
324.00,2.184
325.00,2.634
326.00,3.110
327.00,3.715
328.00,4.351
329.00,5.035
330.00,5.773
331.00,6.520
332.00,7.320
333.00,8.203
334.00,9.064
335.00,9.980
336.00,10.880
337.00,11.850
338.00,12.808
339.00,13.662
340.00,14.586
341.00,15.491
342.00,16.348
343.00,17.188
344.00,18.002
345.00,18.863
346.00,19.554
347.00,20.295
348.00,20.969
349.00,21.608
350.00,22.210
351.00,22.776
352.00,23.315
353.00,23.842
354.00,24.338
355.00,24.826
356.00,25.270
357.00,25.635
358.00,25.978
359.00,26.413
360.00,26.768
361.00,27.046
362.00,27.338
363.00,27.585
364.00,27.771
365.00,27.945
366.00,28.159
367.00,28.326
368.00,28.394
369.00,28.547
370.00,28.645
371.00,28.694
372.00,28.687
373.00,28.706
374.00,28.729
375.00,28.746
376.00,28.644
377.00,28.573
378.00,28.465
379.00,28.383
380.00,28.359
381.00,28.344
382.00,28.411
383.00,28.457
384.00,28.600
385.00,28.714
386.00,28.783
387.00,28.932
388.00,29.129
389.00,29.104
390.00,29.231
391.00,29.290
392.00,29.388
393.00,29.461
394.00,29.526
395.00,29.598
396.00,29.555
397.00,29.680
398.00,29.651
399.00,29.706
400.00,29.761
401.00,29.722
402.00,29.692
403.00,29.719
404.00,29.775
405.00,29.721
406.00,29.718
407.00,29.662
408.00,29.675
409.00,29.582
410.00,29.497
411.00,29.484
412.00,29.454
413.00,29.527
414.00,29.450
415.00,29.457
416.00,29.532
417.00,29.454
418.00,29.501
419.00,29.597
420.00,29.640
421.00,29.635
422.00,29.636
423.00,29.714
424.00,29.719
425.00,29.720
426.00,29.759
427.00,29.784
428.00,29.845
429.00,29.860
430.00,29.915
431.00,29.964
432.00,30.021
433.00,30.076
434.00,30.102
435.00,30.160
436.00,30.186
437.00,30.261
438.00,30.308
439.00,30.353
440.00,30.452
441.00,30.500
442.00,30.540
443.00,30.596
444.00,30.706
445.00,30.800
446.00,30.898
447.00,30.957
448.00,31.047
449.00,31.188
450.00,31.252
451.00,31.315
452.00,31.425
453.00,31.510
454.00,31.572
455.00,31.641
456.00,31.798
457.00,31.881
458.00,31.963
459.00,32.132
460.00,32.234
461.00,32.355
462.00,32.427
463.00,32.553
464.00,32.688
465.00,32.763
466.00,32.868
467.00,32.987
468.00,33.085
469.00,33.148
470.00,33.228
471.00,33.344
472.00,33.397
473.00,33.474
474.00,33.627
475.00,33.718
476.00,33.743
477.00,33.823
478.00,33.924
479.00,34.081
480.00,34.222
481.00,34.319
482.00,34.435
483.00,34.571
484.00,34.686
485.00,34.739
486.00,34.974
487.00,35.107
488.00,35.279
489.00,35.443
490.00,35.574
491.00,35.609
492.00,35.872
493.00,36.006
494.00,35.934
495.00,36.091
496.00,36.190
497.00,36.211
498.00,36.391
499.00,36.452
500.00,36.632
501.00,36.718
502.00,36.879
503.00,36.980
504.00,37.037
505.00,37.172
506.00,37.219
507.00,37.294
508.00,37.385
509.00,37.560
510.00,37.716
511.00,37.714
512.00,37.808
513.00,38.005
514.00,38.067
515.00,38.227
516.00,38.331
517.00,38.377
518.00,38.548
519.00,38.594
520.00,38.640
521.00,38.743
522.00,38.787
523.00,38.823
524.00,38.916
525.00,39.006
526.00,39.142
527.00,39.167
528.00,39.202
529.00,39.409
530.00,39.575
531.00,39.661
532.00,39.729
533.00,39.834
534.00,39.883
535.00,39.994
536.00,40.064
537.00,40.158
538.00,40.260
539.00,40.250
540.00,40.360
541.00,40.417
542.00,40.409
543.00,40.449
544.00,40.556
545.00,40.634
546.00,40.631
547.00,40.832
548.00,40.881
549.00,40.928
550.00,40.980
551.00,41.107
552.00,41.148
553.00,41.212
554.00,41.282
555.00,41.264
556.00,41.308
557.00,41.469
558.00,41.530
559.00,41.610
560.00,41.669
561.00,41.745
562.00,41.775
563.00,41.850
564.00,41.850
565.00,41.889
566.00,41.899
567.00,41.924
568.00,41.988
569.00,41.998
570.00,42.094
571.00,42.153
572.00,42.200
573.00,42.139
574.00,42.191
575.00,42.176
576.00,42.191
577.00,42.309
578.00,42.366
579.00,42.391
580.00,42.431
581.00,42.604
582.00,42.640
583.00,42.679
584.00,42.789
585.00,42.814
586.00,42.865
587.00,42.968
588.00,42.975
589.00,42.899
590.00,42.976
591.00,43.053
592.00,43.151
593.00,43.195
594.00,43.161
595.00,43.223
596.00,43.297
597.00,43.294
598.00,43.386
599.00,43.365
600.00,43.484
601.00,43.495
602.00,43.522
603.00,43.487
604.00,43.510
605.00,43.610
606.00,43.620
607.00,43.641
608.00,43.848
609.00,43.897
610.00,43.733
611.00,43.787
612.00,43.834
613.00,43.863
614.00,43.902
615.00,44.031
616.00,44.091
617.00,44.090
618.00,43.975
619.00,44.118
620.00,44.116
621.00,44.118
622.00,44.264
623.00,44.284
624.00,44.283
625.00,44.307
626.00,44.431
627.00,44.535
628.00,44.454
629.00,44.464
630.00,44.519
631.00,44.569
632.00,44.663
633.00,44.787
634.00,44.845
635.00,44.896
636.00,44.924
637.00,44.944
638.00,44.948
639.00,45.076
640.00,45.059
641.00,45.101
642.00,45.199
643.00,45.224
644.00,45.358
645.00,45.431
646.00,45.458
647.00,45.451
648.00,45.459
649.00,45.424
650.00,45.463
651.00,45.649
652.00,45.708
653.00,45.610
654.00,45.692
655.00,45.811
656.00,46.056
657.00,45.850
658.00,45.953
659.00,46.047
660.00,46.040
661.00,45.979
662.00,46.029
663.00,46.234
664.00,46.501
665.00,46.639
666.00,46.495
667.00,46.615
668.00,46.612
669.00,46.681
670.00,46.959
671.00,46.784
672.00,46.847
673.00,46.751
674.00,46.823
675.00,47.206
676.00,47.440
677.00,47.315
678.00,46.969
679.00,47.216
680.00,47.354
681.00,47.504
682.00,47.330
683.00,47.354
684.00,47.551
685.00,47.575
686.00,47.389
687.00,47.620
688.00,47.742
689.00,47.680
690.00,47.808
691.00,48.086
692.00,47.747
693.00,47.768
694.00,47.989
695.00,48.104
696.00,47.998
697.00,48.027
698.00,48.180
699.00,48.293
700.00,48.228
701.00,48.275
702.00,48.329
703.00,48.553
704.00,48.514
705.00,48.341
706.00,48.557
707.00,48.472
708.00,48.536
709.00,49.002
710.00,48.707
711.00,48.603
712.00,48.662
713.00,48.846
714.00,48.885
715.00,48.802
716.00,48.753
717.00,48.983
718.00,48.995
719.00,48.899
720.00,49.053
721.00,53.547
722.00,53.584
723.00,53.558
724.00,53.538
725.00,53.562
726.00,53.461
727.00,53.567
728.00,53.503
729.00,53.441
730.00,53.518
731.00,53.519
732.00,53.385
733.00,53.515
734.00,53.523
735.00,53.574
736.00,53.493
737.00,53.499
738.00,53.499
739.00,53.531
740.00,53.490
741.00,53.575
742.00,53.569
743.00,53.473
744.00,53.509
745.00,53.481
746.00,53.428
747.00,53.435
748.00,53.405
749.00,53.405
750.00,53.309
751.00,53.297
752.00,53.337
753.00,53.350
754.00,53.321
755.00,53.260
756.00,53.261
757.00,53.260
758.00,53.282
759.00,53.204
760.00,53.245
761.00,53.255
762.00,53.187
763.00,53.225
764.00,53.153
765.00,53.147
766.00,53.174
767.00,53.220
768.00,53.180
769.00,53.130
770.00,53.172
771.00,53.098
772.00,53.145
773.00,53.080
774.00,53.126
775.00,53.081
776.00,53.079
777.00,53.110
778.00,53.155
779.00,53.147
780.00,53.022
781.00,53.053
782.00,53.051
783.00,53.047
784.00,53.063
785.00,52.883
786.00,52.972
787.00,52.895
788.00,52.919
789.00,52.843
790.00,52.832
791.00,52.943
792.00,52.831
793.00,52.816
794.00,52.777
795.00,52.726
796.00,52.776
797.00,52.663
798.00,52.730
799.00,52.668
800.00,52.545
801.00,52.683
802.00,52.637
803.00,52.569
804.00,52.576
805.00,52.531
806.00,52.504
807.00,52.437
808.00,52.474
809.00,52.408
810.00,52.382
811.00,52.439
812.00,52.432
813.00,52.287
814.00,52.321
815.00,52.244
816.00,52.204
817.00,52.225
818.00,52.095
819.00,52.155
820.00,52.100
821.00,52.098
822.00,52.184
823.00,52.022
824.00,52.107
825.00,52.065
826.00,52.083
827.00,52.061
828.00,52.025
829.00,51.996
830.00,51.933
831.00,54.343
832.00,54.369
833.00,54.288
834.00,54.285
835.00,54.237
836.00,54.248
837.00,54.150
838.00,54.182
839.00,54.144
840.00,54.064
841.00,54.118
842.00,54.063
843.00,54.092
844.00,54.028
845.00,53.999
846.00,54.006
847.00,53.953
848.00,53.929
849.00,53.852
850.00,53.817
851.00,53.775
852.00,53.780
853.00,53.759
854.00,53.689
855.00,53.652
856.00,53.686
857.00,53.606
858.00,53.546
859.00,53.556
860.00,53.566
861.00,53.524
862.00,53.468
863.00,53.471
864.00,53.466
865.00,53.444
866.00,53.428
867.00,53.447
868.00,53.408
869.00,53.385
870.00,53.377
871.00,53.378
872.00,53.390
873.00,53.294
874.00,53.350
875.00,53.263
876.00,53.303
877.00,53.259
878.00,53.288
879.00,53.204
880.00,53.282
881.00,53.206
882.00,53.227
883.00,53.178
884.00,53.116
885.00,53.149
886.00,53.109
887.00,53.069
888.00,53.072
889.00,52.995
890.00,53.017
891.00,52.974
892.00,52.935
893.00,52.924
894.00,52.938
895.00,52.893
896.00,52.862
897.00,52.844
898.00,52.821
899.00,52.835
900.00,52.791
901.00,52.780
902.00,52.804
903.00,52.779
904.00,52.736
905.00,52.741
906.00,52.728
907.00,52.665
908.00,52.626
909.00,52.607
910.00,52.587
911.00,52.591
912.00,52.572
913.00,52.546
914.00,52.542
915.00,52.502
916.00,52.467
917.00,52.479
918.00,52.459
919.00,52.407
920.00,52.387
921.00,52.364
922.00,52.370
923.00,52.326
924.00,52.303
925.00,52.321
926.00,52.294
927.00,52.262
928.00,52.234
929.00,52.240
930.00,52.208
931.00,52.200
932.00,52.157
933.00,52.167
934.00,52.083
935.00,52.052
936.00,52.079
937.00,52.051
938.00,52.051
939.00,52.038
940.00,51.991
941.00,51.994
942.00,51.972
943.00,51.955
944.00,51.919
945.00,51.917
946.00,51.901
947.00,51.868
948.00,51.844
949.00,51.778
950.00,51.810
951.00,51.764
952.00,51.740
953.00,51.722
954.00,51.702
955.00,51.653
956.00,51.636
957.00,51.597
958.00,51.613
959.00,51.561
960.00,51.545
961.00,51.563
962.00,51.540
963.00,51.475
964.00,51.492
965.00,51.488
966.00,51.470
967.00,51.464
968.00,51.437
969.00,51.470
970.00,51.432
971.00,51.434
972.00,51.406
973.00,51.439
974.00,51.447
975.00,51.433
976.00,51.452
977.00,51.435
978.00,51.473
979.00,51.418
980.00,51.431
981.00,51.437
982.00,51.384
983.00,51.421
984.00,51.378
985.00,51.396
986.00,51.394
987.00,51.392
988.00,51.345
989.00,51.337
990.00,51.325
991.00,51.332
992.00,51.336
993.00,51.286
994.00,51.296
995.00,51.274
996.00,51.254
997.00,51.230
998.00,51.211
999.00,51.231
1000.00,51.176
1001.00,51.173
1002.00,51.173
1003.00,51.177
1004.00,51.136
1005.00,51.108
1006.00,51.153
1007.00,51.107
1008.00,51.098
1009.00,51.076
1010.00,51.066
1011.00,51.080
1012.00,51.021
1013.00,51.035
1014.00,50.984
1015.00,50.993
1016.00,50.978
1017.00,50.972
1018.00,50.966
1019.00,50.931
1020.00,50.929
1021.00,50.907
1022.00,50.908
1023.00,50.845
1024.00,50.856
1025.00,50.840
1026.00,50.816
1027.00,50.816
1028.00,50.807
1029.00,50.785
1030.00,50.758
1031.00,50.769
1032.00,50.771
1033.00,50.732
1034.00,50.693
1035.00,50.673
1036.00,50.655
1037.00,50.622
1038.00,50.611
1039.00,50.575
1040.00,50.567
1041.00,50.544
1042.00,50.552
1043.00,50.531
1044.00,50.571
1045.00,50.530
1046.00,50.551
1047.00,50.576
1048.00,50.541
1049.00,50.566
1050.00,50.560
1051.00,50.611
1052.00,50.591
1053.00,50.594
1054.00,50.595
1055.00,50.632
1056.00,50.645
1057.00,50.643
1058.00,50.624
1059.00,50.611
1060.00,50.637
1061.00,50.595
1062.00,50.591
1063.00,50.594
1064.00,50.585
1065.00,50.580
1066.00,50.581
1067.00,50.571
1068.00,50.595
1069.00,50.542
1070.00,50.515
1071.00,50.525
1072.00,50.545
1073.00,50.507
1074.00,50.520
1075.00,50.514
1076.00,50.524
1077.00,50.505
1078.00,50.466
1079.00,50.489
1080.00,50.475
1081.00,50.444
1082.00,50.437
1083.00,50.447
1084.00,50.431
1085.00,50.442
1086.00,50.415
1087.00,50.430
1088.00,50.410
1089.00,50.393
1090.00,50.403
1091.00,50.411
1092.00,50.397
1093.00,50.417
1094.00,50.359
1095.00,50.349
1096.00,50.333
1097.00,50.326
1098.00,50.324
1099.00,50.314
1100.00,50.290
1101.00,50.289
1102.00,50.281
1103.00,50.270
1104.00,50.270
1105.00,50.270
1106.00,50.247
1107.00,50.250
1108.00,50.233
1109.00,50.234
1110.00,50.230
1111.00,50.205
1112.00,50.203
1113.00,50.205
1114.00,50.181
1115.00,50.204
1116.00,50.184
1117.00,50.161
1118.00,50.149
1119.00,50.144
1120.00,50.138
1121.00,50.148
1122.00,50.124
1123.00,50.138
1124.00,50.140
1125.00,50.112
1126.00,50.121
1127.00,50.119
1128.00,50.086
1129.00,50.082
1130.00,50.066
1131.00,50.076
1132.00,50.057
1133.00,50.064
1134.00,50.059
1135.00,50.055
1136.00,50.034
1137.00,50.057
1138.00,50.050
1139.00,50.038
1140.00,50.032
1141.00,50.016
1142.00,50.015
1143.00,50.038
1144.00,50.000
1145.00,50.012
1146.00,50.002
1147.00,49.980
1148.00,49.988
1149.00,49.994
1150.00,49.991
1151.00,49.984
1152.00,49.975
1153.00,49.988
1154.00,49.988
1155.00,49.951
1156.00,49.976
1157.00,49.988
1158.00,49.967
1159.00,49.981
1160.00,49.974
1161.00,49.976
1162.00,49.982
1163.00,49.980
1164.00,49.993
1165.00,49.983
1166.00,49.974
1167.00,49.973
1168.00,49.995
1169.00,49.964
1170.00,49.979
1171.00,49.953
1172.00,49.949
1173.00,49.960
1174.00,49.966
1175.00,49.972
1176.00,49.965
1177.00,49.937
1178.00,49.961
1179.00,49.964
1180.00,49.935
1181.00,49.967
1182.00,49.958
1183.00,49.941
1184.00,49.943
1185.00,49.955
1186.00,49.943
1187.00,49.959
1188.00,49.943
1189.00,49.958
1190.00,49.944
1191.00,49.928
1192.00,49.970
1193.00,49.943
1194.00,49.954
1195.00,49.938
1196.00,49.959
1197.00,49.967
1198.00,49.958
1199.00,49.961
1200.00,49.977
1201.00,49.956
1202.00,49.915
1203.00,49.935
1204.00,49.928
1205.00,49.945
1206.00,49.937
1207.00,49.936
1208.00,49.950
1209.00,49.954
1210.00,49.938
1211.00,49.942
1212.00,49.961
1213.00,49.910
1214.00,49.954
1215.00,49.944
1216.00,49.920
1217.00,49.933
1218.00,49.944
1219.00,49.956
1220.00,49.937
1221.00,49.941
1222.00,49.955
1223.00,49.972
1224.00,49.956
1225.00,49.963
1226.00,49.960
1227.00,49.952
1228.00,49.994
1229.00,49.999
1230.00,49.989
1231.00,49.980
1232.00,50.005
1233.00,50.017
1234.00,50.012
1235.00,50.010
1236.00,50.025
1237.00,50.017
1238.00,50.005
1239.00,50.015
1240.00,49.993
1241.00,50.034
1242.00,50.041
1243.00,50.040
1244.00,50.021
1245.00,50.056
1246.00,50.050
1247.00,50.048
1248.00,50.051
1249.00,50.050
1250.00,50.067
1251.00,50.055
1252.00,50.083
1253.00,50.071
1254.00,50.085
1255.00,50.087
1256.00,50.067
1257.00,50.039
1258.00,50.098
1259.00,50.097
1260.00,50.132
1261.00,50.138
1262.00,50.108
1263.00,50.120
1264.00,50.123
1265.00,50.118
1266.00,50.138
1267.00,50.156
1268.00,50.130
1269.00,50.164
1270.00,50.167
1271.00,50.152
1272.00,50.166
1273.00,50.176
1274.00,50.185
1275.00,50.208
1276.00,50.196
1277.00,50.207
1278.00,50.219
1279.00,50.209
1280.00,50.212
1281.00,50.227
1282.00,50.228
1283.00,50.233
1284.00,50.237
1285.00,50.235
1286.00,50.256
1287.00,50.245
1288.00,50.257
1289.00,50.245
1290.00,50.277
1291.00,50.283
1292.00,50.287
1293.00,50.283
1294.00,50.308
1295.00,50.318
1296.00,50.312
1297.00,50.321
1298.00,50.333
1299.00,50.335
1300.00,50.377
1301.00,50.323
1302.00,50.371
1303.00,50.353
1304.00,50.358
1305.00,50.381
1306.00,50.392
1307.00,50.404
1308.00,50.407
1309.00,50.412
1310.00,50.418
1311.00,50.409
1312.00,50.408
1313.00,50.437
1314.00,50.454
1315.00,50.448
1316.00,50.450
1317.00,50.484
1318.00,50.489
1319.00,50.499
1320.00,50.481
1321.00,50.685
1322.00,50.658
1323.00,50.642
1324.00,50.638
1325.00,50.634
1326.00,50.665
1327.00,50.633
1328.00,50.655
1329.00,50.655
1330.00,50.683
1331.00,50.661
1332.00,50.682
1333.00,50.680
1334.00,50.724
1335.00,50.734
1336.00,50.750
1337.00,50.778
1338.00,50.842
1339.00,50.871
1340.00,50.936
1341.00,51.008
1342.00,51.064
1343.00,51.106
1344.00,51.155
1345.00,51.235
1346.00,51.260
1347.00,51.270
1348.00,51.299
1349.00,51.332
1350.00,51.345
1351.00,51.363
1352.00,51.378
1353.00,51.374
1354.00,51.414
1355.00,51.402
1356.00,51.413
1357.00,51.452
1358.00,51.444
1359.00,51.444
1360.00,51.511
1361.00,51.476
1362.00,51.332
1363.00,51.487
1364.00,51.526
1365.00,51.445
1366.00,51.549
1367.00,51.459
1368.00,51.395
1369.00,51.491
1370.00,51.418
1371.00,51.738
1372.00,51.420
1373.00,51.469
1374.00,51.488
1375.00,51.450
1376.00,51.449
1377.00,51.433
1378.00,51.468
1379.00,51.506
1380.00,51.481
1381.00,51.513
1382.00,51.374
1383.00,51.457
1384.00,51.374
1385.00,51.436
1386.00,51.489
1387.00,51.435
1388.00,51.424
1389.00,51.432
1390.00,51.446
1391.00,51.418
1392.00,51.433
1393.00,51.490
1394.00,51.483
1395.00,51.403
1396.00,51.389
1397.00,51.437
1398.00,51.505
1399.00,51.493
1400.00,51.386
1401.00,51.460
1402.00,51.239
1403.00,51.504
1404.00,51.490
1405.00,51.520
1406.00,51.550
1407.00,51.532
1408.00,51.525
1409.00,51.533
1410.00,51.564
1411.00,51.543
1412.00,51.591
1413.00,51.545
1414.00,51.581
1415.00,51.601
1416.00,51.612
1417.00,51.632
1418.00,51.645
1419.00,51.661
1420.00,51.669
1421.00,51.697
1422.00,51.693
1423.00,51.734
1424.00,51.725
1425.00,51.746
1426.00,51.756
1427.00,51.785
1428.00,51.789
1429.00,51.828
1430.00,51.809
1431.00,51.846
1432.00,51.861
1433.00,51.864
1434.00,51.875
1435.00,51.920
1436.00,51.944
1437.00,51.937
1438.00,51.949
1439.00,51.991
1440.00,51.987
1441.00,51.997
1442.00,52.024
1443.00,52.059
1444.00,52.105
1445.00,52.052
1446.00,52.098
1447.00,52.133
1448.00,52.192
1449.00,52.167
1450.00,52.176
1451.00,52.191
1452.00,52.201
1453.00,52.226
1454.00,52.243
1455.00,52.256
1456.00,52.271
1457.00,52.274
1458.00,52.351
1459.00,52.337
1460.00,52.367
1461.00,52.353
1462.00,52.389
1463.00,52.422
1464.00,52.417
1465.00,52.433
1466.00,52.413
1467.00,52.449
1468.00,52.494
1469.00,52.471
1470.00,52.500
1471.00,52.512
1472.00,52.532
1473.00,52.547
1474.00,52.595
1475.00,52.608
1476.00,52.612
1477.00,52.590
1478.00,52.652
1479.00,52.658
1480.00,52.662
1481.00,52.687
1482.00,52.710
1483.00,52.735
1484.00,52.749
1485.00,52.732
1486.00,52.757
1487.00,52.785
1488.00,52.819
1489.00,52.817
1490.00,52.834
1491.00,52.843
1492.00,52.875
1493.00,52.856
1494.00,52.895
1495.00,52.891
1496.00,52.917
1497.00,52.899
1498.00,52.915
1499.00,52.918
1500.00,52.952
1501.00, 
1502.00, 
1503.00, 
1504.00, 
1505.00, 
1506.00, 
1507.00, 
1508.00, 
1509.00, 
1510.00, 
1511.00, 
1512.00, 
1513.00, 
1514.00, 
1515.00, 
1516.00, 
1517.00, 
1518.00, 
1519.00, 
1520.00, 
1521.00, 
1522.00, 
1523.00, 
1524.00, 
1525.00, 
1526.00, 
1527.00, 
1528.00, 
1529.00, 
1530.00, 
1531.00, 
1532.00, 
1533.00, 
1534.00, 
1535.00, 
1536.00, 
1537.00, 
1538.00, 
1539.00, 
1540.00, 
1541.00, 
1542.00, 
1543.00, 
1544.00, 
1545.00, 
1546.00, 
1547.00, 
1548.00, 
1549.00, 
1550.00, 
1551.00, 
1552.00, 
1553.00, 
1554.00, 
1555.00, 
1556.00, 
1557.00, 
1558.00, 
1559.00, 
1560.00, 
1561.00, 
1562.00, 
1563.00, 
1564.00, 
1565.00, 
1566.00, 
1567.00, 
1568.00, 
1569.00, 
1570.00, 
1571.00, 
1572.00, 
1573.00, 
1574.00, 
1575.00, 
1576.00, 
1577.00, 
1578.00, 
1579.00, 
1580.00, 
1581.00, 
1582.00, 
1583.00, 
1584.00, 
1585.00, 
1586.00, 
1587.00, 
1588.00, 
1589.00, 
1590.00, 
1591.00, 
1592.00, 
1593.00, 
1594.00, 
1595.00, 
1596.00, 
1597.00, 
1598.00, 
1599.00, 
1600.00, 
1601.00, 
1602.00, 
1603.00, 
1604.00, 
1605.00, 
1606.00, 
1607.00, 
1608.00, 
1609.00, 
1610.00, 
1611.00, 
1612.00, 
1613.00, 
1614.00, 
1615.00, 
1616.00, 
1617.00, 
1618.00, 
1619.00, 
1620.00, 
1621.00, 
1622.00, 
1623.00, 
1624.00, 
1625.00, 
1626.00, 
1627.00, 
1628.00, 
1629.00, 
1630.00, 
1631.00, 
1632.00, 
1633.00, 
1634.00, 
1635.00, 
1636.00, 
1637.00, 
1638.00, 
1639.00, 
1640.00, 
1641.00, 
1642.00, 
1643.00, 
1644.00, 
1645.00, 
1646.00, 
1647.00, 
1648.00, 
1649.00, 
1650.00, 
1651.00, 
1652.00, 
1653.00, 
1654.00, 
1655.00, 
1656.00, 
1657.00, 
1658.00, 
1659.00, 
1660.00, 
1661.00, 
1662.00, 
1663.00, 
1664.00, 
1665.00, 
1666.00, 
1667.00, 
1668.00, 
1669.00, 
1670.00, 
1671.00, 
1672.00, 
1673.00, 
1674.00, 
1675.00, 
1676.00, 
1677.00, 
1678.00, 
1679.00, 
1680.00, 
1681.00, 
1682.00, 
1683.00, 
1684.00, 
1685.00, 
1686.00, 
1687.00, 
1688.00, 
1689.00, 
1690.00, 
1691.00, 
1692.00, 
1693.00, 
1694.00, 
1695.00, 
1696.00, 
1697.00, 
1698.00, 
1699.00, 
1700.00, 
1701.00, 
1702.00, 
1703.00, 
1704.00, 
1705.00, 
1706.00, 
1707.00, 
1708.00, 
1709.00, 
1710.00, 
1711.00, 
1712.00, 
1713.00, 
1714.00, 
1715.00, 
1716.00, 
1717.00, 
1718.00, 
1719.00, 
1720.00, 
1721.00, 
1722.00, 
1723.00, 
1724.00, 
1725.00, 
1726.00, 
1727.00, 
1728.00, 
1729.00, 
1730.00, 
1731.00, 
1732.00, 
1733.00, 
1734.00, 
1735.00, 
1736.00, 
1737.00, 
1738.00, 
1739.00, 
1740.00, 
1741.00, 
1742.00, 
1743.00, 
1744.00, 
1745.00, 
1746.00, 
1747.00, 
1748.00, 
1749.00, 
1750.00, 
1751.00, 
1752.00, 
1753.00, 
1754.00, 
1755.00, 
1756.00, 
1757.00, 
1758.00, 
1759.00, 
1760.00, 
1761.00, 
1762.00, 
1763.00, 
1764.00, 
1765.00, 
1766.00, 
1767.00, 
1768.00, 
1769.00, 
1770.00, 
1771.00, 
1772.00, 
1773.00, 
1774.00, 
1775.00, 
1776.00, 
1777.00, 
1778.00, 
1779.00, 
1780.00, 
1781.00, 
1782.00, 
1783.00, 
1784.00, 
1785.00, 
1786.00, 
1787.00, 
1788.00, 
1789.00, 
1790.00, 
1791.00, 
1792.00, 
1793.00, 
1794.00, 
1795.00, 
1796.00, 
1797.00, 
1798.00, 
1799.00, 
1800.00, 
1801.00, 
1802.00, 
1803.00, 
1804.00, 
1805.00, 
1806.00, 
1807.00, 
1808.00, 
1809.00, 
1810.00, 
1811.00, 
1812.00, 
1813.00, 
1814.00, 
1815.00, 
1816.00, 
1817.00, 
1818.00, 
1819.00, 
1820.00, 
1821.00, 
1822.00, 
1823.00, 
1824.00, 
1825.00, 
1826.00, 
1827.00, 
1828.00, 
1829.00, 
1830.00, 
1831.00, 
1832.00, 
1833.00, 
1834.00, 
1835.00, 
1836.00, 
1837.00, 
1838.00, 
1839.00, 
1840.00, 
1841.00, 
1842.00, 
1843.00, 
1844.00, 
1845.00, 
1846.00, 
1847.00, 
1848.00, 
1849.00, 
1850.00, 
1851.00, 
1852.00, 
1853.00, 
1854.00, 
1855.00, 
1856.00, 
1857.00, 
1858.00, 
1859.00, 
1860.00, 
1861.00, 
1862.00, 
1863.00, 
1864.00, 
1865.00, 
1866.00, 
1867.00, 
1868.00, 
1869.00, 
1870.00, 
1871.00, 
1872.00, 
1873.00, 
1874.00, 
1875.00, 
1876.00, 
1877.00, 
1878.00, 
1879.00, 
1880.00, 
1881.00, 
1882.00, 
1883.00, 
1884.00, 
1885.00, 
1886.00, 
1887.00, 
1888.00, 
1889.00, 
1890.00, 
1891.00, 
1892.00, 
1893.00, 
1894.00, 
1895.00, 
1896.00, 
1897.00, 
1898.00, 
1899.00, 
1900.00, 
1901.00, 
1902.00, 
1903.00, 
1904.00, 
1905.00, 
1906.00, 
1907.00, 
1908.00, 
1909.00, 
1910.00, 
1911.00, 
1912.00, 
1913.00, 
1914.00, 
1915.00, 
1916.00, 
1917.00, 
1918.00, 
1919.00, 
1920.00, 
1921.00, 
1922.00, 
1923.00, 
1924.00, 
1925.00, 
1926.00, 
1927.00, 
1928.00, 
1929.00, 
1930.00, 
1931.00, 
1932.00, 
1933.00, 
1934.00, 
1935.00, 
1936.00, 
1937.00, 
1938.00, 
1939.00, 
1940.00, 
1941.00, 
1942.00, 
1943.00, 
1944.00, 
1945.00, 
1946.00, 
1947.00, 
1948.00, 
1949.00, 
1950.00, 
1951.00, 
1952.00, 
1953.00, 
1954.00, 
1955.00, 
1956.00, 
1957.00, 
1958.00, 
1959.00, 
1960.00, 
1961.00, 
1962.00, 
1963.00, 
1964.00, 
1965.00, 
1966.00, 
1967.00, 
1968.00, 
1969.00, 
1970.00, 
1971.00, 
1972.00, 
1973.00, 
1974.00, 
1975.00, 
1976.00, 
1977.00, 
1978.00, 
1979.00, 
1980.00, 
1981.00, 
1982.00, 
1983.00, 
1984.00, 
1985.00, 
1986.00, 
1987.00, 
1988.00, 
1989.00, 
1990.00, 
1991.00, 
1992.00, 
1993.00, 
1994.00, 
1995.00, 
1996.00, 
1997.00, 
1998.00, 
1999.00, 
2000.00, 
2001.00, 
2002.00, 
2003.00, 
2004.00, 
2005.00, 
2006.00, 
2007.00, 
2008.00, 
2009.00, 
2010.00, 
2011.00, 
2012.00, 
2013.00, 
2014.00, 
2015.00, 
2016.00, 
2017.00, 
2018.00, 
2019.00, 
2020.00, 
2021.00, 
2022.00, 
2023.00, 
2024.00, 
2025.00, 
2026.00, 
2027.00, 
2028.00, 
2029.00, 
2030.00, 
2031.00, 
2032.00, 
2033.00, 
2034.00, 
2035.00, 
2036.00, 
2037.00, 
2038.00, 
2039.00, 
2040.00, 
2041.00, 
2042.00, 
2043.00, 
2044.00, 
2045.00, 
2046.00, 
2047.00, 
2048.00, 
2049.00, 
2050.00, 
2051.00, 
2052.00, 
2053.00, 
2054.00, 
2055.00, 
2056.00, 
2057.00, 
2058.00, 
2059.00, 
2060.00, 
2061.00, 
2062.00, 
2063.00, 
2064.00, 
2065.00, 
2066.00, 
2067.00, 
2068.00, 
2069.00, 
2070.00, 
2071.00, 
2072.00, 
2073.00, 
2074.00, 
2075.00, 
2076.00, 
2077.00, 
2078.00, 
2079.00, 
2080.00, 
2081.00, 
2082.00, 
2083.00, 
2084.00, 
2085.00, 
2086.00, 
2087.00, 
2088.00, 
2089.00, 
2090.00, 
2091.00, 
2092.00, 
2093.00, 
2094.00, 
2095.00, 
2096.00, 
2097.00, 
2098.00, 
2099.00, 
2100.00, 
2101.00, 
2102.00, 
2103.00, 
2104.00, 
2105.00, 
2106.00, 
2107.00, 
2108.00, 
2109.00, 
2110.00, 
2111.00, 
2112.00, 
2113.00, 
2114.00, 
2115.00, 
2116.00, 
2117.00, 
2118.00, 
2119.00, 
2120.00, 
2121.00, 
2122.00, 
2123.00, 
2124.00, 
2125.00, 
2126.00, 
2127.00, 
2128.00, 
2129.00, 
2130.00, 
2131.00, 
2132.00, 
2133.00, 
2134.00, 
2135.00, 
2136.00, 
2137.00, 
2138.00, 
2139.00, 
2140.00, 
2141.00, 
2142.00, 
2143.00, 
2144.00, 
2145.00, 
2146.00, 
2147.00, 
2148.00, 
2149.00, 
2150.00, 
2151.00, 
2152.00, 
2153.00, 
2154.00, 
2155.00, 
2156.00, 
2157.00, 
2158.00, 
2159.00, 
2160.00, 
2161.00, 
2162.00, 
2163.00, 
2164.00, 
2165.00, 
2166.00, 
2167.00, 
2168.00, 
2169.00, 
2170.00, 
2171.00, 
2172.00, 
2173.00, 
2174.00, 
2175.00, 
2176.00, 
2177.00, 
2178.00, 
2179.00, 
2180.00, 
2181.00, 
2182.00, 
2183.00, 
2184.00, 
2185.00, 
2186.00, 
2187.00, 
2188.00, 
2189.00, 
2190.00, 
2191.00, 
2192.00, 
2193.00, 
2194.00, 
2195.00, 
2196.00, 
2197.00, 
2198.00, 
2199.00, 
2200.00, 
2201.00, 
2202.00, 
2203.00, 
2204.00, 
2205.00, 
2206.00, 
2207.00, 
2208.00, 
2209.00, 
2210.00, 
2211.00, 
2212.00, 
2213.00, 
2214.00, 
2215.00, 
2216.00, 
2217.00, 
2218.00, 
2219.00, 
2220.00, 
2221.00, 
2222.00, 
2223.00, 
2224.00, 
2225.00, 
2226.00, 
2227.00, 
2228.00, 
2229.00, 
2230.00, 
2231.00, 
2232.00, 
2233.00, 
2234.00, 
2235.00, 
2236.00, 
2237.00, 
2238.00, 
2239.00, 
2240.00, 
2241.00, 
2242.00, 
2243.00, 
2244.00, 
2245.00, 
2246.00, 
2247.00, 
2248.00, 
2249.00, 
2250.00, 
2251.00, 
2252.00, 
2253.00, 
2254.00, 
2255.00, 
2256.00, 
2257.00, 
2258.00, 
2259.00, 
2260.00, 
2261.00, 
2262.00, 
2263.00, 
2264.00, 
2265.00, 
2266.00, 
2267.00, 
2268.00, 
2269.00, 
2270.00, 
2271.00, 
2272.00, 
2273.00, 
2274.00, 
2275.00, 
2276.00, 
2277.00, 
2278.00, 
2279.00, 
2280.00, 
2281.00, 
2282.00, 
2283.00, 
2284.00, 
2285.00, 
2286.00, 
2287.00, 
2288.00, 
2289.00, 
2290.00, 
2291.00, 
2292.00, 
2293.00, 
2294.00, 
2295.00, 
2296.00, 
2297.00, 
2298.00, 
2299.00, 
2300.00, 
2301.00, 
2302.00, 
2303.00, 
2304.00, 
2305.00, 
2306.00, 
2307.00, 
2308.00, 
2309.00, 
2310.00, 
2311.00, 
2312.00, 
2313.00, 
2314.00, 
2315.00, 
2316.00, 
2317.00, 
2318.00, 
2319.00, 
2320.00, 
2321.00, 
2322.00, 
2323.00, 
2324.00, 
2325.00, 
2326.00, 
2327.00, 
2328.00, 
2329.00, 
2330.00, 
2331.00, 
2332.00, 
2333.00, 
2334.00, 
2335.00, 
2336.00, 
2337.00, 
2338.00, 
2339.00, 
2340.00, 
2341.00, 
2342.00, 
2343.00, 
2344.00, 
2345.00, 
2346.00, 
2347.00, 
2348.00, 
2349.00, 
2350.00, 
2351.00, 
2352.00, 
2353.00, 
2354.00, 
2355.00, 
2356.00, 
2357.00, 
2358.00, 
2359.00, 
2360.00, 
2361.00, 
2362.00, 
2363.00, 
2364.00, 
2365.00, 
2366.00, 
2367.00, 
2368.00, 
2369.00, 
2370.00, 
2371.00, 
2372.00, 
2373.00, 
2374.00, 
2375.00, 
2376.00, 
2377.00, 
2378.00, 
2379.00, 
2380.00, 
2381.00, 
2382.00, 
2383.00, 
2384.00, 
2385.00, 
2386.00, 
2387.00, 
2388.00, 
2389.00, 
2390.00, 
2391.00, 
2392.00, 
2393.00, 
2394.00, 
2395.00, 
2396.00, 
2397.00, 
2398.00, 
2399.00, 
2400.00, 
2401.00, 
2402.00, 
2403.00, 
2404.00, 
2405.00, 
2406.00, 
2407.00, 
2408.00, 
2409.00, 
2410.00, 
2411.00, 
2412.00, 
2413.00, 
2414.00, 
2415.00, 
2416.00, 
2417.00, 
2418.00, 
2419.00, 
2420.00, 
2421.00, 
2422.00, 
2423.00, 
2424.00, 
2425.00, 
2426.00, 
2427.00, 
2428.00, 
2429.00, 
2430.00, 
2431.00, 
2432.00, 
2433.00, 
2434.00, 
2435.00, 
2436.00, 
2437.00, 
2438.00, 
2439.00, 
2440.00, 
2441.00, 
2442.00, 
2443.00, 
2444.00, 
2445.00, 
2446.00, 
2447.00, 
2448.00, 
2449.00, 
2450.00, 
2451.00, 
2452.00, 
2453.00, 
2454.00, 
2455.00, 
2456.00, 
2457.00, 
2458.00, 
2459.00, 
2460.00, 
2461.00, 
2462.00, 
2463.00, 
2464.00, 
2465.00, 
2466.00, 
2467.00, 
2468.00, 
2469.00, 
2470.00, 
2471.00, 
2472.00, 
2473.00, 
2474.00, 
2475.00, 
2476.00, 
2477.00, 
2478.00, 
2479.00, 
2480.00, 
2481.00, 
2482.00, 
2483.00, 
2484.00, 
2485.00, 
2486.00, 
2487.00, 
2488.00, 
2489.00, 
2490.00, 
2491.00, 
2492.00, 
2493.00, 
2494.00, 
2495.00, 
2496.00, 
2497.00, 
2498.00, 
2499.00, 
2500.00, 
2501.00, 
2502.00, 
2503.00, 
2504.00, 
2505.00, 
2506.00, 
2507.00, 
2508.00, 
2509.00, 
2510.00, 
2511.00, 
2512.00, 
2513.00, 
2514.00, 
2515.00, 
2516.00, 
2517.00, 
2518.00, 
2519.00, 
2520.00, 
2521.00, 
2522.00, 
2523.00, 
2524.00, 
2525.00, 
2526.00, 
2527.00, 
2528.00, 
2529.00, 
2530.00, 
2531.00, 
2532.00, 
2533.00, 
2534.00, 
2535.00, 
2536.00, 
2537.00, 
2538.00, 
2539.00, 
2540.00, 
2541.00, 
2542.00, 
2543.00, 
2544.00, 
2545.00, 
2546.00, 
2547.00, 
2548.00, 
2549.00, 
2550.00, 
2551.00, 
2552.00, 
2553.00, 
2554.00, 
2555.00, 
2556.00, 
2557.00, 
2558.00, 
2559.00, 
2560.00, 
2561.00, 
2562.00, 
2563.00, 
2564.00, 
2565.00, 
2566.00, 
2567.00, 
2568.00, 
2569.00, 
2570.00, 
2571.00, 
2572.00, 
2573.00, 
2574.00, 
2575.00, 
2576.00, 
2577.00, 
2578.00, 
2579.00, 
2580.00, 
2581.00, 
2582.00, 
2583.00, 
2584.00, 
2585.00, 
2586.00, 
2587.00, 
2588.00, 
2589.00, 
2590.00, 
2591.00, 
2592.00, 
2593.00, 
2594.00, 
2595.00, 
2596.00, 
2597.00, 
2598.00, 
2599.00, 
2600.00, 
