"1cP5 - RawData"
"Wavelength nm.","T%"
200.00,0.004
201.00,0.000
202.00,0.001
203.00,0.003
204.00,0.002
205.00,-0.001
206.00,-0.002
207.00,0.001
208.00,-0.003
209.00,0.003
210.00,-0.001
211.00,-0.001
212.00,0.001
213.00,0.000
214.00,0.003
215.00,0.001
216.00,0.004
217.00,0.003
218.00,0.005
219.00,-0.001
220.00,0.001
221.00,0.001
222.00,0.002
223.00,-0.001
224.00,-0.001
225.00,0.001
226.00,-0.001
227.00,0.002
228.00,-0.000
229.00,-0.000
230.00,0.001
231.00,0.001
232.00,0.000
233.00,-0.001
234.00,-0.000
235.00,0.000
236.00,0.001
237.00,0.002
238.00,0.000
239.00,0.002
240.00,0.002
241.00,-0.000
242.00,-0.000
243.00,-0.000
244.00,-0.002
245.00,-0.000
246.00,-0.002
247.00,-0.001
248.00,0.001
249.00,-0.000
250.00,-0.002
251.00,-0.001
252.00,0.001
253.00,-0.001
254.00,-0.001
255.00,0.001
256.00,0.001
257.00,0.001
258.00,0.003
259.00,-0.001
260.00,0.001
261.00,0.002
262.00,-0.001
263.00,0.001
264.00,0.001
265.00,0.001
266.00,0.000
267.00,0.001
268.00,0.000
269.00,-0.000
270.00,0.000
271.00,-0.000
272.00,0.001
273.00,0.001
274.00,0.001
275.00,0.000
276.00,-0.002
277.00,-0.001
278.00,-0.000
279.00,0.001
280.00,0.000
281.00,0.000
282.00,-0.001
283.00,-0.002
284.00,0.001
285.00,0.000
286.00,0.002
287.00,0.001
288.00,0.002
289.00,-0.000
290.00,0.001
291.00,0.001
292.00,0.001
293.00,0.001
294.00,0.002
295.00,-0.001
296.00,-0.000
297.00,0.001
298.00,-0.000
299.00,0.001
300.00,0.002
301.00,0.002
302.00,0.001
303.00,0.001
304.00,0.001
305.00,0.001
306.00,0.001
307.00,0.004
308.00,0.007
309.00,0.011
310.00,0.016
311.00,0.025
312.00,0.042
313.00,0.066
314.00,0.092
315.00,0.136
316.00,0.188
317.00,0.275
318.00,0.375
319.00,0.508
320.00,0.653
321.00,0.872
322.00,1.119
323.00,1.396
324.00,1.738
325.00,2.085
326.00,2.474
327.00,2.959
328.00,3.457
329.00,3.991
330.00,4.564
331.00,5.153
332.00,5.789
333.00,6.479
334.00,7.127
335.00,7.824
336.00,8.521
337.00,9.291
338.00,9.991
339.00,10.666
340.00,11.372
341.00,12.085
342.00,12.720
343.00,13.354
344.00,13.946
345.00,14.634
346.00,15.131
347.00,15.671
348.00,16.161
349.00,16.660
350.00,17.105
351.00,17.519
352.00,17.917
353.00,18.298
354.00,18.631
355.00,18.951
356.00,19.255
357.00,19.533
358.00,19.798
359.00,20.103
360.00,20.359
361.00,20.555
362.00,20.714
363.00,20.907
364.00,21.003
365.00,21.070
366.00,21.204
367.00,21.286
368.00,21.320
369.00,21.400
370.00,21.463
371.00,21.462
372.00,21.428
373.00,21.430
374.00,21.433
375.00,21.407
376.00,21.286
377.00,21.207
378.00,21.134
379.00,21.020
380.00,20.991
381.00,21.010
382.00,20.989
383.00,21.016
384.00,21.074
385.00,21.137
386.00,21.167
387.00,21.243
388.00,21.354
389.00,21.324
390.00,21.421
391.00,21.436
392.00,21.466
393.00,21.497
394.00,21.480
395.00,21.551
396.00,21.542
397.00,21.581
398.00,21.569
399.00,21.571
400.00,21.574
401.00,21.582
402.00,21.545
403.00,21.549
404.00,21.553
405.00,21.502
406.00,21.527
407.00,21.467
408.00,21.476
409.00,21.403
410.00,21.337
411.00,21.352
412.00,21.328
413.00,21.348
414.00,21.323
415.00,21.303
416.00,21.357
417.00,21.324
418.00,21.356
419.00,21.437
420.00,21.469
421.00,21.478
422.00,21.522
423.00,21.530
424.00,21.565
425.00,21.608
426.00,21.639
427.00,21.690
428.00,21.701
429.00,21.744
430.00,21.807
431.00,21.863
432.00,21.911
433.00,21.974
434.00,22.001
435.00,22.093
436.00,22.153
437.00,22.206
438.00,22.296
439.00,22.330
440.00,22.400
441.00,22.456
442.00,22.547
443.00,22.617
444.00,22.755
445.00,22.816
446.00,22.895
447.00,22.979
448.00,23.101
449.00,23.228
450.00,23.298
451.00,23.366
452.00,23.446
453.00,23.597
454.00,23.691
455.00,23.861
456.00,23.984
457.00,24.121
458.00,24.201
459.00,24.371
460.00,24.500
461.00,24.638
462.00,24.729
463.00,24.866
464.00,24.984
465.00,25.118
466.00,25.259
467.00,25.362
468.00,25.456
469.00,25.615
470.00,25.697
471.00,25.820
472.00,25.945
473.00,26.022
474.00,26.161
475.00,26.308
476.00,26.368
477.00,26.461
478.00,26.637
479.00,26.763
480.00,26.966
481.00,27.070
482.00,27.237
483.00,27.374
484.00,27.551
485.00,27.712
486.00,27.854
487.00,28.019
488.00,28.159
489.00,28.339
490.00,28.500
491.00,28.593
492.00,28.869
493.00,28.972
494.00,28.946
495.00,29.103
496.00,29.257
497.00,29.387
498.00,29.530
499.00,29.695
500.00,29.860
501.00,29.956
502.00,30.086
503.00,30.188
504.00,30.260
505.00,30.444
506.00,30.508
507.00,30.624
508.00,30.730
509.00,30.919
510.00,31.019
511.00,31.120
512.00,31.279
513.00,31.425
514.00,31.547
515.00,31.665
516.00,31.795
517.00,31.875
518.00,32.025
519.00,32.073
520.00,32.104
521.00,32.276
522.00,32.345
523.00,32.388
524.00,32.495
525.00,32.623
526.00,32.717
527.00,32.779
528.00,32.843
529.00,33.046
530.00,33.168
531.00,33.299
532.00,33.360
533.00,33.503
534.00,33.541
535.00,33.654
536.00,33.750
537.00,33.809
538.00,33.910
539.00,33.912
540.00,34.062
541.00,34.113
542.00,34.167
543.00,34.173
544.00,34.292
545.00,34.361
546.00,34.370
547.00,34.543
548.00,34.613
549.00,34.677
550.00,34.721
551.00,34.863
552.00,34.910
553.00,34.929
554.00,35.038
555.00,35.084
556.00,35.138
557.00,35.211
558.00,35.254
559.00,35.308
560.00,35.379
561.00,35.477
562.00,35.512
563.00,35.527
564.00,35.581
565.00,35.621
566.00,35.662
567.00,35.668
568.00,35.777
569.00,35.799
570.00,35.839
571.00,35.851
572.00,35.898
573.00,35.886
574.00,35.922
575.00,35.939
576.00,35.982
577.00,36.022
578.00,36.076
579.00,36.127
580.00,36.153
581.00,36.310
582.00,36.388
583.00,36.382
584.00,36.480
585.00,36.514
586.00,36.575
587.00,36.668
588.00,36.644
589.00,36.636
590.00,36.780
591.00,36.749
592.00,36.841
593.00,36.853
594.00,36.799
595.00,36.920
596.00,37.002
597.00,37.020
598.00,37.075
599.00,37.093
600.00,37.192
601.00,37.211
602.00,37.234
603.00,37.227
604.00,37.267
605.00,37.378
606.00,37.351
607.00,37.444
608.00,37.583
609.00,37.652
610.00,37.503
611.00,37.592
612.00,37.596
613.00,37.631
614.00,37.730
615.00,37.797
616.00,37.871
617.00,37.919
618.00,37.836
619.00,37.962
620.00,37.984
621.00,38.007
622.00,38.148
623.00,38.182
624.00,38.200
625.00,38.192
626.00,38.307
627.00,38.452
628.00,38.401
629.00,38.461
630.00,38.539
631.00,38.592
632.00,38.738
633.00,38.826
634.00,38.857
635.00,38.966
636.00,38.984
637.00,39.049
638.00,39.141
639.00,39.274
640.00,39.274
641.00,39.333
642.00,39.411
643.00,39.453
644.00,39.662
645.00,39.673
646.00,39.712
647.00,39.811
648.00,39.774
649.00,39.770
650.00,39.912
651.00,40.037
652.00,40.036
653.00,39.943
654.00,40.299
655.00,40.148
656.00,40.640
657.00,40.443
658.00,40.568
659.00,40.621
660.00,40.788
661.00,40.778
662.00,40.866
663.00,41.049
664.00,41.322
665.00,41.454
666.00,41.432
667.00,41.481
668.00,41.575
669.00,41.731
670.00,42.014
671.00,41.895
672.00,42.066
673.00,42.078
674.00,42.165
675.00,42.217
676.00,42.471
677.00,42.645
678.00,42.318
679.00,42.576
680.00,42.809
681.00,42.803
682.00,42.870
683.00,42.918
684.00,43.086
685.00,43.058
686.00,43.044
687.00,43.297
688.00,43.225
689.00,43.292
690.00,43.581
691.00,43.791
692.00,43.763
693.00,43.947
694.00,43.919
695.00,44.084
696.00,44.027
697.00,44.102
698.00,44.273
699.00,44.490
700.00,44.450
701.00,44.507
702.00,44.598
703.00,44.843
704.00,44.924
705.00,44.801
706.00,44.948
707.00,44.909
708.00,45.061
709.00,45.576
710.00,45.283
711.00,45.228
712.00,45.327
713.00,45.526
714.00,45.658
715.00,45.548
716.00,45.579
717.00,45.810
718.00,45.849
719.00,45.722
720.00,45.843
721.00,50.268
722.00,50.319
723.00,50.381
724.00,50.386
725.00,50.458
726.00,50.464
727.00,50.445
728.00,50.448
729.00,50.425
730.00,50.551
731.00,50.514
732.00,50.560
733.00,50.667
734.00,50.722
735.00,50.756
736.00,50.725
737.00,50.771
738.00,50.845
739.00,50.897
740.00,50.902
741.00,50.924
742.00,51.051
743.00,50.975
744.00,50.981
745.00,51.021
746.00,51.023
747.00,51.038
748.00,51.006
749.00,51.100
750.00,51.033
751.00,51.031
752.00,51.055
753.00,51.062
754.00,51.112
755.00,51.061
756.00,51.072
757.00,51.109
758.00,51.148
759.00,51.104
760.00,51.117
761.00,51.139
762.00,51.124
763.00,51.255
764.00,51.200
765.00,51.228
766.00,51.225
767.00,51.212
768.00,51.249
769.00,51.188
770.00,51.292
771.00,51.287
772.00,51.314
773.00,51.270
774.00,51.323
775.00,51.372
776.00,51.271
777.00,51.387
778.00,51.350
779.00,51.334
780.00,51.335
781.00,51.364
782.00,51.418
783.00,51.421
784.00,51.391
785.00,51.307
786.00,51.408
787.00,51.306
788.00,51.314
789.00,51.303
790.00,51.272
791.00,51.387
792.00,51.191
793.00,51.286
794.00,51.285
795.00,51.235
796.00,51.240
797.00,51.244
798.00,51.299
799.00,51.218
800.00,51.178
801.00,51.186
802.00,51.182
803.00,51.257
804.00,51.126
805.00,51.154
806.00,51.075
807.00,51.162
808.00,51.015
809.00,51.049
810.00,51.043
811.00,51.157
812.00,51.064
813.00,51.021
814.00,51.009
815.00,51.043
816.00,50.978
817.00,50.992
818.00,50.930
819.00,50.927
820.00,50.822
821.00,50.890
822.00,50.923
823.00,50.917
824.00,50.980
825.00,50.824
826.00,50.888
827.00,50.886
828.00,50.840
829.00,50.824
830.00,50.772
831.00,53.143
832.00,53.136
833.00,53.120
834.00,53.149
835.00,53.108
836.00,53.093
837.00,53.073
838.00,53.028
839.00,52.987
840.00,52.954
841.00,52.985
842.00,52.957
843.00,52.966
844.00,52.942
845.00,52.906
846.00,52.932
847.00,52.883
848.00,52.885
849.00,52.811
850.00,52.765
851.00,52.746
852.00,52.761
853.00,52.676
854.00,52.668
855.00,52.618
856.00,52.664
857.00,52.616
858.00,52.544
859.00,52.508
860.00,52.620
861.00,52.572
862.00,52.475
863.00,52.505
864.00,52.472
865.00,52.474
866.00,52.472
867.00,52.470
868.00,52.458
869.00,52.408
870.00,52.419
871.00,52.436
872.00,52.434
873.00,52.390
874.00,52.412
875.00,52.426
876.00,52.385
877.00,52.330
878.00,52.367
879.00,52.341
880.00,52.337
881.00,52.280
882.00,52.349
883.00,52.258
884.00,52.202
885.00,52.241
886.00,52.198
887.00,52.164
888.00,52.170
889.00,52.083
890.00,52.103
891.00,52.072
892.00,52.068
893.00,52.061
894.00,52.071
895.00,52.042
896.00,52.016
897.00,51.979
898.00,51.961
899.00,52.020
900.00,51.939
901.00,51.951
902.00,51.942
903.00,51.847
904.00,51.891
905.00,51.903
906.00,51.895
907.00,51.863
908.00,51.806
909.00,51.796
910.00,51.776
911.00,51.765
912.00,51.766
913.00,51.731
914.00,51.741
915.00,51.687
916.00,51.658
917.00,51.664
918.00,51.633
919.00,51.580
920.00,51.562
921.00,51.569
922.00,51.560
923.00,51.543
924.00,51.497
925.00,51.514
926.00,51.474
927.00,51.489
928.00,51.447
929.00,51.435
930.00,51.440
931.00,51.410
932.00,51.365
933.00,51.388
934.00,51.363
935.00,51.327
936.00,51.302
937.00,51.270
938.00,51.278
939.00,51.282
940.00,51.218
941.00,51.234
942.00,51.208
943.00,51.184
944.00,51.129
945.00,51.161
946.00,51.273
947.00,51.111
948.00,51.097
949.00,51.066
950.00,51.061
951.00,51.026
952.00,51.009
953.00,50.960
954.00,50.946
955.00,50.906
956.00,50.908
957.00,50.873
958.00,50.886
959.00,50.824
960.00,50.825
961.00,50.899
962.00,50.812
963.00,50.751
964.00,50.772
965.00,50.777
966.00,50.764
967.00,50.741
968.00,50.708
969.00,50.743
970.00,50.688
971.00,50.696
972.00,50.684
973.00,50.723
974.00,50.736
975.00,50.706
976.00,50.719
977.00,50.712
978.00,50.751
979.00,50.696
980.00,50.726
981.00,50.717
982.00,50.676
983.00,50.713
984.00,50.668
985.00,50.689
986.00,50.663
987.00,50.685
988.00,50.645
989.00,50.643
990.00,50.649
991.00,50.642
992.00,50.624
993.00,50.579
994.00,50.586
995.00,50.570
996.00,50.562
997.00,50.543
998.00,50.523
999.00,50.547
1000.00,50.486
1001.00,50.479
1002.00,50.490
1003.00,50.496
1004.00,50.458
1005.00,50.412
1006.00,50.452
1007.00,50.456
1008.00,50.410
1009.00,50.388
1010.00,50.397
1011.00,50.397
1012.00,50.355
1013.00,50.371
1014.00,50.327
1015.00,50.331
1016.00,50.316
1017.00,50.297
1018.00,50.292
1019.00,50.270
1020.00,50.248
1021.00,50.237
1022.00,50.285
1023.00,50.186
1024.00,50.203
1025.00,50.175
1026.00,50.152
1027.00,50.135
1028.00,50.125
1029.00,50.126
1030.00,50.102
1031.00,50.111
1032.00,50.073
1033.00,50.080
1034.00,50.047
1035.00,50.029
1036.00,50.003
1037.00,49.977
1038.00,49.976
1039.00,49.935
1040.00,49.929
1041.00,49.913
1042.00,49.900
1043.00,49.882
1044.00,49.902
1045.00,49.875
1046.00,49.882
1047.00,49.889
1048.00,49.891
1049.00,49.908
1050.00,49.901
1051.00,49.942
1052.00,49.930
1053.00,49.922
1054.00,49.931
1055.00,49.977
1056.00,49.974
1057.00,49.979
1058.00,49.953
1059.00,49.955
1060.00,49.987
1061.00,49.935
1062.00,49.932
1063.00,49.942
1064.00,49.943
1065.00,49.938
1066.00,49.930
1067.00,49.931
1068.00,49.997
1069.00,49.901
1070.00,49.881
1071.00,49.868
1072.00,49.877
1073.00,49.857
1074.00,49.858
1075.00,49.847
1076.00,49.855
1077.00,49.845
1078.00,49.811
1079.00,49.838
1080.00,49.833
1081.00,49.801
1082.00,49.820
1083.00,49.830
1084.00,49.794
1085.00,49.803
1086.00,49.764
1087.00,49.778
1088.00,49.775
1089.00,49.764
1090.00,49.773
1091.00,49.770
1092.00,49.751
1093.00,49.748
1094.00,49.710
1095.00,49.710
1096.00,49.691
1097.00,49.685
1098.00,49.676
1099.00,49.676
1100.00,49.650
1101.00,49.668
1102.00,49.634
1103.00,49.635
1104.00,49.630
1105.00,49.606
1106.00,49.600
1107.00,49.592
1108.00,49.570
1109.00,49.579
1110.00,49.573
1111.00,49.552
1112.00,49.559
1113.00,49.555
1114.00,49.527
1115.00,49.545
1116.00,49.532
1117.00,49.517
1118.00,49.522
1119.00,49.520
1120.00,49.514
1121.00,49.513
1122.00,49.484
1123.00,49.493
1124.00,49.484
1125.00,49.472
1126.00,49.475
1127.00,49.467
1128.00,49.454
1129.00,49.474
1130.00,49.411
1131.00,49.426
1132.00,49.428
1133.00,49.413
1134.00,49.425
1135.00,49.412
1136.00,49.399
1137.00,49.424
1138.00,49.407
1139.00,49.403
1140.00,49.435
1141.00,49.431
1142.00,49.419
1143.00,49.426
1144.00,49.372
1145.00,49.389
1146.00,49.375
1147.00,49.359
1148.00,49.369
1149.00,49.375
1150.00,49.379
1151.00,49.383
1152.00,49.377
1153.00,49.382
1154.00,49.376
1155.00,49.364
1156.00,49.379
1157.00,49.373
1158.00,49.359
1159.00,49.373
1160.00,49.355
1161.00,49.362
1162.00,49.353
1163.00,49.344
1164.00,49.361
1165.00,49.357
1166.00,49.354
1167.00,49.356
1168.00,49.378
1169.00,49.362
1170.00,49.349
1171.00,49.318
1172.00,49.321
1173.00,49.323
1174.00,49.326
1175.00,49.334
1176.00,49.340
1177.00,49.322
1178.00,49.338
1179.00,49.345
1180.00,49.328
1181.00,49.354
1182.00,49.340
1183.00,49.346
1184.00,49.337
1185.00,49.325
1186.00,49.316
1187.00,49.338
1188.00,49.329
1189.00,49.341
1190.00,49.324
1191.00,49.315
1192.00,49.350
1193.00,49.321
1194.00,49.326
1195.00,49.309
1196.00,49.333
1197.00,49.343
1198.00,49.344
1199.00,49.340
1200.00,49.365
1201.00,49.361
1202.00,49.326
1203.00,49.334
1204.00,49.308
1205.00,49.334
1206.00,49.326
1207.00,49.322
1208.00,49.330
1209.00,49.336
1210.00,49.333
1211.00,49.343
1212.00,49.362
1213.00,49.331
1214.00,49.356
1215.00,49.332
1216.00,49.340
1217.00,49.344
1218.00,49.345
1219.00,49.353
1220.00,49.334
1221.00,49.345
1222.00,49.347
1223.00,49.352
1224.00,49.327
1225.00,49.341
1226.00,49.332
1227.00,49.337
1228.00,49.372
1229.00,49.346
1230.00,49.368
1231.00,49.362
1232.00,49.377
1233.00,49.402
1234.00,49.395
1235.00,49.400
1236.00,49.418
1237.00,49.411
1238.00,49.406
1239.00,49.420
1240.00,49.403
1241.00,49.432
1242.00,49.426
1243.00,49.421
1244.00,49.412
1245.00,49.444
1246.00,49.451
1247.00,49.438
1248.00,49.433
1249.00,49.450
1250.00,49.467
1251.00,49.434
1252.00,49.447
1253.00,49.441
1254.00,49.459
1255.00,49.471
1256.00,49.454
1257.00,49.446
1258.00,49.495
1259.00,49.483
1260.00,49.512
1261.00,49.512
1262.00,49.482
1263.00,49.500
1264.00,49.514
1265.00,49.510
1266.00,49.526
1267.00,49.539
1268.00,49.539
1269.00,49.563
1270.00,49.562
1271.00,49.562
1272.00,49.577
1273.00,49.598
1274.00,49.601
1275.00,49.601
1276.00,49.581
1277.00,49.597
1278.00,49.592
1279.00,49.583
1280.00,49.586
1281.00,49.604
1282.00,49.607
1283.00,49.612
1284.00,49.613
1285.00,49.613
1286.00,49.633
1287.00,49.632
1288.00,49.664
1289.00,49.644
1290.00,49.660
1291.00,49.653
1292.00,49.651
1293.00,49.659
1294.00,49.690
1295.00,49.689
1296.00,49.691
1297.00,49.701
1298.00,49.722
1299.00,49.710
1300.00,49.717
1301.00,49.710
1302.00,49.754
1303.00,49.729
1304.00,49.725
1305.00,49.759
1306.00,49.753
1307.00,49.754
1308.00,49.766
1309.00,49.773
1310.00,49.789
1311.00,49.769
1312.00,49.784
1313.00,49.810
1314.00,49.813
1315.00,49.828
1316.00,49.835
1317.00,49.851
1318.00,49.846
1319.00,49.863
1320.00,49.864
1321.00,50.022
1322.00,49.981
1323.00,49.964
1324.00,49.968
1325.00,49.965
1326.00,50.005
1327.00,49.985
1328.00,50.002
1329.00,50.023
1330.00,50.034
1331.00,50.009
1332.00,50.020
1333.00,50.002
1334.00,50.048
1335.00,50.077
1336.00,50.083
1337.00,50.115
1338.00,50.170
1339.00,50.204
1340.00,50.281
1341.00,50.348
1342.00,50.397
1343.00,50.450
1344.00,50.508
1345.00,50.575
1346.00,50.614
1347.00,50.610
1348.00,50.653
1349.00,50.682
1350.00,50.687
1351.00,50.714
1352.00,50.719
1353.00,50.710
1354.00,50.743
1355.00,50.669
1356.00,50.770
1357.00,50.798
1358.00,50.746
1359.00,50.779
1360.00,50.816
1361.00,50.814
1362.00,50.678
1363.00,50.834
1364.00,50.872
1365.00,50.782
1366.00,50.827
1367.00,50.818
1368.00,50.727
1369.00,50.803
1370.00,50.791
1371.00,50.747
1372.00,50.752
1373.00,50.800
1374.00,50.806
1375.00,50.778
1376.00,50.782
1377.00,50.757
1378.00,50.746
1379.00,50.816
1380.00,50.787
1381.00,50.818
1382.00,50.774
1383.00,50.783
1384.00,50.744
1385.00,50.730
1386.00,50.786
1387.00,50.746
1388.00,50.722
1389.00,50.733
1390.00,50.775
1391.00,50.749
1392.00,50.741
1393.00,50.787
1394.00,50.800
1395.00,50.761
1396.00,50.713
1397.00,50.728
1398.00,50.825
1399.00,50.781
1400.00,50.752
1401.00,50.770
1402.00,50.856
1403.00,50.827
1404.00,50.794
1405.00,50.820
1406.00,50.848
1407.00,50.837
1408.00,50.846
1409.00,50.845
1410.00,50.879
1411.00,50.852
1412.00,50.927
1413.00,50.836
1414.00,50.890
1415.00,50.907
1416.00,50.899
1417.00,50.933
1418.00,50.925
1419.00,50.950
1420.00,50.964
1421.00,51.007
1422.00,50.983
1423.00,51.031
1424.00,51.009
1425.00,51.046
1426.00,51.060
1427.00,51.067
1428.00,51.095
1429.00,51.122
1430.00,51.131
1431.00,51.143
1432.00,51.155
1433.00,51.191
1434.00,51.182
1435.00,51.210
1436.00,51.235
1437.00,51.226
1438.00,51.233
1439.00,51.275
1440.00,51.286
1441.00,51.278
1442.00,51.318
1443.00,51.357
1444.00,51.365
1445.00,51.351
1446.00,51.386
1447.00,51.441
1448.00,51.484
1449.00,51.451
1450.00,51.492
1451.00,51.486
1452.00,51.493
1453.00,51.503
1454.00,51.517
1455.00,51.552
1456.00,51.572
1457.00,51.575
1458.00,51.618
1459.00,51.617
1460.00,51.637
1461.00,51.634
1462.00,51.668
1463.00,51.699
1464.00,51.712
1465.00,51.715
1466.00,51.704
1467.00,51.751
1468.00,51.788
1469.00,51.762
1470.00,51.787
1471.00,51.795
1472.00,51.814
1473.00,51.834
1474.00,51.851
1475.00,51.880
1476.00,51.886
1477.00,51.865
1478.00,51.933
1479.00,51.934
1480.00,51.942
1481.00,51.957
1482.00,51.972
1483.00,51.999
1484.00,51.998
1485.00,51.993
1486.00,52.023
1487.00,52.052
1488.00,52.073
1489.00,52.078
1490.00,52.082
1491.00,52.120
1492.00,52.155
1493.00,52.104
1494.00,52.156
1495.00,52.138
1496.00,52.162
1497.00,52.152
1498.00,52.164
1499.00,52.162
1500.00,52.210
1501.00, 
1502.00, 
1503.00, 
1504.00, 
1505.00, 
1506.00, 
1507.00, 
1508.00, 
1509.00, 
1510.00, 
1511.00, 
1512.00, 
1513.00, 
1514.00, 
1515.00, 
1516.00, 
1517.00, 
1518.00, 
1519.00, 
1520.00, 
1521.00, 
1522.00, 
1523.00, 
1524.00, 
1525.00, 
1526.00, 
1527.00, 
1528.00, 
1529.00, 
1530.00, 
1531.00, 
1532.00, 
1533.00, 
1534.00, 
1535.00, 
1536.00, 
1537.00, 
1538.00, 
1539.00, 
1540.00, 
1541.00, 
1542.00, 
1543.00, 
1544.00, 
1545.00, 
1546.00, 
1547.00, 
1548.00, 
1549.00, 
1550.00, 
1551.00, 
1552.00, 
1553.00, 
1554.00, 
1555.00, 
1556.00, 
1557.00, 
1558.00, 
1559.00, 
1560.00, 
1561.00, 
1562.00, 
1563.00, 
1564.00, 
1565.00, 
1566.00, 
1567.00, 
1568.00, 
1569.00, 
1570.00, 
1571.00, 
1572.00, 
1573.00, 
1574.00, 
1575.00, 
1576.00, 
1577.00, 
1578.00, 
1579.00, 
1580.00, 
1581.00, 
1582.00, 
1583.00, 
1584.00, 
1585.00, 
1586.00, 
1587.00, 
1588.00, 
1589.00, 
1590.00, 
1591.00, 
1592.00, 
1593.00, 
1594.00, 
1595.00, 
1596.00, 
1597.00, 
1598.00, 
1599.00, 
1600.00, 
1601.00, 
1602.00, 
1603.00, 
1604.00, 
1605.00, 
1606.00, 
1607.00, 
1608.00, 
1609.00, 
1610.00, 
1611.00, 
1612.00, 
1613.00, 
1614.00, 
1615.00, 
1616.00, 
1617.00, 
1618.00, 
1619.00, 
1620.00, 
1621.00, 
1622.00, 
1623.00, 
1624.00, 
1625.00, 
1626.00, 
1627.00, 
1628.00, 
1629.00, 
1630.00, 
1631.00, 
1632.00, 
1633.00, 
1634.00, 
1635.00, 
1636.00, 
1637.00, 
1638.00, 
1639.00, 
1640.00, 
1641.00, 
1642.00, 
1643.00, 
1644.00, 
1645.00, 
1646.00, 
1647.00, 
1648.00, 
1649.00, 
1650.00, 
1651.00, 
1652.00, 
1653.00, 
1654.00, 
1655.00, 
1656.00, 
1657.00, 
1658.00, 
1659.00, 
1660.00, 
1661.00, 
1662.00, 
1663.00, 
1664.00, 
1665.00, 
1666.00, 
1667.00, 
1668.00, 
1669.00, 
1670.00, 
1671.00, 
1672.00, 
1673.00, 
1674.00, 
1675.00, 
1676.00, 
1677.00, 
1678.00, 
1679.00, 
1680.00, 
1681.00, 
1682.00, 
1683.00, 
1684.00, 
1685.00, 
1686.00, 
1687.00, 
1688.00, 
1689.00, 
1690.00, 
1691.00, 
1692.00, 
1693.00, 
1694.00, 
1695.00, 
1696.00, 
1697.00, 
1698.00, 
1699.00, 
1700.00, 
1701.00, 
1702.00, 
1703.00, 
1704.00, 
1705.00, 
1706.00, 
1707.00, 
1708.00, 
1709.00, 
1710.00, 
1711.00, 
1712.00, 
1713.00, 
1714.00, 
1715.00, 
1716.00, 
1717.00, 
1718.00, 
1719.00, 
1720.00, 
1721.00, 
1722.00, 
1723.00, 
1724.00, 
1725.00, 
1726.00, 
1727.00, 
1728.00, 
1729.00, 
1730.00, 
1731.00, 
1732.00, 
1733.00, 
1734.00, 
1735.00, 
1736.00, 
1737.00, 
1738.00, 
1739.00, 
1740.00, 
1741.00, 
1742.00, 
1743.00, 
1744.00, 
1745.00, 
1746.00, 
1747.00, 
1748.00, 
1749.00, 
1750.00, 
1751.00, 
1752.00, 
1753.00, 
1754.00, 
1755.00, 
1756.00, 
1757.00, 
1758.00, 
1759.00, 
1760.00, 
1761.00, 
1762.00, 
1763.00, 
1764.00, 
1765.00, 
1766.00, 
1767.00, 
1768.00, 
1769.00, 
1770.00, 
1771.00, 
1772.00, 
1773.00, 
1774.00, 
1775.00, 
1776.00, 
1777.00, 
1778.00, 
1779.00, 
1780.00, 
1781.00, 
1782.00, 
1783.00, 
1784.00, 
1785.00, 
1786.00, 
1787.00, 
1788.00, 
1789.00, 
1790.00, 
1791.00, 
1792.00, 
1793.00, 
1794.00, 
1795.00, 
1796.00, 
1797.00, 
1798.00, 
1799.00, 
1800.00, 
1801.00, 
1802.00, 
1803.00, 
1804.00, 
1805.00, 
1806.00, 
1807.00, 
1808.00, 
1809.00, 
1810.00, 
1811.00, 
1812.00, 
1813.00, 
1814.00, 
1815.00, 
1816.00, 
1817.00, 
1818.00, 
1819.00, 
1820.00, 
1821.00, 
1822.00, 
1823.00, 
1824.00, 
1825.00, 
1826.00, 
1827.00, 
1828.00, 
1829.00, 
1830.00, 
1831.00, 
1832.00, 
1833.00, 
1834.00, 
1835.00, 
1836.00, 
1837.00, 
1838.00, 
1839.00, 
1840.00, 
1841.00, 
1842.00, 
1843.00, 
1844.00, 
1845.00, 
1846.00, 
1847.00, 
1848.00, 
1849.00, 
1850.00, 
1851.00, 
1852.00, 
1853.00, 
1854.00, 
1855.00, 
1856.00, 
1857.00, 
1858.00, 
1859.00, 
1860.00, 
1861.00, 
1862.00, 
1863.00, 
1864.00, 
1865.00, 
1866.00, 
1867.00, 
1868.00, 
1869.00, 
1870.00, 
1871.00, 
1872.00, 
1873.00, 
1874.00, 
1875.00, 
1876.00, 
1877.00, 
1878.00, 
1879.00, 
1880.00, 
1881.00, 
1882.00, 
1883.00, 
1884.00, 
1885.00, 
1886.00, 
1887.00, 
1888.00, 
1889.00, 
1890.00, 
1891.00, 
1892.00, 
1893.00, 
1894.00, 
1895.00, 
1896.00, 
1897.00, 
1898.00, 
1899.00, 
1900.00, 
1901.00, 
1902.00, 
1903.00, 
1904.00, 
1905.00, 
1906.00, 
1907.00, 
1908.00, 
1909.00, 
1910.00, 
1911.00, 
1912.00, 
1913.00, 
1914.00, 
1915.00, 
1916.00, 
1917.00, 
1918.00, 
1919.00, 
1920.00, 
1921.00, 
1922.00, 
1923.00, 
1924.00, 
1925.00, 
1926.00, 
1927.00, 
1928.00, 
1929.00, 
1930.00, 
1931.00, 
1932.00, 
1933.00, 
1934.00, 
1935.00, 
1936.00, 
1937.00, 
1938.00, 
1939.00, 
1940.00, 
1941.00, 
1942.00, 
1943.00, 
1944.00, 
1945.00, 
1946.00, 
1947.00, 
1948.00, 
1949.00, 
1950.00, 
1951.00, 
1952.00, 
1953.00, 
1954.00, 
1955.00, 
1956.00, 
1957.00, 
1958.00, 
1959.00, 
1960.00, 
1961.00, 
1962.00, 
1963.00, 
1964.00, 
1965.00, 
1966.00, 
1967.00, 
1968.00, 
1969.00, 
1970.00, 
1971.00, 
1972.00, 
1973.00, 
1974.00, 
1975.00, 
1976.00, 
1977.00, 
1978.00, 
1979.00, 
1980.00, 
1981.00, 
1982.00, 
1983.00, 
1984.00, 
1985.00, 
1986.00, 
1987.00, 
1988.00, 
1989.00, 
1990.00, 
1991.00, 
1992.00, 
1993.00, 
1994.00, 
1995.00, 
1996.00, 
1997.00, 
1998.00, 
1999.00, 
2000.00, 
2001.00, 
2002.00, 
2003.00, 
2004.00, 
2005.00, 
2006.00, 
2007.00, 
2008.00, 
2009.00, 
2010.00, 
2011.00, 
2012.00, 
2013.00, 
2014.00, 
2015.00, 
2016.00, 
2017.00, 
2018.00, 
2019.00, 
2020.00, 
2021.00, 
2022.00, 
2023.00, 
2024.00, 
2025.00, 
2026.00, 
2027.00, 
2028.00, 
2029.00, 
2030.00, 
2031.00, 
2032.00, 
2033.00, 
2034.00, 
2035.00, 
2036.00, 
2037.00, 
2038.00, 
2039.00, 
2040.00, 
2041.00, 
2042.00, 
2043.00, 
2044.00, 
2045.00, 
2046.00, 
2047.00, 
2048.00, 
2049.00, 
2050.00, 
2051.00, 
2052.00, 
2053.00, 
2054.00, 
2055.00, 
2056.00, 
2057.00, 
2058.00, 
2059.00, 
2060.00, 
2061.00, 
2062.00, 
2063.00, 
2064.00, 
2065.00, 
2066.00, 
2067.00, 
2068.00, 
2069.00, 
2070.00, 
2071.00, 
2072.00, 
2073.00, 
2074.00, 
2075.00, 
2076.00, 
2077.00, 
2078.00, 
2079.00, 
2080.00, 
2081.00, 
2082.00, 
2083.00, 
2084.00, 
2085.00, 
2086.00, 
2087.00, 
2088.00, 
2089.00, 
2090.00, 
2091.00, 
2092.00, 
2093.00, 
2094.00, 
2095.00, 
2096.00, 
2097.00, 
2098.00, 
2099.00, 
2100.00, 
2101.00, 
2102.00, 
2103.00, 
2104.00, 
2105.00, 
2106.00, 
2107.00, 
2108.00, 
2109.00, 
2110.00, 
2111.00, 
2112.00, 
2113.00, 
2114.00, 
2115.00, 
2116.00, 
2117.00, 
2118.00, 
2119.00, 
2120.00, 
2121.00, 
2122.00, 
2123.00, 
2124.00, 
2125.00, 
2126.00, 
2127.00, 
2128.00, 
2129.00, 
2130.00, 
2131.00, 
2132.00, 
2133.00, 
2134.00, 
2135.00, 
2136.00, 
2137.00, 
2138.00, 
2139.00, 
2140.00, 
2141.00, 
2142.00, 
2143.00, 
2144.00, 
2145.00, 
2146.00, 
2147.00, 
2148.00, 
2149.00, 
2150.00, 
2151.00, 
2152.00, 
2153.00, 
2154.00, 
2155.00, 
2156.00, 
2157.00, 
2158.00, 
2159.00, 
2160.00, 
2161.00, 
2162.00, 
2163.00, 
2164.00, 
2165.00, 
2166.00, 
2167.00, 
2168.00, 
2169.00, 
2170.00, 
2171.00, 
2172.00, 
2173.00, 
2174.00, 
2175.00, 
2176.00, 
2177.00, 
2178.00, 
2179.00, 
2180.00, 
2181.00, 
2182.00, 
2183.00, 
2184.00, 
2185.00, 
2186.00, 
2187.00, 
2188.00, 
2189.00, 
2190.00, 
2191.00, 
2192.00, 
2193.00, 
2194.00, 
2195.00, 
2196.00, 
2197.00, 
2198.00, 
2199.00, 
2200.00, 
2201.00, 
2202.00, 
2203.00, 
2204.00, 
2205.00, 
2206.00, 
2207.00, 
2208.00, 
2209.00, 
2210.00, 
2211.00, 
2212.00, 
2213.00, 
2214.00, 
2215.00, 
2216.00, 
2217.00, 
2218.00, 
2219.00, 
2220.00, 
2221.00, 
2222.00, 
2223.00, 
2224.00, 
2225.00, 
2226.00, 
2227.00, 
2228.00, 
2229.00, 
2230.00, 
2231.00, 
2232.00, 
2233.00, 
2234.00, 
2235.00, 
2236.00, 
2237.00, 
2238.00, 
2239.00, 
2240.00, 
2241.00, 
2242.00, 
2243.00, 
2244.00, 
2245.00, 
2246.00, 
2247.00, 
2248.00, 
2249.00, 
2250.00, 
2251.00, 
2252.00, 
2253.00, 
2254.00, 
2255.00, 
2256.00, 
2257.00, 
2258.00, 
2259.00, 
2260.00, 
2261.00, 
2262.00, 
2263.00, 
2264.00, 
2265.00, 
2266.00, 
2267.00, 
2268.00, 
2269.00, 
2270.00, 
2271.00, 
2272.00, 
2273.00, 
2274.00, 
2275.00, 
2276.00, 
2277.00, 
2278.00, 
2279.00, 
2280.00, 
2281.00, 
2282.00, 
2283.00, 
2284.00, 
2285.00, 
2286.00, 
2287.00, 
2288.00, 
2289.00, 
2290.00, 
2291.00, 
2292.00, 
2293.00, 
2294.00, 
2295.00, 
2296.00, 
2297.00, 
2298.00, 
2299.00, 
2300.00, 
2301.00, 
2302.00, 
2303.00, 
2304.00, 
2305.00, 
2306.00, 
2307.00, 
2308.00, 
2309.00, 
2310.00, 
2311.00, 
2312.00, 
2313.00, 
2314.00, 
2315.00, 
2316.00, 
2317.00, 
2318.00, 
2319.00, 
2320.00, 
2321.00, 
2322.00, 
2323.00, 
2324.00, 
2325.00, 
2326.00, 
2327.00, 
2328.00, 
2329.00, 
2330.00, 
2331.00, 
2332.00, 
2333.00, 
2334.00, 
2335.00, 
2336.00, 
2337.00, 
2338.00, 
2339.00, 
2340.00, 
2341.00, 
2342.00, 
2343.00, 
2344.00, 
2345.00, 
2346.00, 
2347.00, 
2348.00, 
2349.00, 
2350.00, 
2351.00, 
2352.00, 
2353.00, 
2354.00, 
2355.00, 
2356.00, 
2357.00, 
2358.00, 
2359.00, 
2360.00, 
2361.00, 
2362.00, 
2363.00, 
2364.00, 
2365.00, 
2366.00, 
2367.00, 
2368.00, 
2369.00, 
2370.00, 
2371.00, 
2372.00, 
2373.00, 
2374.00, 
2375.00, 
2376.00, 
2377.00, 
2378.00, 
2379.00, 
2380.00, 
2381.00, 
2382.00, 
2383.00, 
2384.00, 
2385.00, 
2386.00, 
2387.00, 
2388.00, 
2389.00, 
2390.00, 
2391.00, 
2392.00, 
2393.00, 
2394.00, 
2395.00, 
2396.00, 
2397.00, 
2398.00, 
2399.00, 
2400.00, 
2401.00, 
2402.00, 
2403.00, 
2404.00, 
2405.00, 
2406.00, 
2407.00, 
2408.00, 
2409.00, 
2410.00, 
2411.00, 
2412.00, 
2413.00, 
2414.00, 
2415.00, 
2416.00, 
2417.00, 
2418.00, 
2419.00, 
2420.00, 
2421.00, 
2422.00, 
2423.00, 
2424.00, 
2425.00, 
2426.00, 
2427.00, 
2428.00, 
2429.00, 
2430.00, 
2431.00, 
2432.00, 
2433.00, 
2434.00, 
2435.00, 
2436.00, 
2437.00, 
2438.00, 
2439.00, 
2440.00, 
2441.00, 
2442.00, 
2443.00, 
2444.00, 
2445.00, 
2446.00, 
2447.00, 
2448.00, 
2449.00, 
2450.00, 
2451.00, 
2452.00, 
2453.00, 
2454.00, 
2455.00, 
2456.00, 
2457.00, 
2458.00, 
2459.00, 
2460.00, 
2461.00, 
2462.00, 
2463.00, 
2464.00, 
2465.00, 
2466.00, 
2467.00, 
2468.00, 
2469.00, 
2470.00, 
2471.00, 
2472.00, 
2473.00, 
2474.00, 
2475.00, 
2476.00, 
2477.00, 
2478.00, 
2479.00, 
2480.00, 
2481.00, 
2482.00, 
2483.00, 
2484.00, 
2485.00, 
2486.00, 
2487.00, 
2488.00, 
2489.00, 
2490.00, 
2491.00, 
2492.00, 
2493.00, 
2494.00, 
2495.00, 
2496.00, 
2497.00, 
2498.00, 
2499.00, 
2500.00, 
2501.00, 
2502.00, 
2503.00, 
2504.00, 
2505.00, 
2506.00, 
2507.00, 
2508.00, 
2509.00, 
2510.00, 
2511.00, 
2512.00, 
2513.00, 
2514.00, 
2515.00, 
2516.00, 
2517.00, 
2518.00, 
2519.00, 
2520.00, 
2521.00, 
2522.00, 
2523.00, 
2524.00, 
2525.00, 
2526.00, 
2527.00, 
2528.00, 
2529.00, 
2530.00, 
2531.00, 
2532.00, 
2533.00, 
2534.00, 
2535.00, 
2536.00, 
2537.00, 
2538.00, 
2539.00, 
2540.00, 
2541.00, 
2542.00, 
2543.00, 
2544.00, 
2545.00, 
2546.00, 
2547.00, 
2548.00, 
2549.00, 
2550.00, 
2551.00, 
2552.00, 
2553.00, 
2554.00, 
2555.00, 
2556.00, 
2557.00, 
2558.00, 
2559.00, 
2560.00, 
2561.00, 
2562.00, 
2563.00, 
2564.00, 
2565.00, 
2566.00, 
2567.00, 
2568.00, 
2569.00, 
2570.00, 
2571.00, 
2572.00, 
2573.00, 
2574.00, 
2575.00, 
2576.00, 
2577.00, 
2578.00, 
2579.00, 
2580.00, 
2581.00, 
2582.00, 
2583.00, 
2584.00, 
2585.00, 
2586.00, 
2587.00, 
2588.00, 
2589.00, 
2590.00, 
2591.00, 
2592.00, 
2593.00, 
2594.00, 
2595.00, 
2596.00, 
2597.00, 
2598.00, 
2599.00, 
2600.00, 
