"2aP2 - RawData"
"Wavelength nm.","T%"
200.00,-0.000
201.00,0.002
202.00,0.001
203.00,0.002
204.00,0.002
205.00,0.000
206.00,0.004
207.00,0.000
208.00,0.003
209.00,0.003
210.00,0.002
211.00,0.001
212.00,0.001
213.00,0.001
214.00,-0.000
215.00,0.004
216.00,0.000
217.00,0.003
218.00,0.000
219.00,0.002
220.00,0.004
221.00,0.001
222.00,0.001
223.00,0.002
224.00,0.000
225.00,0.002
226.00,-0.000
227.00,0.002
228.00,-0.001
229.00,0.002
230.00,0.002
231.00,-0.000
232.00,0.001
233.00,0.002
234.00,0.001
235.00,0.002
236.00,0.001
237.00,0.002
238.00,0.002
239.00,0.001
240.00,0.002
241.00,-0.001
242.00,0.002
243.00,0.004
244.00,0.003
245.00,-0.001
246.00,0.000
247.00,-0.000
248.00,0.000
249.00,0.002
250.00,0.001
251.00,0.001
252.00,0.002
253.00,0.001
254.00,0.000
255.00,0.001
256.00,0.002
257.00,-0.001
258.00,0.000
259.00,-0.000
260.00,0.001
261.00,0.001
262.00,0.001
263.00,-0.001
264.00,0.001
265.00,0.002
266.00,0.000
267.00,0.001
268.00,0.002
269.00,0.001
270.00,0.000
271.00,0.001
272.00,0.000
273.00,0.000
274.00,0.001
275.00,0.002
276.00,0.001
277.00,0.000
278.00,0.001
279.00,0.000
280.00,0.000
281.00,0.001
282.00,0.001
283.00,0.000
284.00,0.001
285.00,-0.001
286.00,-0.000
287.00,0.001
288.00,-0.000
289.00,-0.000
290.00,0.001
291.00,0.000
292.00,-0.003
293.00,-0.001
294.00,-0.002
295.00,-0.001
296.00,0.000
297.00,0.000
298.00,0.002
299.00,0.003
300.00,0.004
301.00,0.002
302.00,0.005
303.00,0.006
304.00,0.011
305.00,0.015
306.00,0.024
307.00,0.039
308.00,0.057
309.00,0.093
310.00,0.124
311.00,0.174
312.00,0.228
313.00,0.313
314.00,0.412
315.00,0.540
316.00,0.678
317.00,0.865
318.00,1.061
319.00,1.304
320.00,1.577
321.00,1.898
322.00,2.246
323.00,2.633
324.00,3.065
325.00,3.475
326.00,3.909
327.00,4.424
328.00,4.943
329.00,5.459
330.00,6.009
331.00,6.555
332.00,7.125
333.00,7.662
334.00,8.285
335.00,8.868
336.00,9.437
337.00,10.001
338.00,10.582
339.00,11.085
340.00,11.635
341.00,12.171
342.00,12.677
343.00,13.118
344.00,13.556
345.00,14.059
346.00,14.453
347.00,14.802
348.00,15.171
349.00,15.499
350.00,15.844
351.00,16.127
352.00,16.395
353.00,16.675
354.00,16.896
355.00,17.162
356.00,17.341
357.00,17.549
358.00,17.704
359.00,17.914
360.00,18.113
361.00,18.203
362.00,18.367
363.00,18.475
364.00,18.537
365.00,18.598
366.00,18.664
367.00,18.759
368.00,18.783
369.00,18.834
370.00,18.877
371.00,18.892
372.00,18.877
373.00,18.845
374.00,18.911
375.00,18.891
376.00,18.836
377.00,18.769
378.00,18.744
379.00,18.654
380.00,18.645
381.00,18.640
382.00,18.629
383.00,18.592
384.00,18.628
385.00,18.654
386.00,18.653
387.00,18.685
388.00,18.758
389.00,18.710
390.00,18.727
391.00,18.725
392.00,18.759
393.00,18.771
394.00,18.757
395.00,18.790
396.00,18.791
397.00,18.748
398.00,18.758
399.00,18.762
400.00,18.787
401.00,18.765
402.00,18.740
403.00,18.766
404.00,18.797
405.00,18.760
406.00,18.745
407.00,18.697
408.00,18.722
409.00,18.643
410.00,18.590
411.00,18.602
412.00,18.570
413.00,18.611
414.00,18.582
415.00,18.590
416.00,18.654
417.00,18.640
418.00,18.658
419.00,18.727
420.00,18.776
421.00,18.817
422.00,18.839
423.00,18.882
424.00,18.915
425.00,18.940
426.00,18.972
427.00,19.022
428.00,19.070
429.00,19.087
430.00,19.166
431.00,19.220
432.00,19.259
433.00,19.344
434.00,19.391
435.00,19.455
436.00,19.507
437.00,19.579
438.00,19.674
439.00,19.722
440.00,19.814
441.00,19.875
442.00,19.957
443.00,20.066
444.00,20.193
445.00,20.237
446.00,20.344
447.00,20.456
448.00,20.541
449.00,20.660
450.00,20.762
451.00,20.852
452.00,20.953
453.00,21.079
454.00,21.175
455.00,21.293
456.00,21.409
457.00,21.536
458.00,21.622
459.00,21.777
460.00,21.913
461.00,22.033
462.00,22.153
463.00,22.287
464.00,22.416
465.00,22.559
466.00,22.711
467.00,22.828
468.00,22.910
469.00,23.069
470.00,23.176
471.00,23.296
472.00,23.420
473.00,23.521
474.00,23.658
475.00,23.792
476.00,23.876
477.00,23.987
478.00,24.126
479.00,24.309
480.00,24.448
481.00,24.564
482.00,24.741
483.00,24.873
484.00,25.036
485.00,25.215
486.00,25.401
487.00,25.555
488.00,25.702
489.00,25.881
490.00,26.051
491.00,26.144
492.00,26.393
493.00,26.533
494.00,26.503
495.00,26.688
496.00,26.868
497.00,26.935
498.00,27.081
499.00,27.232
500.00,27.384
501.00,27.551
502.00,27.704
503.00,27.820
504.00,27.883
505.00,28.050
506.00,28.130
507.00,28.230
508.00,28.372
509.00,28.541
510.00,28.679
511.00,28.793
512.00,28.957
513.00,29.036
514.00,29.195
515.00,29.272
516.00,29.465
517.00,29.548
518.00,29.676
519.00,29.769
520.00,29.828
521.00,29.959
522.00,30.004
523.00,30.018
524.00,30.213
525.00,30.353
526.00,30.446
527.00,30.534
528.00,30.578
529.00,30.781
530.00,30.934
531.00,31.025
532.00,31.114
533.00,31.219
534.00,31.307
535.00,31.388
536.00,31.494
537.00,31.579
538.00,31.647
539.00,31.723
540.00,31.856
541.00,31.866
542.00,31.876
543.00,31.995
544.00,32.062
545.00,32.181
546.00,32.207
547.00,32.343
548.00,32.448
549.00,32.493
550.00,32.570
551.00,32.659
552.00,32.740
553.00,32.740
554.00,32.829
555.00,32.886
556.00,32.932
557.00,33.011
558.00,33.126
559.00,33.182
560.00,33.232
561.00,33.326
562.00,33.332
563.00,33.408
564.00,33.483
565.00,33.502
566.00,33.536
567.00,33.584
568.00,33.656
569.00,33.674
570.00,33.748
571.00,33.789
572.00,33.819
573.00,33.818
574.00,33.883
575.00,33.884
576.00,33.961
577.00,34.021
578.00,34.080
579.00,34.127
580.00,34.139
581.00,34.318
582.00,34.395
583.00,34.384
584.00,34.497
585.00,34.583
586.00,34.645
587.00,34.700
588.00,34.664
589.00,34.680
590.00,34.813
591.00,34.852
592.00,34.953
593.00,34.922
594.00,34.972
595.00,35.064
596.00,35.021
597.00,35.076
598.00,35.217
599.00,35.237
600.00,35.348
601.00,35.366
602.00,35.349
603.00,35.246
604.00,35.444
605.00,35.616
606.00,35.563
607.00,35.673
608.00,35.764
609.00,35.879
610.00,35.695
611.00,35.846
612.00,35.842
613.00,35.889
614.00,35.904
615.00,36.071
616.00,36.161
617.00,36.212
618.00,36.196
619.00,36.283
620.00,36.343
621.00,36.432
622.00,36.492
623.00,36.528
624.00,36.651
625.00,36.736
626.00,36.791
627.00,36.834
628.00,36.859
629.00,36.936
630.00,36.994
631.00,37.055
632.00,37.175
633.00,37.307
634.00,37.385
635.00,37.506
636.00,37.562
637.00,37.596
638.00,37.650
639.00,37.840
640.00,37.834
641.00,37.924
642.00,38.003
643.00,38.129
644.00,38.255
645.00,38.356
646.00,38.408
647.00,38.541
648.00,38.518
649.00,38.531
650.00,38.657
651.00,38.851
652.00,38.919
653.00,38.910
654.00,39.085
655.00,39.201
656.00,39.500
657.00,39.340
658.00,39.527
659.00,39.610
660.00,39.658
661.00,39.656
662.00,39.865
663.00,39.988
664.00,40.224
665.00,40.434
666.00,40.354
667.00,40.530
668.00,40.634
669.00,40.801
670.00,41.046
671.00,40.913
672.00,41.144
673.00,41.196
674.00,41.216
675.00,41.476
676.00,41.631
677.00,41.757
678.00,41.486
679.00,41.724
680.00,41.945
681.00,42.170
682.00,42.027
683.00,42.037
684.00,42.186
685.00,42.575
686.00,42.749
687.00,42.712
688.00,42.786
689.00,42.808
690.00,43.050
691.00,43.324
692.00,43.156
693.00,43.266
694.00,43.526
695.00,43.680
696.00,43.689
697.00,43.688
698.00,43.836
699.00,44.021
700.00,44.089
701.00,44.137
702.00,44.263
703.00,44.549
704.00,44.544
705.00,44.503
706.00,44.668
707.00,44.676
708.00,44.812
709.00,45.303
710.00,45.088
711.00,45.089
712.00,45.193
713.00,45.396
714.00,45.475
715.00,45.462
716.00,45.482
717.00,45.722
718.00,45.915
719.00,45.822
720.00,45.879
721.00,50.299
722.00,50.443
723.00,50.422
724.00,50.407
725.00,50.577
726.00,50.558
727.00,50.631
728.00,50.641
729.00,50.635
730.00,50.755
731.00,50.768
732.00,50.860
733.00,50.924
734.00,51.010
735.00,51.029
736.00,50.967
737.00,51.108
738.00,51.202
739.00,51.177
740.00,51.282
741.00,51.322
742.00,51.494
743.00,51.417
744.00,51.476
745.00,51.492
746.00,51.450
747.00,51.504
748.00,51.526
749.00,51.538
750.00,51.533
751.00,51.588
752.00,51.651
753.00,51.700
754.00,51.666
755.00,51.653
756.00,51.729
757.00,51.792
758.00,51.811
759.00,51.844
760.00,51.845
761.00,51.870
762.00,51.861
763.00,51.975
764.00,51.959
765.00,52.007
766.00,52.031
767.00,52.038
768.00,52.073
769.00,52.088
770.00,52.154
771.00,52.194
772.00,52.210
773.00,52.167
774.00,52.212
775.00,52.266
776.00,52.210
777.00,52.256
778.00,52.263
779.00,52.345
780.00,52.301
781.00,52.270
782.00,52.358
783.00,52.326
784.00,52.412
785.00,52.294
786.00,52.358
787.00,52.325
788.00,52.353
789.00,52.308
790.00,52.317
791.00,52.453
792.00,52.329
793.00,52.349
794.00,52.374
795.00,52.345
796.00,52.453
797.00,52.355
798.00,52.400
799.00,52.423
800.00,52.314
801.00,52.387
802.00,52.386
803.00,52.358
804.00,52.332
805.00,52.319
806.00,52.289
807.00,52.344
808.00,52.362
809.00,52.296
810.00,52.211
811.00,52.329
812.00,52.372
813.00,52.217
814.00,52.302
815.00,52.315
816.00,52.296
817.00,52.271
818.00,52.224
819.00,52.188
820.00,52.134
821.00,52.203
822.00,52.249
823.00,52.136
824.00,52.212
825.00,52.144
826.00,52.170
827.00,52.246
828.00,52.124
829.00,52.096
830.00,52.131
831.00,54.266
832.00,54.329
833.00,54.248
834.00,54.280
835.00,54.263
836.00,54.268
837.00,54.218
838.00,54.237
839.00,54.180
840.00,54.137
841.00,54.213
842.00,54.134
843.00,54.174
844.00,54.153
845.00,54.082
846.00,54.145
847.00,54.078
848.00,54.080
849.00,54.010
850.00,53.996
851.00,53.927
852.00,53.989
853.00,53.943
854.00,53.903
855.00,53.856
856.00,53.884
857.00,53.838
858.00,53.820
859.00,53.735
860.00,53.787
861.00,53.820
862.00,53.727
863.00,53.762
864.00,53.741
865.00,53.723
866.00,53.704
867.00,53.739
868.00,53.696
869.00,53.705
870.00,53.685
871.00,53.700
872.00,53.683
873.00,53.644
874.00,53.696
875.00,53.621
876.00,53.649
877.00,53.756
878.00,53.651
879.00,53.614
880.00,53.619
881.00,53.586
882.00,53.659
883.00,53.572
884.00,53.503
885.00,53.502
886.00,53.475
887.00,53.445
888.00,53.460
889.00,53.371
890.00,53.423
891.00,53.409
892.00,53.371
893.00,53.346
894.00,53.387
895.00,53.339
896.00,53.318
897.00,53.317
898.00,53.306
899.00,53.308
900.00,53.281
901.00,53.247
902.00,53.270
903.00,53.249
904.00,53.238
905.00,53.229
906.00,53.228
907.00,53.201
908.00,53.148
909.00,53.125
910.00,53.116
911.00,53.147
912.00,53.093
913.00,53.090
914.00,53.074
915.00,53.029
916.00,52.946
917.00,53.076
918.00,52.994
919.00,52.916
920.00,52.913
921.00,52.911
922.00,52.890
923.00,52.876
924.00,52.821
925.00,52.849
926.00,52.835
927.00,52.804
928.00,52.775
929.00,52.802
930.00,52.779
931.00,52.763
932.00,52.805
933.00,52.736
934.00,52.712
935.00,52.687
936.00,52.648
937.00,52.645
938.00,52.633
939.00,52.628
940.00,52.577
941.00,52.588
942.00,52.551
943.00,52.526
944.00,52.496
945.00,52.503
946.00,52.497
947.00,52.459
948.00,52.467
949.00,52.422
950.00,52.420
951.00,52.390
952.00,52.367
953.00,52.320
954.00,52.312
955.00,52.264
956.00,52.270
957.00,52.219
958.00,52.247
959.00,52.186
960.00,52.171
961.00,52.184
962.00,52.181
963.00,52.131
964.00,52.144
965.00,52.136
966.00,52.115
967.00,52.094
968.00,52.062
969.00,52.106
970.00,52.068
971.00,52.083
972.00,52.070
973.00,52.102
974.00,52.120
975.00,52.104
976.00,52.107
977.00,52.072
978.00,52.199
979.00,52.080
980.00,52.103
981.00,52.091
982.00,52.049
983.00,52.062
984.00,52.034
985.00,52.051
986.00,52.022
987.00,52.054
988.00,52.012
989.00,52.000
990.00,52.001
991.00,51.985
992.00,51.994
993.00,51.966
994.00,51.946
995.00,51.951
996.00,51.924
997.00,51.918
998.00,51.889
999.00,51.914
1000.00,51.858
1001.00,51.855
1002.00,51.871
1003.00,51.870
1004.00,51.827
1005.00,51.806
1006.00,51.828
1007.00,51.776
1008.00,51.782
1009.00,51.746
1010.00,51.750
1011.00,51.759
1012.00,51.712
1013.00,51.728
1014.00,51.683
1015.00,51.695
1016.00,51.660
1017.00,51.665
1018.00,51.647
1019.00,51.618
1020.00,51.616
1021.00,51.594
1022.00,51.603
1023.00,51.535
1024.00,51.553
1025.00,51.542
1026.00,51.514
1027.00,51.493
1028.00,51.489
1029.00,51.463
1030.00,51.434
1031.00,51.456
1032.00,51.408
1033.00,51.415
1034.00,51.373
1035.00,51.354
1036.00,51.341
1037.00,51.308
1038.00,51.317
1039.00,51.279
1040.00,51.255
1041.00,51.230
1042.00,51.227
1043.00,51.220
1044.00,51.248
1045.00,51.227
1046.00,51.227
1047.00,51.250
1048.00,51.248
1049.00,51.259
1050.00,51.257
1051.00,51.331
1052.00,51.308
1053.00,51.293
1054.00,51.304
1055.00,51.324
1056.00,51.317
1057.00,51.314
1058.00,51.299
1059.00,51.276
1060.00,51.307
1061.00,51.270
1062.00,51.256
1063.00,51.269
1064.00,51.279
1065.00,51.259
1066.00,51.254
1067.00,51.241
1068.00,51.273
1069.00,51.237
1070.00,51.208
1071.00,51.204
1072.00,51.219
1073.00,51.177
1074.00,51.179
1075.00,51.166
1076.00,51.184
1077.00,51.169
1078.00,51.132
1079.00,51.154
1080.00,51.153
1081.00,51.117
1082.00,51.121
1083.00,51.111
1084.00,51.090
1085.00,51.101
1086.00,51.072
1087.00,51.081
1088.00,51.057
1089.00,51.059
1090.00,51.057
1091.00,51.070
1092.00,51.043
1093.00,51.029
1094.00,51.014
1095.00,51.007
1096.00,50.996
1097.00,50.984
1098.00,50.979
1099.00,50.978
1100.00,50.942
1101.00,50.953
1102.00,50.943
1103.00,50.940
1104.00,50.933
1105.00,50.922
1106.00,50.907
1107.00,50.899
1108.00,50.877
1109.00,50.865
1110.00,50.852
1111.00,50.838
1112.00,50.832
1113.00,50.837
1114.00,50.816
1115.00,50.835
1116.00,50.823
1117.00,50.804
1118.00,50.801
1119.00,50.794
1120.00,50.779
1121.00,50.772
1122.00,50.760
1123.00,50.756
1124.00,50.760
1125.00,50.743
1126.00,50.734
1127.00,50.734
1128.00,50.706
1129.00,50.714
1130.00,50.715
1131.00,50.701
1132.00,50.683
1133.00,50.681
1134.00,50.679
1135.00,50.673
1136.00,50.659
1137.00,50.661
1138.00,50.653
1139.00,50.657
1140.00,50.654
1141.00,50.639
1142.00,50.635
1143.00,50.652
1144.00,50.607
1145.00,50.616
1146.00,50.613
1147.00,50.589
1148.00,50.601
1149.00,50.628
1150.00,50.623
1151.00,50.632
1152.00,50.611
1153.00,50.616
1154.00,50.605
1155.00,50.593
1156.00,50.591
1157.00,50.595
1158.00,50.566
1159.00,50.581
1160.00,50.579
1161.00,50.563
1162.00,50.570
1163.00,50.569
1164.00,50.583
1165.00,50.574
1166.00,50.568
1167.00,50.556
1168.00,50.578
1169.00,50.555
1170.00,50.557
1171.00,50.541
1172.00,50.542
1173.00,50.556
1174.00,50.540
1175.00,50.541
1176.00,50.547
1177.00,50.513
1178.00,50.528
1179.00,50.542
1180.00,50.511
1181.00,50.550
1182.00,50.537
1183.00,50.536
1184.00,50.534
1185.00,50.533
1186.00,50.531
1187.00,50.541
1188.00,50.523
1189.00,50.521
1190.00,50.502
1191.00,50.497
1192.00,50.524
1193.00,50.507
1194.00,50.503
1195.00,50.485
1196.00,50.505
1197.00,50.508
1198.00,50.496
1199.00,50.489
1200.00,50.503
1201.00,50.530
1202.00,50.490
1203.00,50.500
1204.00,50.484
1205.00,50.501
1206.00,50.496
1207.00,50.491
1208.00,50.485
1209.00,50.483
1210.00,50.472
1211.00,50.478
1212.00,50.507
1213.00,50.449
1214.00,50.488
1215.00,50.472
1216.00,50.456
1217.00,50.462
1218.00,50.460
1219.00,50.478
1220.00,50.456
1221.00,50.468
1222.00,50.466
1223.00,50.477
1224.00,50.463
1225.00,50.461
1226.00,50.477
1227.00,50.449
1228.00,50.475
1229.00,50.490
1230.00,50.500
1231.00,50.496
1232.00,50.537
1233.00,50.526
1234.00,50.515
1235.00,50.513
1236.00,50.524
1237.00,50.527
1238.00,50.510
1239.00,50.525
1240.00,50.501
1241.00,50.515
1242.00,50.524
1243.00,50.521
1244.00,50.520
1245.00,50.552
1246.00,50.535
1247.00,50.524
1248.00,50.522
1249.00,50.524
1250.00,50.541
1251.00,50.532
1252.00,50.565
1253.00,50.553
1254.00,50.547
1255.00,50.540
1256.00,50.525
1257.00,50.513
1258.00,50.567
1259.00,50.557
1260.00,50.574
1261.00,50.576
1262.00,50.544
1263.00,50.552
1264.00,50.549
1265.00,50.547
1266.00,50.552
1267.00,50.590
1268.00,50.574
1269.00,50.578
1270.00,50.581
1271.00,50.584
1272.00,50.595
1273.00,50.609
1274.00,50.619
1275.00,50.637
1276.00,50.614
1277.00,50.623
1278.00,50.641
1279.00,50.628
1280.00,50.626
1281.00,50.639
1282.00,50.637
1283.00,50.641
1284.00,50.642
1285.00,50.645
1286.00,50.653
1287.00,50.641
1288.00,50.652
1289.00,50.641
1290.00,50.658
1291.00,50.673
1292.00,50.668
1293.00,50.659
1294.00,50.684
1295.00,50.688
1296.00,50.699
1297.00,50.706
1298.00,50.731
1299.00,50.703
1300.00,50.744
1301.00,50.722
1302.00,50.755
1303.00,50.745
1304.00,50.719
1305.00,50.757
1306.00,50.756
1307.00,50.753
1308.00,50.764
1309.00,50.764
1310.00,50.778
1311.00,50.754
1312.00,50.760
1313.00,50.796
1314.00,50.778
1315.00,50.776
1316.00,50.781
1317.00,50.803
1318.00,50.799
1319.00,50.806
1320.00,50.818
1321.00,50.996
1322.00,50.970
1323.00,50.956
1324.00,50.948
1325.00,50.954
1326.00,50.973
1327.00,50.931
1328.00,50.952
1329.00,50.961
1330.00,50.973
1331.00,50.959
1332.00,50.956
1333.00,50.948
1334.00,50.988
1335.00,51.000
1336.00,51.014
1337.00,51.054
1338.00,51.098
1339.00,51.146
1340.00,51.213
1341.00,51.291
1342.00,51.330
1343.00,51.389
1344.00,51.439
1345.00,51.501
1346.00,51.539
1347.00,51.564
1348.00,51.591
1349.00,51.599
1350.00,51.608
1351.00,51.622
1352.00,51.631
1353.00,51.633
1354.00,51.628
1355.00,51.552
1356.00,51.651
1357.00,51.624
1358.00,51.682
1359.00,51.699
1360.00,51.767
1361.00,51.773
1362.00,51.559
1363.00,51.739
1364.00,51.772
1365.00,51.662
1366.00,51.762
1367.00,51.704
1368.00,51.586
1369.00,51.667
1370.00,51.651
1371.00,51.831
1372.00,51.607
1373.00,51.652
1374.00,51.654
1375.00,51.633
1376.00,51.627
1377.00,51.611
1378.00,51.625
1379.00,51.686
1380.00,51.646
1381.00,51.699
1382.00,51.600
1383.00,51.629
1384.00,51.597
1385.00,51.599
1386.00,51.657
1387.00,51.579
1388.00,51.577
1389.00,51.615
1390.00,51.653
1391.00,51.588
1392.00,51.597
1393.00,51.615
1394.00,51.647
1395.00,51.640
1396.00,51.567
1397.00,51.601
1398.00,51.674
1399.00,51.633
1400.00,51.571
1401.00,51.596
1402.00,51.705
1403.00,51.676
1404.00,51.620
1405.00,51.667
1406.00,51.657
1407.00,51.672
1408.00,51.702
1409.00,51.647
1410.00,51.697
1411.00,51.664
1412.00,51.748
1413.00,51.688
1414.00,51.693
1415.00,51.740
1416.00,51.757
1417.00,51.791
1418.00,51.759
1419.00,51.772
1420.00,51.791
1421.00,51.831
1422.00,51.809
1423.00,51.834
1424.00,51.830
1425.00,51.859
1426.00,51.834
1427.00,51.857
1428.00,51.857
1429.00,51.894
1430.00,51.892
1431.00,51.920
1432.00,51.925
1433.00,51.936
1434.00,51.942
1435.00,51.977
1436.00,51.991
1437.00,51.972
1438.00,51.987
1439.00,52.019
1440.00,52.032
1441.00,52.035
1442.00,52.046
1443.00,52.077
1444.00,52.125
1445.00,52.080
1446.00,52.119
1447.00,52.153
1448.00,52.191
1449.00,52.178
1450.00,52.197
1451.00,52.212
1452.00,52.208
1453.00,52.231
1454.00,52.254
1455.00,52.255
1456.00,52.271
1457.00,52.261
1458.00,52.296
1459.00,52.307
1460.00,52.337
1461.00,52.332
1462.00,52.361
1463.00,52.388
1464.00,52.390
1465.00,52.402
1466.00,52.398
1467.00,52.425
1468.00,52.471
1469.00,52.442
1470.00,52.455
1471.00,52.465
1472.00,52.463
1473.00,52.485
1474.00,52.521
1475.00,52.553
1476.00,52.555
1477.00,52.542
1478.00,52.589
1479.00,52.590
1480.00,52.591
1481.00,52.592
1482.00,52.623
1483.00,52.641
1484.00,52.646
1485.00,52.632
1486.00,52.645
1487.00,52.675
1488.00,52.703
1489.00,52.692
1490.00,52.726
1491.00,52.745
1492.00,52.767
1493.00,52.747
1494.00,52.782
1495.00,52.771
1496.00,52.788
1497.00,52.776
1498.00,52.796
1499.00,52.797
1500.00,52.820
1501.00, 
1502.00, 
1503.00, 
1504.00, 
1505.00, 
1506.00, 
1507.00, 
1508.00, 
1509.00, 
1510.00, 
1511.00, 
1512.00, 
1513.00, 
1514.00, 
1515.00, 
1516.00, 
1517.00, 
1518.00, 
1519.00, 
1520.00, 
1521.00, 
1522.00, 
1523.00, 
1524.00, 
1525.00, 
1526.00, 
1527.00, 
1528.00, 
1529.00, 
1530.00, 
1531.00, 
1532.00, 
1533.00, 
1534.00, 
1535.00, 
1536.00, 
1537.00, 
1538.00, 
1539.00, 
1540.00, 
1541.00, 
1542.00, 
1543.00, 
1544.00, 
1545.00, 
1546.00, 
1547.00, 
1548.00, 
1549.00, 
1550.00, 
1551.00, 
1552.00, 
1553.00, 
1554.00, 
1555.00, 
1556.00, 
1557.00, 
1558.00, 
1559.00, 
1560.00, 
1561.00, 
1562.00, 
1563.00, 
1564.00, 
1565.00, 
1566.00, 
1567.00, 
1568.00, 
1569.00, 
1570.00, 
1571.00, 
1572.00, 
1573.00, 
1574.00, 
1575.00, 
1576.00, 
1577.00, 
1578.00, 
1579.00, 
1580.00, 
1581.00, 
1582.00, 
1583.00, 
1584.00, 
1585.00, 
1586.00, 
1587.00, 
1588.00, 
1589.00, 
1590.00, 
1591.00, 
1592.00, 
1593.00, 
1594.00, 
1595.00, 
1596.00, 
1597.00, 
1598.00, 
1599.00, 
1600.00, 
1601.00, 
1602.00, 
1603.00, 
1604.00, 
1605.00, 
1606.00, 
1607.00, 
1608.00, 
1609.00, 
1610.00, 
1611.00, 
1612.00, 
1613.00, 
1614.00, 
1615.00, 
1616.00, 
1617.00, 
1618.00, 
1619.00, 
1620.00, 
1621.00, 
1622.00, 
1623.00, 
1624.00, 
1625.00, 
1626.00, 
1627.00, 
1628.00, 
1629.00, 
1630.00, 
1631.00, 
1632.00, 
1633.00, 
1634.00, 
1635.00, 
1636.00, 
1637.00, 
1638.00, 
1639.00, 
1640.00, 
1641.00, 
1642.00, 
1643.00, 
1644.00, 
1645.00, 
1646.00, 
1647.00, 
1648.00, 
1649.00, 
1650.00, 
1651.00, 
1652.00, 
1653.00, 
1654.00, 
1655.00, 
1656.00, 
1657.00, 
1658.00, 
1659.00, 
1660.00, 
1661.00, 
1662.00, 
1663.00, 
1664.00, 
1665.00, 
1666.00, 
1667.00, 
1668.00, 
1669.00, 
1670.00, 
1671.00, 
1672.00, 
1673.00, 
1674.00, 
1675.00, 
1676.00, 
1677.00, 
1678.00, 
1679.00, 
1680.00, 
1681.00, 
1682.00, 
1683.00, 
1684.00, 
1685.00, 
1686.00, 
1687.00, 
1688.00, 
1689.00, 
1690.00, 
1691.00, 
1692.00, 
1693.00, 
1694.00, 
1695.00, 
1696.00, 
1697.00, 
1698.00, 
1699.00, 
1700.00, 
1701.00, 
1702.00, 
1703.00, 
1704.00, 
1705.00, 
1706.00, 
1707.00, 
1708.00, 
1709.00, 
1710.00, 
1711.00, 
1712.00, 
1713.00, 
1714.00, 
1715.00, 
1716.00, 
1717.00, 
1718.00, 
1719.00, 
1720.00, 
1721.00, 
1722.00, 
1723.00, 
1724.00, 
1725.00, 
1726.00, 
1727.00, 
1728.00, 
1729.00, 
1730.00, 
1731.00, 
1732.00, 
1733.00, 
1734.00, 
1735.00, 
1736.00, 
1737.00, 
1738.00, 
1739.00, 
1740.00, 
1741.00, 
1742.00, 
1743.00, 
1744.00, 
1745.00, 
1746.00, 
1747.00, 
1748.00, 
1749.00, 
1750.00, 
1751.00, 
1752.00, 
1753.00, 
1754.00, 
1755.00, 
1756.00, 
1757.00, 
1758.00, 
1759.00, 
1760.00, 
1761.00, 
1762.00, 
1763.00, 
1764.00, 
1765.00, 
1766.00, 
1767.00, 
1768.00, 
1769.00, 
1770.00, 
1771.00, 
1772.00, 
1773.00, 
1774.00, 
1775.00, 
1776.00, 
1777.00, 
1778.00, 
1779.00, 
1780.00, 
1781.00, 
1782.00, 
1783.00, 
1784.00, 
1785.00, 
1786.00, 
1787.00, 
1788.00, 
1789.00, 
1790.00, 
1791.00, 
1792.00, 
1793.00, 
1794.00, 
1795.00, 
1796.00, 
1797.00, 
1798.00, 
1799.00, 
1800.00, 
1801.00, 
1802.00, 
1803.00, 
1804.00, 
1805.00, 
1806.00, 
1807.00, 
1808.00, 
1809.00, 
1810.00, 
1811.00, 
1812.00, 
1813.00, 
1814.00, 
1815.00, 
1816.00, 
1817.00, 
1818.00, 
1819.00, 
1820.00, 
1821.00, 
1822.00, 
1823.00, 
1824.00, 
1825.00, 
1826.00, 
1827.00, 
1828.00, 
1829.00, 
1830.00, 
1831.00, 
1832.00, 
1833.00, 
1834.00, 
1835.00, 
1836.00, 
1837.00, 
1838.00, 
1839.00, 
1840.00, 
1841.00, 
1842.00, 
1843.00, 
1844.00, 
1845.00, 
1846.00, 
1847.00, 
1848.00, 
1849.00, 
1850.00, 
1851.00, 
1852.00, 
1853.00, 
1854.00, 
1855.00, 
1856.00, 
1857.00, 
1858.00, 
1859.00, 
1860.00, 
1861.00, 
1862.00, 
1863.00, 
1864.00, 
1865.00, 
1866.00, 
1867.00, 
1868.00, 
1869.00, 
1870.00, 
1871.00, 
1872.00, 
1873.00, 
1874.00, 
1875.00, 
1876.00, 
1877.00, 
1878.00, 
1879.00, 
1880.00, 
1881.00, 
1882.00, 
1883.00, 
1884.00, 
1885.00, 
1886.00, 
1887.00, 
1888.00, 
1889.00, 
1890.00, 
1891.00, 
1892.00, 
1893.00, 
1894.00, 
1895.00, 
1896.00, 
1897.00, 
1898.00, 
1899.00, 
1900.00, 
1901.00, 
1902.00, 
1903.00, 
1904.00, 
1905.00, 
1906.00, 
1907.00, 
1908.00, 
1909.00, 
1910.00, 
1911.00, 
1912.00, 
1913.00, 
1914.00, 
1915.00, 
1916.00, 
1917.00, 
1918.00, 
1919.00, 
1920.00, 
1921.00, 
1922.00, 
1923.00, 
1924.00, 
1925.00, 
1926.00, 
1927.00, 
1928.00, 
1929.00, 
1930.00, 
1931.00, 
1932.00, 
1933.00, 
1934.00, 
1935.00, 
1936.00, 
1937.00, 
1938.00, 
1939.00, 
1940.00, 
1941.00, 
1942.00, 
1943.00, 
1944.00, 
1945.00, 
1946.00, 
1947.00, 
1948.00, 
1949.00, 
1950.00, 
1951.00, 
1952.00, 
1953.00, 
1954.00, 
1955.00, 
1956.00, 
1957.00, 
1958.00, 
1959.00, 
1960.00, 
1961.00, 
1962.00, 
1963.00, 
1964.00, 
1965.00, 
1966.00, 
1967.00, 
1968.00, 
1969.00, 
1970.00, 
1971.00, 
1972.00, 
1973.00, 
1974.00, 
1975.00, 
1976.00, 
1977.00, 
1978.00, 
1979.00, 
1980.00, 
1981.00, 
1982.00, 
1983.00, 
1984.00, 
1985.00, 
1986.00, 
1987.00, 
1988.00, 
1989.00, 
1990.00, 
1991.00, 
1992.00, 
1993.00, 
1994.00, 
1995.00, 
1996.00, 
1997.00, 
1998.00, 
1999.00, 
2000.00, 
2001.00, 
2002.00, 
2003.00, 
2004.00, 
2005.00, 
2006.00, 
2007.00, 
2008.00, 
2009.00, 
2010.00, 
2011.00, 
2012.00, 
2013.00, 
2014.00, 
2015.00, 
2016.00, 
2017.00, 
2018.00, 
2019.00, 
2020.00, 
2021.00, 
2022.00, 
2023.00, 
2024.00, 
2025.00, 
2026.00, 
2027.00, 
2028.00, 
2029.00, 
2030.00, 
2031.00, 
2032.00, 
2033.00, 
2034.00, 
2035.00, 
2036.00, 
2037.00, 
2038.00, 
2039.00, 
2040.00, 
2041.00, 
2042.00, 
2043.00, 
2044.00, 
2045.00, 
2046.00, 
2047.00, 
2048.00, 
2049.00, 
2050.00, 
2051.00, 
2052.00, 
2053.00, 
2054.00, 
2055.00, 
2056.00, 
2057.00, 
2058.00, 
2059.00, 
2060.00, 
2061.00, 
2062.00, 
2063.00, 
2064.00, 
2065.00, 
2066.00, 
2067.00, 
2068.00, 
2069.00, 
2070.00, 
2071.00, 
2072.00, 
2073.00, 
2074.00, 
2075.00, 
2076.00, 
2077.00, 
2078.00, 
2079.00, 
2080.00, 
2081.00, 
2082.00, 
2083.00, 
2084.00, 
2085.00, 
2086.00, 
2087.00, 
2088.00, 
2089.00, 
2090.00, 
2091.00, 
2092.00, 
2093.00, 
2094.00, 
2095.00, 
2096.00, 
2097.00, 
2098.00, 
2099.00, 
2100.00, 
2101.00, 
2102.00, 
2103.00, 
2104.00, 
2105.00, 
2106.00, 
2107.00, 
2108.00, 
2109.00, 
2110.00, 
2111.00, 
2112.00, 
2113.00, 
2114.00, 
2115.00, 
2116.00, 
2117.00, 
2118.00, 
2119.00, 
2120.00, 
2121.00, 
2122.00, 
2123.00, 
2124.00, 
2125.00, 
2126.00, 
2127.00, 
2128.00, 
2129.00, 
2130.00, 
2131.00, 
2132.00, 
2133.00, 
2134.00, 
2135.00, 
2136.00, 
2137.00, 
2138.00, 
2139.00, 
2140.00, 
2141.00, 
2142.00, 
2143.00, 
2144.00, 
2145.00, 
2146.00, 
2147.00, 
2148.00, 
2149.00, 
2150.00, 
2151.00, 
2152.00, 
2153.00, 
2154.00, 
2155.00, 
2156.00, 
2157.00, 
2158.00, 
2159.00, 
2160.00, 
2161.00, 
2162.00, 
2163.00, 
2164.00, 
2165.00, 
2166.00, 
2167.00, 
2168.00, 
2169.00, 
2170.00, 
2171.00, 
2172.00, 
2173.00, 
2174.00, 
2175.00, 
2176.00, 
2177.00, 
2178.00, 
2179.00, 
2180.00, 
2181.00, 
2182.00, 
2183.00, 
2184.00, 
2185.00, 
2186.00, 
2187.00, 
2188.00, 
2189.00, 
2190.00, 
2191.00, 
2192.00, 
2193.00, 
2194.00, 
2195.00, 
2196.00, 
2197.00, 
2198.00, 
2199.00, 
2200.00, 
2201.00, 
2202.00, 
2203.00, 
2204.00, 
2205.00, 
2206.00, 
2207.00, 
2208.00, 
2209.00, 
2210.00, 
2211.00, 
2212.00, 
2213.00, 
2214.00, 
2215.00, 
2216.00, 
2217.00, 
2218.00, 
2219.00, 
2220.00, 
2221.00, 
2222.00, 
2223.00, 
2224.00, 
2225.00, 
2226.00, 
2227.00, 
2228.00, 
2229.00, 
2230.00, 
2231.00, 
2232.00, 
2233.00, 
2234.00, 
2235.00, 
2236.00, 
2237.00, 
2238.00, 
2239.00, 
2240.00, 
2241.00, 
2242.00, 
2243.00, 
2244.00, 
2245.00, 
2246.00, 
2247.00, 
2248.00, 
2249.00, 
2250.00, 
2251.00, 
2252.00, 
2253.00, 
2254.00, 
2255.00, 
2256.00, 
2257.00, 
2258.00, 
2259.00, 
2260.00, 
2261.00, 
2262.00, 
2263.00, 
2264.00, 
2265.00, 
2266.00, 
2267.00, 
2268.00, 
2269.00, 
2270.00, 
2271.00, 
2272.00, 
2273.00, 
2274.00, 
2275.00, 
2276.00, 
2277.00, 
2278.00, 
2279.00, 
2280.00, 
2281.00, 
2282.00, 
2283.00, 
2284.00, 
2285.00, 
2286.00, 
2287.00, 
2288.00, 
2289.00, 
2290.00, 
2291.00, 
2292.00, 
2293.00, 
2294.00, 
2295.00, 
2296.00, 
2297.00, 
2298.00, 
2299.00, 
2300.00, 
2301.00, 
2302.00, 
2303.00, 
2304.00, 
2305.00, 
2306.00, 
2307.00, 
2308.00, 
2309.00, 
2310.00, 
2311.00, 
2312.00, 
2313.00, 
2314.00, 
2315.00, 
2316.00, 
2317.00, 
2318.00, 
2319.00, 
2320.00, 
2321.00, 
2322.00, 
2323.00, 
2324.00, 
2325.00, 
2326.00, 
2327.00, 
2328.00, 
2329.00, 
2330.00, 
2331.00, 
2332.00, 
2333.00, 
2334.00, 
2335.00, 
2336.00, 
2337.00, 
2338.00, 
2339.00, 
2340.00, 
2341.00, 
2342.00, 
2343.00, 
2344.00, 
2345.00, 
2346.00, 
2347.00, 
2348.00, 
2349.00, 
2350.00, 
2351.00, 
2352.00, 
2353.00, 
2354.00, 
2355.00, 
2356.00, 
2357.00, 
2358.00, 
2359.00, 
2360.00, 
2361.00, 
2362.00, 
2363.00, 
2364.00, 
2365.00, 
2366.00, 
2367.00, 
2368.00, 
2369.00, 
2370.00, 
2371.00, 
2372.00, 
2373.00, 
2374.00, 
2375.00, 
2376.00, 
2377.00, 
2378.00, 
2379.00, 
2380.00, 
2381.00, 
2382.00, 
2383.00, 
2384.00, 
2385.00, 
2386.00, 
2387.00, 
2388.00, 
2389.00, 
2390.00, 
2391.00, 
2392.00, 
2393.00, 
2394.00, 
2395.00, 
2396.00, 
2397.00, 
2398.00, 
2399.00, 
2400.00, 
2401.00, 
2402.00, 
2403.00, 
2404.00, 
2405.00, 
2406.00, 
2407.00, 
2408.00, 
2409.00, 
2410.00, 
2411.00, 
2412.00, 
2413.00, 
2414.00, 
2415.00, 
2416.00, 
2417.00, 
2418.00, 
2419.00, 
2420.00, 
2421.00, 
2422.00, 
2423.00, 
2424.00, 
2425.00, 
2426.00, 
2427.00, 
2428.00, 
2429.00, 
2430.00, 
2431.00, 
2432.00, 
2433.00, 
2434.00, 
2435.00, 
2436.00, 
2437.00, 
2438.00, 
2439.00, 
2440.00, 
2441.00, 
2442.00, 
2443.00, 
2444.00, 
2445.00, 
2446.00, 
2447.00, 
2448.00, 
2449.00, 
2450.00, 
2451.00, 
2452.00, 
2453.00, 
2454.00, 
2455.00, 
2456.00, 
2457.00, 
2458.00, 
2459.00, 
2460.00, 
2461.00, 
2462.00, 
2463.00, 
2464.00, 
2465.00, 
2466.00, 
2467.00, 
2468.00, 
2469.00, 
2470.00, 
2471.00, 
2472.00, 
2473.00, 
2474.00, 
2475.00, 
2476.00, 
2477.00, 
2478.00, 
2479.00, 
2480.00, 
2481.00, 
2482.00, 
2483.00, 
2484.00, 
2485.00, 
2486.00, 
2487.00, 
2488.00, 
2489.00, 
2490.00, 
2491.00, 
2492.00, 
2493.00, 
2494.00, 
2495.00, 
2496.00, 
2497.00, 
2498.00, 
2499.00, 
2500.00, 
2501.00, 
2502.00, 
2503.00, 
2504.00, 
2505.00, 
2506.00, 
2507.00, 
2508.00, 
2509.00, 
2510.00, 
2511.00, 
2512.00, 
2513.00, 
2514.00, 
2515.00, 
2516.00, 
2517.00, 
2518.00, 
2519.00, 
2520.00, 
2521.00, 
2522.00, 
2523.00, 
2524.00, 
2525.00, 
2526.00, 
2527.00, 
2528.00, 
2529.00, 
2530.00, 
2531.00, 
2532.00, 
2533.00, 
2534.00, 
2535.00, 
2536.00, 
2537.00, 
2538.00, 
2539.00, 
2540.00, 
2541.00, 
2542.00, 
2543.00, 
2544.00, 
2545.00, 
2546.00, 
2547.00, 
2548.00, 
2549.00, 
2550.00, 
2551.00, 
2552.00, 
2553.00, 
2554.00, 
2555.00, 
2556.00, 
2557.00, 
2558.00, 
2559.00, 
2560.00, 
2561.00, 
2562.00, 
2563.00, 
2564.00, 
2565.00, 
2566.00, 
2567.00, 
2568.00, 
2569.00, 
2570.00, 
2571.00, 
2572.00, 
2573.00, 
2574.00, 
2575.00, 
2576.00, 
2577.00, 
2578.00, 
2579.00, 
2580.00, 
2581.00, 
2582.00, 
2583.00, 
2584.00, 
2585.00, 
2586.00, 
2587.00, 
2588.00, 
2589.00, 
2590.00, 
2591.00, 
2592.00, 
2593.00, 
2594.00, 
2595.00, 
2596.00, 
2597.00, 
2598.00, 
2599.00, 
2600.00, 
