"2cP2 - RawData"
"Wavelength nm.","T%"
200.00,0.002
201.00,0.001
202.00,0.005
203.00,0.001
204.00,0.001
205.00,0.002
206.00,0.001
207.00,-0.002
208.00,0.001
209.00,0.004
210.00,0.004
211.00,0.002
212.00,0.001
213.00,0.002
214.00,0.000
215.00,0.003
216.00,-0.000
217.00,0.003
218.00,0.003
219.00,-0.000
220.00,0.000
221.00,-0.001
222.00,-0.001
223.00,-0.002
224.00,-0.000
225.00,0.002
226.00,-0.001
227.00,-0.002
228.00,0.002
229.00,-0.002
230.00,0.001
231.00,0.002
232.00,0.001
233.00,0.001
234.00,0.001
235.00,0.000
236.00,-0.000
237.00,-0.002
238.00,0.002
239.00,0.001
240.00,-0.001
241.00,0.000
242.00,0.002
243.00,-0.000
244.00,-0.000
245.00,0.001
246.00,0.002
247.00,-0.000
248.00,0.001
249.00,0.001
250.00,0.000
251.00,0.001
252.00,0.002
253.00,-0.001
254.00,-0.000
255.00,0.001
256.00,-0.001
257.00,0.001
258.00,0.001
259.00,-0.000
260.00,-0.001
261.00,0.000
262.00,-0.000
263.00,0.001
264.00,-0.000
265.00,-0.001
266.00,0.001
267.00,-0.002
268.00,0.000
269.00,0.000
270.00,-0.001
271.00,0.000
272.00,0.000
273.00,-0.000
274.00,0.001
275.00,0.001
276.00,-0.000
277.00,0.001
278.00,0.000
279.00,0.000
280.00,-0.000
281.00,-0.001
282.00,-0.000
283.00,0.000
284.00,0.002
285.00,-0.001
286.00,-0.001
287.00,0.001
288.00,0.001
289.00,0.001
290.00,0.000
291.00,-0.001
292.00,0.001
293.00,0.003
294.00,0.001
295.00,-0.000
296.00,0.000
297.00,0.001
298.00,0.002
299.00,0.003
300.00,0.004
301.00,0.007
302.00,0.008
303.00,0.012
304.00,0.020
305.00,0.032
306.00,0.050
307.00,0.074
308.00,0.121
309.00,0.185
310.00,0.250
311.00,0.341
312.00,0.464
313.00,0.627
314.00,0.825
315.00,1.093
316.00,1.379
317.00,1.761
318.00,2.171
319.00,2.670
320.00,3.235
321.00,3.881
322.00,4.590
323.00,5.430
324.00,6.302
325.00,7.128
326.00,8.070
327.00,9.130
328.00,10.215
329.00,11.326
330.00,12.457
331.00,13.602
332.00,14.790
333.00,16.080
334.00,17.312
335.00,18.543
336.00,19.723
337.00,20.946
338.00,22.151
339.00,23.268
340.00,24.455
341.00,25.593
342.00,26.626
343.00,27.714
344.00,28.658
345.00,29.618
346.00,30.465
347.00,31.348
348.00,32.161
349.00,32.984
350.00,33.692
351.00,34.349
352.00,35.047
353.00,35.700
354.00,36.186
355.00,36.788
356.00,37.393
357.00,37.922
358.00,38.331
359.00,38.761
360.00,39.176
361.00,39.551
362.00,39.889
363.00,40.313
364.00,40.643
365.00,40.811
366.00,41.106
367.00,41.325
368.00,41.485
369.00,41.674
370.00,41.881
371.00,41.994
372.00,42.111
373.00,42.060
374.00,42.235
375.00,42.255
376.00,42.302
377.00,42.319
378.00,42.288
379.00,42.211
380.00,42.243
381.00,42.354
382.00,42.403
383.00,42.486
384.00,42.587
385.00,42.778
386.00,42.881
387.00,43.054
388.00,43.190
389.00,43.274
390.00,43.442
391.00,43.499
392.00,43.683
393.00,43.749
394.00,43.808
395.00,43.848
396.00,43.900
397.00,44.069
398.00,44.076
399.00,44.109
400.00,44.141
401.00,44.249
402.00,44.222
403.00,44.290
404.00,44.352
405.00,44.342
406.00,44.408
407.00,44.313
408.00,44.343
409.00,44.158
410.00,44.128
411.00,44.111
412.00,44.117
413.00,44.095
414.00,44.084
415.00,43.984
416.00,44.156
417.00,44.172
418.00,44.171
419.00,44.193
420.00,44.227
421.00,44.374
422.00,44.381
423.00,44.371
424.00,44.384
425.00,44.431
426.00,44.415
427.00,44.422
428.00,44.411
429.00,44.353
430.00,44.525
431.00,44.573
432.00,44.613
433.00,44.634
434.00,44.647
435.00,44.663
436.00,44.708
437.00,44.765
438.00,44.773
439.00,44.809
440.00,44.870
441.00,44.867
442.00,44.900
443.00,44.941
444.00,45.037
445.00,45.016
446.00,45.130
447.00,45.184
448.00,45.240
449.00,45.359
450.00,45.371
451.00,45.384
452.00,45.507
453.00,45.549
454.00,45.533
455.00,45.633
456.00,45.639
457.00,45.744
458.00,45.768
459.00,45.826
460.00,45.794
461.00,45.957
462.00,46.027
463.00,46.096
464.00,46.131
465.00,46.151
466.00,46.161
467.00,46.240
468.00,46.249
469.00,46.358
470.00,46.382
471.00,46.407
472.00,46.421
473.00,46.384
474.00,46.439
475.00,46.488
476.00,46.477
477.00,46.544
478.00,46.605
479.00,46.700
480.00,46.749
481.00,46.830
482.00,46.898
483.00,46.966
484.00,47.039
485.00,47.139
486.00,47.254
487.00,47.307
488.00,47.410
489.00,47.523
490.00,47.594
491.00,47.589
492.00,47.749
493.00,47.748
494.00,47.629
495.00,47.720
496.00,47.757
497.00,47.855
498.00,47.932
499.00,48.019
500.00,47.991
501.00,48.087
502.00,48.181
503.00,48.212
504.00,48.216
505.00,48.348
506.00,48.349
507.00,48.378
508.00,48.404
509.00,48.474
510.00,48.525
511.00,48.586
512.00,48.607
513.00,48.691
514.00,48.773
515.00,48.784
516.00,48.884
517.00,48.860
518.00,48.908
519.00,48.962
520.00,48.983
521.00,48.987
522.00,48.954
523.00,49.004
524.00,48.989
525.00,48.980
526.00,49.008
527.00,49.094
528.00,49.178
529.00,49.237
530.00,49.264
531.00,49.440
532.00,49.458
533.00,49.474
534.00,49.505
535.00,49.539
536.00,49.590
537.00,49.654
538.00,49.762
539.00,49.649
540.00,49.770
541.00,49.764
542.00,49.755
543.00,49.769
544.00,49.748
545.00,49.798
546.00,49.892
547.00,49.978
548.00,49.969
549.00,50.047
550.00,50.051
551.00,50.089
552.00,50.162
553.00,50.171
554.00,50.243
555.00,50.255
556.00,50.266
557.00,50.338
558.00,50.316
559.00,50.403
560.00,50.383
561.00,50.396
562.00,50.406
563.00,50.390
564.00,50.483
565.00,50.446
566.00,50.406
567.00,50.433
568.00,50.425
569.00,50.416
570.00,50.423
571.00,50.503
572.00,50.522
573.00,50.545
574.00,50.554
575.00,50.548
576.00,50.585
577.00,50.668
578.00,50.617
579.00,50.654
580.00,50.649
581.00,50.799
582.00,50.825
583.00,50.866
584.00,50.972
585.00,50.928
586.00,50.977
587.00,51.064
588.00,51.033
589.00,51.092
590.00,51.108
591.00,51.089
592.00,51.231
593.00,51.213
594.00,51.119
595.00,51.114
596.00,51.137
597.00,51.164
598.00,51.245
599.00,51.212
600.00,51.312
601.00,51.382
602.00,51.349
603.00,51.332
604.00,51.273
605.00,51.316
606.00,51.374
607.00,51.383
608.00,51.405
609.00,51.363
610.00,51.379
611.00,51.358
612.00,51.374
613.00,51.328
614.00,51.318
615.00,51.410
616.00,51.389
617.00,51.468
618.00,51.411
619.00,51.473
620.00,51.461
621.00,51.444
622.00,51.425
623.00,51.464
624.00,51.497
625.00,51.533
626.00,51.492
627.00,51.504
628.00,51.479
629.00,51.444
630.00,51.396
631.00,51.389
632.00,51.486
633.00,51.506
634.00,51.456
635.00,51.487
636.00,51.482
637.00,51.696
638.00,51.678
639.00,51.677
640.00,51.591
641.00,51.615
642.00,51.634
643.00,51.670
644.00,51.791
645.00,51.798
646.00,51.701
647.00,51.709
648.00,51.657
649.00,51.663
650.00,51.658
651.00,51.663
652.00,51.786
653.00,51.703
654.00,51.709
655.00,51.651
656.00,51.653
657.00,51.673
658.00,51.793
659.00,51.770
660.00,51.688
661.00,51.651
662.00,51.805
663.00,51.822
664.00,51.889
665.00,51.782
666.00,51.854
667.00,51.971
668.00,51.764
669.00,51.858
670.00,51.958
671.00,51.873
672.00,51.888
673.00,51.865
674.00,51.976
675.00,52.002
676.00,51.871
677.00,51.975
678.00,51.764
679.00,51.636
680.00,51.810
681.00,51.914
682.00,51.827
683.00,51.872
684.00,51.956
685.00,51.959
686.00,51.780
687.00,51.834
688.00,51.979
689.00,51.924
690.00,51.695
691.00,51.989
692.00,51.829
693.00,51.821
694.00,51.848
695.00,51.965
696.00,51.787
697.00,51.855
698.00,51.936
699.00,51.938
700.00,51.953
701.00,51.879
702.00,51.884
703.00,51.923
704.00,51.870
705.00,51.848
706.00,51.921
707.00,51.826
708.00,51.745
709.00,51.923
710.00,51.922
711.00,51.851
712.00,51.687
713.00,51.847
714.00,51.777
715.00,51.776
716.00,51.741
717.00,51.685
718.00,51.705
719.00,51.639
720.00,51.654
721.00,55.965
722.00,55.933
723.00,55.825
724.00,55.818
725.00,55.737
726.00,55.692
727.00,55.626
728.00,55.519
729.00,55.483
730.00,55.463
731.00,55.453
732.00,55.329
733.00,55.344
734.00,55.320
735.00,55.270
736.00,55.190
737.00,55.159
738.00,55.176
739.00,55.074
740.00,55.086
741.00,55.037
742.00,55.064
743.00,54.936
744.00,54.881
745.00,54.856
746.00,54.851
747.00,54.713
748.00,54.664
749.00,54.548
750.00,54.504
751.00,54.531
752.00,54.405
753.00,54.451
754.00,54.372
755.00,54.282
756.00,54.322
757.00,54.279
758.00,54.201
759.00,54.145
760.00,54.191
761.00,54.131
762.00,54.053
763.00,53.991
764.00,54.021
765.00,53.959
766.00,53.960
767.00,53.867
768.00,53.903
769.00,53.818
770.00,53.861
771.00,53.817
772.00,53.738
773.00,53.724
774.00,53.693
775.00,53.664
776.00,53.662
777.00,53.566
778.00,53.531
779.00,53.582
780.00,53.533
781.00,53.459
782.00,53.444
783.00,53.380
784.00,53.367
785.00,53.309
786.00,53.304
787.00,53.277
788.00,53.191
789.00,53.133
790.00,53.141
791.00,53.139
792.00,53.052
793.00,53.048
794.00,53.014
795.00,52.888
796.00,52.930
797.00,52.867
798.00,52.850
799.00,52.847
800.00,52.689
801.00,52.713
802.00,52.730
803.00,52.647
804.00,52.599
805.00,52.570
806.00,52.519
807.00,52.568
808.00,52.503
809.00,52.435
810.00,52.413
811.00,52.390
812.00,52.342
813.00,52.279
814.00,52.294
815.00,52.305
816.00,52.260
817.00,52.166
818.00,52.101
819.00,52.049
820.00,52.085
821.00,52.023
822.00,52.089
823.00,51.959
824.00,51.976
825.00,51.943
826.00,52.015
827.00,51.956
828.00,51.917
829.00,51.795
830.00,51.774
831.00,54.379
832.00,54.387
833.00,54.353
834.00,54.332
835.00,54.289
836.00,54.268
837.00,54.205
838.00,54.190
839.00,54.134
840.00,54.098
841.00,54.095
842.00,53.983
843.00,54.069
844.00,54.027
845.00,53.932
846.00,53.950
847.00,53.917
848.00,53.888
849.00,53.810
850.00,53.767
851.00,53.757
852.00,53.743
853.00,53.614
854.00,53.627
855.00,53.549
856.00,53.564
857.00,53.505
858.00,53.463
859.00,53.414
860.00,53.448
861.00,53.422
862.00,53.330
863.00,53.371
864.00,53.349
865.00,53.289
866.00,53.297
867.00,53.313
868.00,53.235
869.00,53.218
870.00,53.223
871.00,53.203
872.00,53.197
873.00,53.140
874.00,53.168
875.00,53.142
876.00,53.128
877.00,53.073
878.00,53.089
879.00,53.038
880.00,53.038
881.00,52.990
882.00,52.999
883.00,52.962
884.00,52.907
885.00,52.890
886.00,52.872
887.00,52.829
888.00,52.836
889.00,52.741
890.00,52.779
891.00,52.742
892.00,52.723
893.00,52.692
894.00,52.702
895.00,52.658
896.00,52.624
897.00,52.605
898.00,52.567
899.00,52.556
900.00,52.546
901.00,52.521
902.00,52.509
903.00,52.499
904.00,52.493
905.00,52.457
906.00,52.454
907.00,52.414
908.00,52.373
909.00,52.349
910.00,52.325
911.00,52.322
912.00,52.321
913.00,52.271
914.00,52.253
915.00,52.235
916.00,52.211
917.00,52.182
918.00,52.167
919.00,52.125
920.00,52.084
921.00,52.081
922.00,52.074
923.00,52.009
924.00,52.032
925.00,51.986
926.00,51.979
927.00,51.965
928.00,51.931
929.00,51.933
930.00,51.906
931.00,51.891
932.00,51.830
933.00,51.860
934.00,51.834
935.00,51.807
936.00,51.778
937.00,51.747
938.00,51.707
939.00,51.716
940.00,51.682
941.00,51.683
942.00,51.634
943.00,51.632
944.00,51.607
945.00,51.593
946.00,51.576
947.00,51.553
948.00,51.514
949.00,51.488
950.00,51.476
951.00,51.458
952.00,51.423
953.00,51.371
954.00,51.369
955.00,51.321
956.00,51.320
957.00,51.269
958.00,51.301
959.00,51.248
960.00,51.224
961.00,51.216
962.00,51.236
963.00,51.163
964.00,51.171
965.00,51.147
966.00,51.148
967.00,51.128
968.00,51.101
969.00,51.137
970.00,51.154
971.00,51.103
972.00,51.089
973.00,51.111
974.00,51.132
975.00,51.088
976.00,51.120
977.00,51.102
978.00,51.127
979.00,51.129
980.00,51.116
981.00,51.116
982.00,51.077
983.00,51.080
984.00,51.064
985.00,51.081
986.00,51.029
987.00,51.063
988.00,51.027
989.00,51.005
990.00,51.017
991.00,51.000
992.00,51.011
993.00,50.970
994.00,50.964
995.00,50.959
996.00,50.931
997.00,50.917
998.00,50.892
999.00,50.925
1000.00,50.858
1001.00,50.863
1002.00,50.862
1003.00,50.868
1004.00,50.835
1005.00,50.798
1006.00,50.815
1007.00,50.788
1008.00,50.772
1009.00,50.758
1010.00,50.758
1011.00,50.749
1012.00,50.710
1013.00,50.710
1014.00,50.684
1015.00,50.698
1016.00,50.727
1017.00,50.660
1018.00,50.642
1019.00,50.596
1020.00,50.589
1021.00,50.574
1022.00,50.565
1023.00,50.508
1024.00,50.528
1025.00,50.513
1026.00,50.500
1027.00,50.470
1028.00,50.480
1029.00,50.454
1030.00,50.414
1031.00,50.436
1032.00,50.393
1033.00,50.397
1034.00,50.363
1035.00,50.336
1036.00,50.311
1037.00,50.280
1038.00,50.274
1039.00,50.248
1040.00,50.236
1041.00,50.213
1042.00,50.197
1043.00,50.182
1044.00,50.201
1045.00,50.175
1046.00,50.175
1047.00,50.183
1048.00,50.188
1049.00,50.209
1050.00,50.200
1051.00,50.238
1052.00,50.250
1053.00,50.250
1054.00,50.255
1055.00,50.271
1056.00,50.281
1057.00,50.291
1058.00,50.260
1059.00,50.269
1060.00,50.272
1061.00,50.254
1062.00,50.243
1063.00,50.242
1064.00,50.220
1065.00,50.213
1066.00,50.204
1067.00,50.196
1068.00,50.216
1069.00,50.183
1070.00,50.155
1071.00,50.150
1072.00,50.160
1073.00,50.131
1074.00,50.129
1075.00,50.119
1076.00,50.129
1077.00,50.129
1078.00,50.084
1079.00,50.085
1080.00,50.090
1081.00,50.064
1082.00,50.067
1083.00,50.067
1084.00,50.051
1085.00,50.050
1086.00,50.031
1087.00,50.035
1088.00,50.007
1089.00,50.010
1090.00,50.008
1091.00,50.000
1092.00,50.000
1093.00,49.970
1094.00,49.954
1095.00,49.938
1096.00,49.919
1097.00,49.904
1098.00,49.906
1099.00,49.895
1100.00,49.869
1101.00,49.870
1102.00,49.864
1103.00,49.852
1104.00,49.851
1105.00,49.832
1106.00,49.835
1107.00,49.826
1108.00,49.816
1109.00,49.807
1110.00,49.805
1111.00,49.792
1112.00,49.787
1113.00,49.771
1114.00,49.762
1115.00,49.773
1116.00,49.770
1117.00,49.744
1118.00,49.747
1119.00,49.732
1120.00,49.744
1121.00,49.725
1122.00,49.719
1123.00,49.732
1124.00,49.713
1125.00,49.685
1126.00,49.684
1127.00,49.681
1128.00,49.660
1129.00,49.645
1130.00,49.639
1131.00,49.637
1132.00,49.623
1133.00,49.622
1134.00,49.627
1135.00,49.613
1136.00,49.599
1137.00,49.611
1138.00,49.615
1139.00,49.589
1140.00,49.581
1141.00,49.569
1142.00,49.589
1143.00,49.602
1144.00,49.571
1145.00,49.571
1146.00,49.570
1147.00,49.553
1148.00,49.553
1149.00,49.561
1150.00,49.570
1151.00,49.564
1152.00,49.548
1153.00,49.567
1154.00,49.536
1155.00,49.534
1156.00,49.535
1157.00,49.527
1158.00,49.520
1159.00,49.510
1160.00,49.509
1161.00,49.509
1162.00,49.496
1163.00,49.500
1164.00,49.504
1165.00,49.496
1166.00,49.484
1167.00,49.488
1168.00,49.498
1169.00,49.481
1170.00,49.502
1171.00,49.468
1172.00,49.478
1173.00,49.467
1174.00,49.474
1175.00,49.482
1176.00,49.482
1177.00,49.469
1178.00,49.471
1179.00,49.480
1180.00,49.453
1181.00,49.473
1182.00,49.478
1183.00,49.472
1184.00,49.453
1185.00,49.470
1186.00,49.463
1187.00,49.466
1188.00,49.443
1189.00,49.450
1190.00,49.437
1191.00,49.435
1192.00,49.446
1193.00,49.339
1194.00,49.350
1195.00,49.412
1196.00,49.446
1197.00,49.442
1198.00,49.432
1199.00,49.441
1200.00,49.429
1201.00,49.445
1202.00,49.415
1203.00,49.430
1204.00,49.418
1205.00,49.432
1206.00,49.430
1207.00,49.435
1208.00,49.423
1209.00,49.421
1210.00,49.419
1211.00,49.426
1212.00,49.430
1213.00,49.387
1214.00,49.433
1215.00,49.414
1216.00,49.408
1217.00,49.408
1218.00,49.413
1219.00,49.423
1220.00,49.402
1221.00,49.413
1222.00,49.406
1223.00,49.409
1224.00,49.406
1225.00,49.402
1226.00,49.416
1227.00,49.401
1228.00,49.411
1229.00,49.417
1230.00,49.453
1231.00,49.444
1232.00,49.460
1233.00,49.465
1234.00,49.458
1235.00,49.453
1236.00,49.462
1237.00,49.459
1238.00,49.450
1239.00,49.460
1240.00,49.458
1241.00,49.474
1242.00,49.459
1243.00,49.472
1244.00,49.453
1245.00,49.478
1246.00,49.488
1247.00,49.490
1248.00,49.485
1249.00,49.477
1250.00,49.487
1251.00,49.495
1252.00,49.517
1253.00,49.503
1254.00,49.528
1255.00,49.529
1256.00,49.498
1257.00,49.473
1258.00,49.519
1259.00,49.504
1260.00,49.528
1261.00,49.519
1262.00,49.501
1263.00,49.513
1264.00,49.529
1265.00,49.530
1266.00,49.534
1267.00,49.534
1268.00,49.540
1269.00,49.539
1270.00,49.552
1271.00,49.555
1272.00,49.556
1273.00,49.553
1274.00,49.568
1275.00,49.578
1276.00,49.568
1277.00,49.563
1278.00,49.580
1279.00,49.574
1280.00,49.588
1281.00,49.600
1282.00,49.606
1283.00,49.599
1284.00,49.595
1285.00,49.609
1286.00,49.616
1287.00,49.597
1288.00,49.618
1289.00,49.609
1290.00,49.623
1291.00,49.612
1292.00,49.627
1293.00,49.626
1294.00,49.647
1295.00,49.648
1296.00,49.660
1297.00,49.653
1298.00,49.662
1299.00,49.671
1300.00,49.680
1301.00,49.671
1302.00,49.674
1303.00,49.684
1304.00,49.668
1305.00,49.685
1306.00,49.686
1307.00,49.693
1308.00,49.689
1309.00,49.709
1310.00,49.715
1311.00,49.719
1312.00,49.709
1313.00,49.714
1314.00,49.728
1315.00,49.734
1316.00,49.734
1317.00,49.750
1318.00,49.744
1319.00,49.747
1320.00,49.777
1321.00,49.947
1322.00,49.943
1323.00,49.924
1324.00,49.921
1325.00,49.904
1326.00,49.951
1327.00,49.907
1328.00,49.921
1329.00,49.938
1330.00,49.938
1331.00,49.937
1332.00,49.937
1333.00,49.924
1334.00,49.976
1335.00,49.994
1336.00,50.008
1337.00,50.041
1338.00,50.086
1339.00,50.132
1340.00,50.202
1341.00,50.256
1342.00,50.331
1343.00,50.378
1344.00,50.418
1345.00,50.490
1346.00,50.538
1347.00,50.535
1348.00,50.566
1349.00,50.587
1350.00,50.599
1351.00,50.622
1352.00,50.591
1353.00,50.629
1354.00,50.666
1355.00,50.751
1356.00,50.631
1357.00,50.675
1358.00,50.639
1359.00,50.678
1360.00,50.734
1361.00,50.633
1362.00,50.598
1363.00,50.729
1364.00,50.683
1365.00,50.662
1366.00,50.698
1367.00,50.665
1368.00,50.627
1369.00,50.664
1370.00,50.644
1371.00,50.597
1372.00,50.620
1373.00,50.635
1374.00,50.654
1375.00,50.629
1376.00,50.639
1377.00,50.593
1378.00,50.625
1379.00,50.644
1380.00,50.635
1381.00,50.644
1382.00,50.594
1383.00,50.602
1384.00,50.572
1385.00,50.565
1386.00,50.612
1387.00,50.555
1388.00,50.548
1389.00,50.556
1390.00,50.650
1391.00,50.544
1392.00,50.585
1393.00,50.584
1394.00,50.602
1395.00,50.590
1396.00,50.521
1397.00,50.579
1398.00,50.605
1399.00,50.583
1400.00,50.562
1401.00,50.581
1402.00,50.650
1403.00,50.626
1404.00,50.593
1405.00,50.642
1406.00,50.633
1407.00,50.650
1408.00,50.638
1409.00,50.631
1410.00,50.657
1411.00,50.661
1412.00,50.698
1413.00,50.644
1414.00,50.657
1415.00,50.689
1416.00,50.708
1417.00,50.754
1418.00,50.750
1419.00,50.723
1420.00,50.757
1421.00,50.773
1422.00,50.770
1423.00,50.780
1424.00,50.796
1425.00,50.802
1426.00,50.804
1427.00,50.812
1428.00,50.840
1429.00,50.850
1430.00,50.872
1431.00,50.885
1432.00,50.876
1433.00,50.920
1434.00,50.910
1435.00,50.940
1436.00,50.972
1437.00,50.967
1438.00,50.971
1439.00,51.006
1440.00,50.995
1441.00,51.009
1442.00,51.030
1443.00,51.060
1444.00,51.082
1445.00,51.059
1446.00,51.079
1447.00,51.114
1448.00,51.166
1449.00,51.132
1450.00,51.146
1451.00,51.161
1452.00,51.160
1453.00,51.190
1454.00,51.181
1455.00,51.210
1456.00,51.228
1457.00,51.211
1458.00,51.256
1459.00,51.270
1460.00,51.285
1461.00,51.293
1462.00,51.299
1463.00,51.340
1464.00,51.338
1465.00,51.348
1466.00,51.357
1467.00,51.378
1468.00,51.409
1469.00,51.421
1470.00,51.420
1471.00,51.428
1472.00,51.455
1473.00,51.462
1474.00,51.481
1475.00,51.501
1476.00,51.504
1477.00,51.499
1478.00,51.529
1479.00,51.539
1480.00,51.558
1481.00,51.548
1482.00,51.575
1483.00,51.603
1484.00,51.587
1485.00,51.607
1486.00,51.613
1487.00,51.620
1488.00,51.641
1489.00,51.643
1490.00,51.653
1491.00,51.667
1492.00,51.681
1493.00,51.673
1494.00,51.701
1495.00,51.705
1496.00,51.715
1497.00,51.731
1498.00,51.720
1499.00,51.736
1500.00,51.772
1501.00, 
1502.00, 
1503.00, 
1504.00, 
1505.00, 
1506.00, 
1507.00, 
1508.00, 
1509.00, 
1510.00, 
1511.00, 
1512.00, 
1513.00, 
1514.00, 
1515.00, 
1516.00, 
1517.00, 
1518.00, 
1519.00, 
1520.00, 
1521.00, 
1522.00, 
1523.00, 
1524.00, 
1525.00, 
1526.00, 
1527.00, 
1528.00, 
1529.00, 
1530.00, 
1531.00, 
1532.00, 
1533.00, 
1534.00, 
1535.00, 
1536.00, 
1537.00, 
1538.00, 
1539.00, 
1540.00, 
1541.00, 
1542.00, 
1543.00, 
1544.00, 
1545.00, 
1546.00, 
1547.00, 
1548.00, 
1549.00, 
1550.00, 
1551.00, 
1552.00, 
1553.00, 
1554.00, 
1555.00, 
1556.00, 
1557.00, 
1558.00, 
1559.00, 
1560.00, 
1561.00, 
1562.00, 
1563.00, 
1564.00, 
1565.00, 
1566.00, 
1567.00, 
1568.00, 
1569.00, 
1570.00, 
1571.00, 
1572.00, 
1573.00, 
1574.00, 
1575.00, 
1576.00, 
1577.00, 
1578.00, 
1579.00, 
1580.00, 
1581.00, 
1582.00, 
1583.00, 
1584.00, 
1585.00, 
1586.00, 
1587.00, 
1588.00, 
1589.00, 
1590.00, 
1591.00, 
1592.00, 
1593.00, 
1594.00, 
1595.00, 
1596.00, 
1597.00, 
1598.00, 
1599.00, 
1600.00, 
1601.00, 
1602.00, 
1603.00, 
1604.00, 
1605.00, 
1606.00, 
1607.00, 
1608.00, 
1609.00, 
1610.00, 
1611.00, 
1612.00, 
1613.00, 
1614.00, 
1615.00, 
1616.00, 
1617.00, 
1618.00, 
1619.00, 
1620.00, 
1621.00, 
1622.00, 
1623.00, 
1624.00, 
1625.00, 
1626.00, 
1627.00, 
1628.00, 
1629.00, 
1630.00, 
1631.00, 
1632.00, 
1633.00, 
1634.00, 
1635.00, 
1636.00, 
1637.00, 
1638.00, 
1639.00, 
1640.00, 
1641.00, 
1642.00, 
1643.00, 
1644.00, 
1645.00, 
1646.00, 
1647.00, 
1648.00, 
1649.00, 
1650.00, 
1651.00, 
1652.00, 
1653.00, 
1654.00, 
1655.00, 
1656.00, 
1657.00, 
1658.00, 
1659.00, 
1660.00, 
1661.00, 
1662.00, 
1663.00, 
1664.00, 
1665.00, 
1666.00, 
1667.00, 
1668.00, 
1669.00, 
1670.00, 
1671.00, 
1672.00, 
1673.00, 
1674.00, 
1675.00, 
1676.00, 
1677.00, 
1678.00, 
1679.00, 
1680.00, 
1681.00, 
1682.00, 
1683.00, 
1684.00, 
1685.00, 
1686.00, 
1687.00, 
1688.00, 
1689.00, 
1690.00, 
1691.00, 
1692.00, 
1693.00, 
1694.00, 
1695.00, 
1696.00, 
1697.00, 
1698.00, 
1699.00, 
1700.00, 
1701.00, 
1702.00, 
1703.00, 
1704.00, 
1705.00, 
1706.00, 
1707.00, 
1708.00, 
1709.00, 
1710.00, 
1711.00, 
1712.00, 
1713.00, 
1714.00, 
1715.00, 
1716.00, 
1717.00, 
1718.00, 
1719.00, 
1720.00, 
1721.00, 
1722.00, 
1723.00, 
1724.00, 
1725.00, 
1726.00, 
1727.00, 
1728.00, 
1729.00, 
1730.00, 
1731.00, 
1732.00, 
1733.00, 
1734.00, 
1735.00, 
1736.00, 
1737.00, 
1738.00, 
1739.00, 
1740.00, 
1741.00, 
1742.00, 
1743.00, 
1744.00, 
1745.00, 
1746.00, 
1747.00, 
1748.00, 
1749.00, 
1750.00, 
1751.00, 
1752.00, 
1753.00, 
1754.00, 
1755.00, 
1756.00, 
1757.00, 
1758.00, 
1759.00, 
1760.00, 
1761.00, 
1762.00, 
1763.00, 
1764.00, 
1765.00, 
1766.00, 
1767.00, 
1768.00, 
1769.00, 
1770.00, 
1771.00, 
1772.00, 
1773.00, 
1774.00, 
1775.00, 
1776.00, 
1777.00, 
1778.00, 
1779.00, 
1780.00, 
1781.00, 
1782.00, 
1783.00, 
1784.00, 
1785.00, 
1786.00, 
1787.00, 
1788.00, 
1789.00, 
1790.00, 
1791.00, 
1792.00, 
1793.00, 
1794.00, 
1795.00, 
1796.00, 
1797.00, 
1798.00, 
1799.00, 
1800.00, 
1801.00, 
1802.00, 
1803.00, 
1804.00, 
1805.00, 
1806.00, 
1807.00, 
1808.00, 
1809.00, 
1810.00, 
1811.00, 
1812.00, 
1813.00, 
1814.00, 
1815.00, 
1816.00, 
1817.00, 
1818.00, 
1819.00, 
1820.00, 
1821.00, 
1822.00, 
1823.00, 
1824.00, 
1825.00, 
1826.00, 
1827.00, 
1828.00, 
1829.00, 
1830.00, 
1831.00, 
1832.00, 
1833.00, 
1834.00, 
1835.00, 
1836.00, 
1837.00, 
1838.00, 
1839.00, 
1840.00, 
1841.00, 
1842.00, 
1843.00, 
1844.00, 
1845.00, 
1846.00, 
1847.00, 
1848.00, 
1849.00, 
1850.00, 
1851.00, 
1852.00, 
1853.00, 
1854.00, 
1855.00, 
1856.00, 
1857.00, 
1858.00, 
1859.00, 
1860.00, 
1861.00, 
1862.00, 
1863.00, 
1864.00, 
1865.00, 
1866.00, 
1867.00, 
1868.00, 
1869.00, 
1870.00, 
1871.00, 
1872.00, 
1873.00, 
1874.00, 
1875.00, 
1876.00, 
1877.00, 
1878.00, 
1879.00, 
1880.00, 
1881.00, 
1882.00, 
1883.00, 
1884.00, 
1885.00, 
1886.00, 
1887.00, 
1888.00, 
1889.00, 
1890.00, 
1891.00, 
1892.00, 
1893.00, 
1894.00, 
1895.00, 
1896.00, 
1897.00, 
1898.00, 
1899.00, 
1900.00, 
1901.00, 
1902.00, 
1903.00, 
1904.00, 
1905.00, 
1906.00, 
1907.00, 
1908.00, 
1909.00, 
1910.00, 
1911.00, 
1912.00, 
1913.00, 
1914.00, 
1915.00, 
1916.00, 
1917.00, 
1918.00, 
1919.00, 
1920.00, 
1921.00, 
1922.00, 
1923.00, 
1924.00, 
1925.00, 
1926.00, 
1927.00, 
1928.00, 
1929.00, 
1930.00, 
1931.00, 
1932.00, 
1933.00, 
1934.00, 
1935.00, 
1936.00, 
1937.00, 
1938.00, 
1939.00, 
1940.00, 
1941.00, 
1942.00, 
1943.00, 
1944.00, 
1945.00, 
1946.00, 
1947.00, 
1948.00, 
1949.00, 
1950.00, 
1951.00, 
1952.00, 
1953.00, 
1954.00, 
1955.00, 
1956.00, 
1957.00, 
1958.00, 
1959.00, 
1960.00, 
1961.00, 
1962.00, 
1963.00, 
1964.00, 
1965.00, 
1966.00, 
1967.00, 
1968.00, 
1969.00, 
1970.00, 
1971.00, 
1972.00, 
1973.00, 
1974.00, 
1975.00, 
1976.00, 
1977.00, 
1978.00, 
1979.00, 
1980.00, 
1981.00, 
1982.00, 
1983.00, 
1984.00, 
1985.00, 
1986.00, 
1987.00, 
1988.00, 
1989.00, 
1990.00, 
1991.00, 
1992.00, 
1993.00, 
1994.00, 
1995.00, 
1996.00, 
1997.00, 
1998.00, 
1999.00, 
2000.00, 
2001.00, 
2002.00, 
2003.00, 
2004.00, 
2005.00, 
2006.00, 
2007.00, 
2008.00, 
2009.00, 
2010.00, 
2011.00, 
2012.00, 
2013.00, 
2014.00, 
2015.00, 
2016.00, 
2017.00, 
2018.00, 
2019.00, 
2020.00, 
2021.00, 
2022.00, 
2023.00, 
2024.00, 
2025.00, 
2026.00, 
2027.00, 
2028.00, 
2029.00, 
2030.00, 
2031.00, 
2032.00, 
2033.00, 
2034.00, 
2035.00, 
2036.00, 
2037.00, 
2038.00, 
2039.00, 
2040.00, 
2041.00, 
2042.00, 
2043.00, 
2044.00, 
2045.00, 
2046.00, 
2047.00, 
2048.00, 
2049.00, 
2050.00, 
2051.00, 
2052.00, 
2053.00, 
2054.00, 
2055.00, 
2056.00, 
2057.00, 
2058.00, 
2059.00, 
2060.00, 
2061.00, 
2062.00, 
2063.00, 
2064.00, 
2065.00, 
2066.00, 
2067.00, 
2068.00, 
2069.00, 
2070.00, 
2071.00, 
2072.00, 
2073.00, 
2074.00, 
2075.00, 
2076.00, 
2077.00, 
2078.00, 
2079.00, 
2080.00, 
2081.00, 
2082.00, 
2083.00, 
2084.00, 
2085.00, 
2086.00, 
2087.00, 
2088.00, 
2089.00, 
2090.00, 
2091.00, 
2092.00, 
2093.00, 
2094.00, 
2095.00, 
2096.00, 
2097.00, 
2098.00, 
2099.00, 
2100.00, 
2101.00, 
2102.00, 
2103.00, 
2104.00, 
2105.00, 
2106.00, 
2107.00, 
2108.00, 
2109.00, 
2110.00, 
2111.00, 
2112.00, 
2113.00, 
2114.00, 
2115.00, 
2116.00, 
2117.00, 
2118.00, 
2119.00, 
2120.00, 
2121.00, 
2122.00, 
2123.00, 
2124.00, 
2125.00, 
2126.00, 
2127.00, 
2128.00, 
2129.00, 
2130.00, 
2131.00, 
2132.00, 
2133.00, 
2134.00, 
2135.00, 
2136.00, 
2137.00, 
2138.00, 
2139.00, 
2140.00, 
2141.00, 
2142.00, 
2143.00, 
2144.00, 
2145.00, 
2146.00, 
2147.00, 
2148.00, 
2149.00, 
2150.00, 
2151.00, 
2152.00, 
2153.00, 
2154.00, 
2155.00, 
2156.00, 
2157.00, 
2158.00, 
2159.00, 
2160.00, 
2161.00, 
2162.00, 
2163.00, 
2164.00, 
2165.00, 
2166.00, 
2167.00, 
2168.00, 
2169.00, 
2170.00, 
2171.00, 
2172.00, 
2173.00, 
2174.00, 
2175.00, 
2176.00, 
2177.00, 
2178.00, 
2179.00, 
2180.00, 
2181.00, 
2182.00, 
2183.00, 
2184.00, 
2185.00, 
2186.00, 
2187.00, 
2188.00, 
2189.00, 
2190.00, 
2191.00, 
2192.00, 
2193.00, 
2194.00, 
2195.00, 
2196.00, 
2197.00, 
2198.00, 
2199.00, 
2200.00, 
2201.00, 
2202.00, 
2203.00, 
2204.00, 
2205.00, 
2206.00, 
2207.00, 
2208.00, 
2209.00, 
2210.00, 
2211.00, 
2212.00, 
2213.00, 
2214.00, 
2215.00, 
2216.00, 
2217.00, 
2218.00, 
2219.00, 
2220.00, 
2221.00, 
2222.00, 
2223.00, 
2224.00, 
2225.00, 
2226.00, 
2227.00, 
2228.00, 
2229.00, 
2230.00, 
2231.00, 
2232.00, 
2233.00, 
2234.00, 
2235.00, 
2236.00, 
2237.00, 
2238.00, 
2239.00, 
2240.00, 
2241.00, 
2242.00, 
2243.00, 
2244.00, 
2245.00, 
2246.00, 
2247.00, 
2248.00, 
2249.00, 
2250.00, 
2251.00, 
2252.00, 
2253.00, 
2254.00, 
2255.00, 
2256.00, 
2257.00, 
2258.00, 
2259.00, 
2260.00, 
2261.00, 
2262.00, 
2263.00, 
2264.00, 
2265.00, 
2266.00, 
2267.00, 
2268.00, 
2269.00, 
2270.00, 
2271.00, 
2272.00, 
2273.00, 
2274.00, 
2275.00, 
2276.00, 
2277.00, 
2278.00, 
2279.00, 
2280.00, 
2281.00, 
2282.00, 
2283.00, 
2284.00, 
2285.00, 
2286.00, 
2287.00, 
2288.00, 
2289.00, 
2290.00, 
2291.00, 
2292.00, 
2293.00, 
2294.00, 
2295.00, 
2296.00, 
2297.00, 
2298.00, 
2299.00, 
2300.00, 
2301.00, 
2302.00, 
2303.00, 
2304.00, 
2305.00, 
2306.00, 
2307.00, 
2308.00, 
2309.00, 
2310.00, 
2311.00, 
2312.00, 
2313.00, 
2314.00, 
2315.00, 
2316.00, 
2317.00, 
2318.00, 
2319.00, 
2320.00, 
2321.00, 
2322.00, 
2323.00, 
2324.00, 
2325.00, 
2326.00, 
2327.00, 
2328.00, 
2329.00, 
2330.00, 
2331.00, 
2332.00, 
2333.00, 
2334.00, 
2335.00, 
2336.00, 
2337.00, 
2338.00, 
2339.00, 
2340.00, 
2341.00, 
2342.00, 
2343.00, 
2344.00, 
2345.00, 
2346.00, 
2347.00, 
2348.00, 
2349.00, 
2350.00, 
2351.00, 
2352.00, 
2353.00, 
2354.00, 
2355.00, 
2356.00, 
2357.00, 
2358.00, 
2359.00, 
2360.00, 
2361.00, 
2362.00, 
2363.00, 
2364.00, 
2365.00, 
2366.00, 
2367.00, 
2368.00, 
2369.00, 
2370.00, 
2371.00, 
2372.00, 
2373.00, 
2374.00, 
2375.00, 
2376.00, 
2377.00, 
2378.00, 
2379.00, 
2380.00, 
2381.00, 
2382.00, 
2383.00, 
2384.00, 
2385.00, 
2386.00, 
2387.00, 
2388.00, 
2389.00, 
2390.00, 
2391.00, 
2392.00, 
2393.00, 
2394.00, 
2395.00, 
2396.00, 
2397.00, 
2398.00, 
2399.00, 
2400.00, 
2401.00, 
2402.00, 
2403.00, 
2404.00, 
2405.00, 
2406.00, 
2407.00, 
2408.00, 
2409.00, 
2410.00, 
2411.00, 
2412.00, 
2413.00, 
2414.00, 
2415.00, 
2416.00, 
2417.00, 
2418.00, 
2419.00, 
2420.00, 
2421.00, 
2422.00, 
2423.00, 
2424.00, 
2425.00, 
2426.00, 
2427.00, 
2428.00, 
2429.00, 
2430.00, 
2431.00, 
2432.00, 
2433.00, 
2434.00, 
2435.00, 
2436.00, 
2437.00, 
2438.00, 
2439.00, 
2440.00, 
2441.00, 
2442.00, 
2443.00, 
2444.00, 
2445.00, 
2446.00, 
2447.00, 
2448.00, 
2449.00, 
2450.00, 
2451.00, 
2452.00, 
2453.00, 
2454.00, 
2455.00, 
2456.00, 
2457.00, 
2458.00, 
2459.00, 
2460.00, 
2461.00, 
2462.00, 
2463.00, 
2464.00, 
2465.00, 
2466.00, 
2467.00, 
2468.00, 
2469.00, 
2470.00, 
2471.00, 
2472.00, 
2473.00, 
2474.00, 
2475.00, 
2476.00, 
2477.00, 
2478.00, 
2479.00, 
2480.00, 
2481.00, 
2482.00, 
2483.00, 
2484.00, 
2485.00, 
2486.00, 
2487.00, 
2488.00, 
2489.00, 
2490.00, 
2491.00, 
2492.00, 
2493.00, 
2494.00, 
2495.00, 
2496.00, 
2497.00, 
2498.00, 
2499.00, 
2500.00, 
2501.00, 
2502.00, 
2503.00, 
2504.00, 
2505.00, 
2506.00, 
2507.00, 
2508.00, 
2509.00, 
2510.00, 
2511.00, 
2512.00, 
2513.00, 
2514.00, 
2515.00, 
2516.00, 
2517.00, 
2518.00, 
2519.00, 
2520.00, 
2521.00, 
2522.00, 
2523.00, 
2524.00, 
2525.00, 
2526.00, 
2527.00, 
2528.00, 
2529.00, 
2530.00, 
2531.00, 
2532.00, 
2533.00, 
2534.00, 
2535.00, 
2536.00, 
2537.00, 
2538.00, 
2539.00, 
2540.00, 
2541.00, 
2542.00, 
2543.00, 
2544.00, 
2545.00, 
2546.00, 
2547.00, 
2548.00, 
2549.00, 
2550.00, 
2551.00, 
2552.00, 
2553.00, 
2554.00, 
2555.00, 
2556.00, 
2557.00, 
2558.00, 
2559.00, 
2560.00, 
2561.00, 
2562.00, 
2563.00, 
2564.00, 
2565.00, 
2566.00, 
2567.00, 
2568.00, 
2569.00, 
2570.00, 
2571.00, 
2572.00, 
2573.00, 
2574.00, 
2575.00, 
2576.00, 
2577.00, 
2578.00, 
2579.00, 
2580.00, 
2581.00, 
2582.00, 
2583.00, 
2584.00, 
2585.00, 
2586.00, 
2587.00, 
2588.00, 
2589.00, 
2590.00, 
2591.00, 
2592.00, 
2593.00, 
2594.00, 
2595.00, 
2596.00, 
2597.00, 
2598.00, 
2599.00, 
2600.00, 
