"2cP4 - RawData"
"Wavelength nm.","T%"
200.00,0.001
201.00,0.001
202.00,-0.000
203.00,0.001
204.00,0.000
205.00,0.004
206.00,0.001
207.00,-0.000
208.00,0.006
209.00,0.002
210.00,-0.003
211.00,0.000
212.00,-0.001
213.00,-0.000
214.00,0.002
215.00,0.002
216.00,0.001
217.00,0.005
218.00,0.003
219.00,-0.001
220.00,-0.001
221.00,-0.000
222.00,0.001
223.00,0.001
224.00,-0.001
225.00,0.000
226.00,-0.000
227.00,-0.000
228.00,0.003
229.00,0.001
230.00,-0.000
231.00,0.002
232.00,-0.001
233.00,0.002
234.00,0.001
235.00,-0.000
236.00,0.003
237.00,-0.001
238.00,-0.000
239.00,-0.000
240.00,0.000
241.00,0.000
242.00,0.001
243.00,-0.000
244.00,0.000
245.00,0.000
246.00,-0.001
247.00,0.001
248.00,-0.001
249.00,0.002
250.00,0.000
251.00,-0.001
252.00,0.003
253.00,0.001
254.00,0.001
255.00,0.000
256.00,0.002
257.00,0.001
258.00,-0.000
259.00,-0.001
260.00,-0.001
261.00,0.000
262.00,-0.002
263.00,0.000
264.00,-0.001
265.00,0.002
266.00,0.001
267.00,0.001
268.00,0.000
269.00,0.001
270.00,0.000
271.00,0.001
272.00,0.001
273.00,-0.001
274.00,0.001
275.00,0.001
276.00,-0.001
277.00,0.001
278.00,0.000
279.00,0.000
280.00,-0.001
281.00,-0.001
282.00,-0.001
283.00,0.001
284.00,0.000
285.00,0.002
286.00,0.001
287.00,-0.001
288.00,0.001
289.00,0.002
290.00,-0.001
291.00,-0.001
292.00,-0.002
293.00,-0.001
294.00,-0.001
295.00,0.000
296.00,0.001
297.00,0.001
298.00,0.000
299.00,0.002
300.00,0.002
301.00,0.003
302.00,0.005
303.00,0.007
304.00,0.012
305.00,0.017
306.00,0.026
307.00,0.039
308.00,0.063
309.00,0.097
310.00,0.137
311.00,0.189
312.00,0.251
313.00,0.338
314.00,0.445
315.00,0.580
316.00,0.741
317.00,0.935
318.00,1.158
319.00,1.428
320.00,1.721
321.00,2.061
322.00,2.453
323.00,2.884
324.00,3.329
325.00,3.725
326.00,4.285
327.00,4.843
328.00,5.399
329.00,5.984
330.00,6.605
331.00,7.182
332.00,7.804
333.00,8.452
334.00,9.104
335.00,9.758
336.00,10.381
337.00,11.039
338.00,11.645
339.00,12.219
340.00,12.850
341.00,13.410
342.00,13.949
343.00,14.496
344.00,14.974
345.00,15.520
346.00,15.924
347.00,16.332
348.00,16.770
349.00,17.155
350.00,17.520
351.00,17.797
352.00,18.154
353.00,18.468
354.00,18.692
355.00,18.978
356.00,19.243
357.00,19.527
358.00,19.692
359.00,19.887
360.00,20.063
361.00,20.186
362.00,20.355
363.00,20.525
364.00,20.673
365.00,20.639
366.00,20.845
367.00,20.915
368.00,20.968
369.00,21.008
370.00,21.076
371.00,21.095
372.00,21.120
373.00,21.121
374.00,21.097
375.00,21.061
376.00,21.038
377.00,21.012
378.00,20.987
379.00,20.922
380.00,20.889
381.00,20.910
382.00,20.876
383.00,20.903
384.00,20.927
385.00,20.949
386.00,20.977
387.00,21.030
388.00,21.089
389.00,21.038
390.00,21.073
391.00,21.061
392.00,21.133
393.00,21.153
394.00,21.162
395.00,21.179
396.00,21.176
397.00,21.178
398.00,21.216
399.00,21.202
400.00,21.246
401.00,21.245
402.00,21.205
403.00,21.212
404.00,21.221
405.00,21.190
406.00,21.194
407.00,21.175
408.00,21.184
409.00,21.106
410.00,21.096
411.00,21.048
412.00,21.093
413.00,21.084
414.00,21.063
415.00,21.100
416.00,21.124
417.00,21.160
418.00,21.187
419.00,21.221
420.00,21.244
421.00,21.340
422.00,21.379
423.00,21.376
424.00,21.405
425.00,21.452
426.00,21.474
427.00,21.548
428.00,21.581
429.00,21.629
430.00,21.687
431.00,21.735
432.00,21.786
433.00,21.861
434.00,21.903
435.00,21.910
436.00,22.041
437.00,22.121
438.00,22.202
439.00,22.256
440.00,22.371
441.00,22.427
442.00,22.516
443.00,22.597
444.00,22.692
445.00,22.795
446.00,22.889
447.00,22.976
448.00,23.079
449.00,23.206
450.00,23.301
451.00,23.400
452.00,23.527
453.00,23.604
454.00,23.721
455.00,23.861
456.00,23.965
457.00,24.105
458.00,24.193
459.00,24.325
460.00,24.434
461.00,24.575
462.00,24.712
463.00,24.840
464.00,24.955
465.00,25.084
466.00,25.210
467.00,25.337
468.00,25.446
469.00,25.596
470.00,25.674
471.00,25.815
472.00,25.914
473.00,26.022
474.00,26.141
475.00,26.286
476.00,26.360
477.00,26.477
478.00,26.597
479.00,26.752
480.00,26.862
481.00,27.056
482.00,27.180
483.00,27.329
484.00,27.500
485.00,27.674
486.00,27.838
487.00,27.965
488.00,28.160
489.00,28.343
490.00,28.493
491.00,28.572
492.00,28.816
493.00,28.882
494.00,28.907
495.00,29.065
496.00,29.223
497.00,29.307
498.00,29.513
499.00,29.640
500.00,29.757
501.00,29.872
502.00,30.017
503.00,30.148
504.00,30.257
505.00,30.416
506.00,30.480
507.00,30.629
508.00,30.720
509.00,30.879
510.00,30.981
511.00,31.094
512.00,31.228
513.00,31.358
514.00,31.488
515.00,31.618
516.00,31.720
517.00,31.815
518.00,31.973
519.00,32.042
520.00,32.144
521.00,32.207
522.00,32.252
523.00,32.371
524.00,32.467
525.00,32.522
526.00,32.683
527.00,32.724
528.00,32.810
529.00,32.949
530.00,33.055
531.00,33.207
532.00,33.305
533.00,33.373
534.00,33.459
535.00,33.563
536.00,33.552
537.00,33.714
538.00,33.832
539.00,33.865
540.00,33.965
541.00,34.019
542.00,34.074
543.00,34.149
544.00,34.250
545.00,34.245
546.00,34.334
547.00,34.462
548.00,34.471
549.00,34.543
550.00,34.650
551.00,34.653
552.00,34.831
553.00,34.905
554.00,34.960
555.00,35.052
556.00,35.108
557.00,35.171
558.00,35.187
559.00,35.257
560.00,35.354
561.00,35.378
562.00,35.430
563.00,35.472
564.00,35.572
565.00,35.589
566.00,35.555
567.00,35.633
568.00,35.653
569.00,35.620
570.00,35.756
571.00,35.726
572.00,35.714
573.00,35.888
574.00,35.947
575.00,35.941
576.00,36.016
577.00,36.089
578.00,36.071
579.00,36.159
580.00,36.216
581.00,36.304
582.00,36.380
583.00,36.452
584.00,36.516
585.00,36.535
586.00,36.568
587.00,36.589
588.00,36.744
589.00,36.789
590.00,36.883
591.00,36.874
592.00,36.983
593.00,37.051
594.00,36.991
595.00,36.979
596.00,37.059
597.00,37.023
598.00,37.253
599.00,37.276
600.00,37.352
601.00,37.401
602.00,37.462
603.00,37.438
604.00,37.489
605.00,37.578
606.00,37.647
607.00,37.688
608.00,37.752
609.00,37.806
610.00,37.694
611.00,37.819
612.00,37.851
613.00,37.910
614.00,38.005
615.00,38.047
616.00,38.103
617.00,38.193
618.00,38.211
619.00,38.298
620.00,38.296
621.00,38.397
622.00,38.431
623.00,38.516
624.00,38.598
625.00,38.654
626.00,38.690
627.00,38.757
628.00,38.817
629.00,38.878
630.00,38.951
631.00,38.958
632.00,39.027
633.00,39.163
634.00,39.236
635.00,39.339
636.00,39.421
637.00,39.514
638.00,39.565
639.00,39.654
640.00,39.642
641.00,39.653
642.00,39.647
643.00,39.784
644.00,40.078
645.00,40.194
646.00,40.204
647.00,40.312
648.00,40.323
649.00,40.453
650.00,40.500
651.00,40.572
652.00,40.717
653.00,40.751
654.00,40.878
655.00,40.954
656.00,41.050
657.00,41.113
658.00,41.271
659.00,41.389
660.00,41.401
661.00,41.486
662.00,41.686
663.00,41.679
664.00,41.920
665.00,41.919
666.00,41.998
667.00,42.205
668.00,42.295
669.00,42.351
670.00,42.472
671.00,42.530
672.00,42.568
673.00,42.724
674.00,42.858
675.00,42.987
676.00,43.068
677.00,43.176
678.00,43.135
679.00,43.185
680.00,43.413
681.00,43.524
682.00,43.556
683.00,43.714
684.00,43.847
685.00,43.949
686.00,43.904
687.00,44.071
688.00,44.164
689.00,44.263
690.00,44.364
691.00,44.482
692.00,44.514
693.00,44.657
694.00,44.528
695.00,44.812
696.00,44.858
697.00,44.955
698.00,44.970
699.00,45.261
700.00,45.558
701.00,45.432
702.00,45.484
703.00,45.653
704.00,45.731
705.00,45.736
706.00,45.943
707.00,45.917
708.00,45.895
709.00,46.187
710.00,46.172
711.00,46.210
712.00,46.231
713.00,46.449
714.00,46.481
715.00,46.556
716.00,46.541
717.00,46.595
718.00,46.611
719.00,46.749
720.00,46.811
721.00,51.028
722.00,51.156
723.00,51.123
724.00,51.143
725.00,51.208
726.00,51.215
727.00,51.236
728.00,51.249
729.00,51.226
730.00,51.363
731.00,51.401
732.00,51.374
733.00,51.461
734.00,51.494
735.00,51.471
736.00,51.522
737.00,51.583
738.00,51.628
739.00,51.697
740.00,51.711
741.00,51.803
742.00,51.816
743.00,51.812
744.00,51.853
745.00,51.811
746.00,51.855
747.00,51.880
748.00,51.814
749.00,51.856
750.00,51.859
751.00,51.864
752.00,51.900
753.00,51.932
754.00,51.974
755.00,51.939
756.00,51.975
757.00,51.966
758.00,52.005
759.00,52.003
760.00,52.038
761.00,52.035
762.00,51.962
763.00,52.089
764.00,52.032
765.00,52.103
766.00,52.093
767.00,52.145
768.00,52.165
769.00,52.189
770.00,52.213
771.00,52.217
772.00,52.262
773.00,52.205
774.00,52.282
775.00,52.360
776.00,52.209
777.00,52.244
778.00,52.303
779.00,52.321
780.00,52.363
781.00,52.241
782.00,52.321
783.00,52.319
784.00,52.278
785.00,52.273
786.00,52.294
787.00,52.315
788.00,52.277
789.00,52.271
790.00,52.265
791.00,52.286
792.00,52.275
793.00,52.225
794.00,52.283
795.00,52.196
796.00,52.275
797.00,52.177
798.00,52.205
799.00,52.188
800.00,52.172
801.00,52.170
802.00,52.232
803.00,52.176
804.00,52.148
805.00,52.158
806.00,52.193
807.00,52.133
808.00,52.169
809.00,52.015
810.00,52.056
811.00,52.123
812.00,52.106
813.00,51.997
814.00,52.087
815.00,52.003
816.00,52.102
817.00,51.971
818.00,51.978
819.00,51.929
820.00,51.920
821.00,51.917
822.00,51.966
823.00,51.849
824.00,52.026
825.00,51.862
826.00,52.001
827.00,51.974
828.00,51.713
829.00,51.799
830.00,51.791
831.00,54.038
832.00,54.057
833.00,53.997
834.00,54.035
835.00,53.967
836.00,53.973
837.00,53.944
838.00,53.922
839.00,53.877
840.00,53.841
841.00,53.889
842.00,53.820
843.00,53.843
844.00,53.834
845.00,53.781
846.00,53.819
847.00,53.787
848.00,53.781
849.00,53.707
850.00,53.666
851.00,53.636
852.00,53.635
853.00,53.605
854.00,53.568
855.00,53.535
856.00,53.546
857.00,53.481
858.00,53.472
859.00,53.412
860.00,53.456
861.00,53.440
862.00,53.379
863.00,53.389
864.00,53.390
865.00,53.326
866.00,53.337
867.00,53.380
868.00,53.317
869.00,53.309
870.00,53.338
871.00,53.318
872.00,53.338
873.00,53.299
874.00,53.336
875.00,53.269
876.00,53.300
877.00,53.264
878.00,53.288
879.00,53.241
880.00,53.233
881.00,53.184
882.00,53.222
883.00,53.175
884.00,53.144
885.00,53.151
886.00,53.085
887.00,53.066
888.00,53.085
889.00,52.997
890.00,53.016
891.00,52.988
892.00,52.976
893.00,52.945
894.00,52.957
895.00,52.933
896.00,52.901
897.00,52.877
898.00,52.859
899.00,52.869
900.00,52.853
901.00,52.847
902.00,52.849
903.00,52.826
904.00,52.799
905.00,52.783
906.00,52.777
907.00,52.743
908.00,52.717
909.00,52.695
910.00,52.668
911.00,52.686
912.00,52.675
913.00,52.619
914.00,52.605
915.00,52.578
916.00,52.573
917.00,52.554
918.00,52.531
919.00,52.487
920.00,52.476
921.00,52.449
922.00,52.450
923.00,52.408
924.00,52.393
925.00,52.406
926.00,52.389
927.00,52.372
928.00,52.337
929.00,52.332
930.00,52.335
931.00,52.310
932.00,52.259
933.00,52.286
934.00,52.274
935.00,52.229
936.00,52.202
937.00,52.182
938.00,52.177
939.00,52.170
940.00,52.134
941.00,52.127
942.00,52.091
943.00,52.096
944.00,52.065
945.00,52.056
946.00,52.044
947.00,52.021
948.00,52.007
949.00,51.979
950.00,51.961
951.00,51.946
952.00,51.910
953.00,51.877
954.00,51.857
955.00,51.829
956.00,51.822
957.00,51.789
958.00,51.799
959.00,51.746
960.00,51.730
961.00,51.717
962.00,51.721
963.00,51.661
964.00,51.677
965.00,51.658
966.00,51.649
967.00,51.632
968.00,51.614
969.00,51.656
970.00,51.613
971.00,51.626
972.00,51.606
973.00,51.632
974.00,51.660
975.00,51.612
976.00,51.638
977.00,51.617
978.00,51.653
979.00,51.612
980.00,51.640
981.00,51.619
982.00,51.606
983.00,51.610
984.00,51.591
985.00,51.610
986.00,51.578
987.00,51.591
988.00,51.569
989.00,51.548
990.00,51.546
991.00,51.535
992.00,51.539
993.00,51.497
994.00,51.486
995.00,51.494
996.00,51.468
997.00,51.460
998.00,51.435
999.00,51.459
1000.00,51.388
1001.00,51.397
1002.00,51.474
1003.00,51.408
1004.00,51.378
1005.00,51.350
1006.00,51.376
1007.00,51.340
1008.00,51.323
1009.00,51.315
1010.00,51.306
1011.00,51.293
1012.00,51.250
1013.00,51.276
1014.00,51.219
1015.00,51.228
1016.00,51.215
1017.00,51.203
1018.00,51.200
1019.00,51.160
1020.00,51.150
1021.00,51.133
1022.00,51.138
1023.00,51.087
1024.00,51.093
1025.00,51.070
1026.00,51.068
1027.00,51.043
1028.00,51.036
1029.00,51.026
1030.00,50.991
1031.00,51.001
1032.00,50.964
1033.00,50.964
1034.00,50.922
1035.00,50.899
1036.00,50.881
1037.00,50.854
1038.00,50.850
1039.00,50.805
1040.00,50.811
1041.00,50.772
1042.00,50.773
1043.00,50.754
1044.00,50.775
1045.00,50.752
1046.00,50.757
1047.00,50.774
1048.00,50.776
1049.00,50.786
1050.00,50.778
1051.00,50.827
1052.00,50.827
1053.00,50.835
1054.00,50.833
1055.00,50.852
1056.00,50.855
1057.00,50.853
1058.00,50.837
1059.00,50.831
1060.00,50.838
1061.00,50.807
1062.00,50.793
1063.00,50.824
1064.00,50.792
1065.00,50.793
1066.00,50.789
1067.00,50.767
1068.00,50.792
1069.00,50.749
1070.00,50.741
1071.00,50.728
1072.00,50.742
1073.00,50.715
1074.00,50.719
1075.00,50.705
1076.00,50.700
1077.00,50.685
1078.00,50.657
1079.00,50.667
1080.00,50.659
1081.00,50.633
1082.00,50.638
1083.00,50.635
1084.00,50.627
1085.00,50.612
1086.00,50.608
1087.00,50.608
1088.00,50.579
1089.00,50.571
1090.00,50.568
1091.00,50.566
1092.00,50.553
1093.00,50.542
1094.00,50.520
1095.00,50.508
1096.00,50.500
1097.00,50.485
1098.00,50.496
1099.00,50.487
1100.00,50.467
1101.00,50.473
1102.00,50.456
1103.00,50.455
1104.00,50.450
1105.00,50.428
1106.00,50.426
1107.00,50.420
1108.00,50.434
1109.00,50.424
1110.00,50.394
1111.00,50.369
1112.00,50.360
1113.00,50.343
1114.00,50.340
1115.00,50.350
1116.00,50.339
1117.00,50.320
1118.00,50.314
1119.00,50.312
1120.00,50.310
1121.00,50.302
1122.00,50.288
1123.00,50.281
1124.00,50.281
1125.00,50.254
1126.00,50.255
1127.00,50.253
1128.00,50.240
1129.00,50.231
1130.00,50.221
1131.00,50.233
1132.00,50.207
1133.00,50.207
1134.00,50.206
1135.00,50.195
1136.00,50.192
1137.00,50.185
1138.00,50.184
1139.00,50.181
1140.00,50.172
1141.00,50.162
1142.00,50.169
1143.00,50.176
1144.00,50.136
1145.00,50.145
1146.00,50.138
1147.00,50.127
1148.00,50.129
1149.00,50.128
1150.00,50.125
1151.00,50.129
1152.00,50.114
1153.00,50.118
1154.00,50.105
1155.00,50.101
1156.00,50.099
1157.00,50.095
1158.00,50.085
1159.00,50.079
1160.00,50.079
1161.00,50.090
1162.00,50.084
1163.00,50.082
1164.00,50.079
1165.00,50.078
1166.00,50.066
1167.00,50.079
1168.00,50.076
1169.00,50.061
1170.00,50.069
1171.00,50.040
1172.00,50.047
1173.00,50.040
1174.00,50.052
1175.00,50.048
1176.00,50.050
1177.00,50.024
1178.00,50.045
1179.00,50.033
1180.00,50.028
1181.00,50.059
1182.00,50.058
1183.00,50.083
1184.00,50.047
1185.00,50.040
1186.00,50.020
1187.00,50.027
1188.00,50.016
1189.00,50.028
1190.00,50.018
1191.00,50.013
1192.00,50.034
1193.00,50.011
1194.00,50.017
1195.00,49.987
1196.00,50.016
1197.00,50.025
1198.00,50.004
1199.00,50.002
1200.00,50.004
1201.00,50.013
1202.00,49.982
1203.00,50.000
1204.00,49.976
1205.00,49.997
1206.00,49.987
1207.00,49.998
1208.00,49.994
1209.00,49.974
1210.00,49.984
1211.00,49.986
1212.00,49.994
1213.00,49.947
1214.00,49.980
1215.00,49.966
1216.00,49.960
1217.00,49.970
1218.00,49.978
1219.00,49.985
1220.00,49.956
1221.00,49.965
1222.00,49.965
1223.00,49.984
1224.00,49.984
1225.00,49.990
1226.00,49.988
1227.00,49.962
1228.00,49.980
1229.00,49.971
1230.00,50.008
1231.00,50.007
1232.00,50.030
1233.00,50.034
1234.00,50.021
1235.00,50.024
1236.00,50.025
1237.00,50.009
1238.00,50.011
1239.00,50.015
1240.00,50.003
1241.00,50.037
1242.00,50.027
1243.00,50.032
1244.00,50.016
1245.00,50.036
1246.00,50.049
1247.00,50.046
1248.00,50.041
1249.00,50.041
1250.00,50.047
1251.00,50.048
1252.00,50.064
1253.00,50.048
1254.00,50.069
1255.00,50.057
1256.00,50.038
1257.00,50.032
1258.00,50.076
1259.00,50.052
1260.00,50.090
1261.00,50.085
1262.00,50.055
1263.00,50.058
1264.00,50.063
1265.00,50.067
1266.00,50.071
1267.00,50.076
1268.00,50.085
1269.00,50.088
1270.00,50.091
1271.00,50.090
1272.00,50.097
1273.00,50.103
1274.00,50.119
1275.00,50.122
1276.00,50.112
1277.00,50.120
1278.00,50.127
1279.00,50.126
1280.00,50.135
1281.00,50.140
1282.00,50.152
1283.00,50.132
1284.00,50.132
1285.00,50.130
1286.00,50.138
1287.00,50.129
1288.00,50.141
1289.00,50.145
1290.00,50.174
1291.00,50.167
1292.00,50.150
1293.00,50.157
1294.00,50.179
1295.00,50.185
1296.00,50.200
1297.00,50.198
1298.00,50.222
1299.00,50.199
1300.00,50.222
1301.00,50.218
1302.00,50.236
1303.00,50.243
1304.00,50.228
1305.00,50.255
1306.00,50.254
1307.00,50.266
1308.00,50.254
1309.00,50.259
1310.00,50.267
1311.00,50.260
1312.00,50.265
1313.00,50.272
1314.00,50.276
1315.00,50.282
1316.00,50.288
1317.00,50.304
1318.00,50.292
1319.00,50.302
1320.00,50.314
1321.00,50.475
1322.00,50.469
1323.00,50.444
1324.00,50.445
1325.00,50.427
1326.00,50.475
1327.00,50.426
1328.00,50.439
1329.00,50.458
1330.00,50.442
1331.00,50.443
1332.00,50.454
1333.00,50.430
1334.00,50.472
1335.00,50.489
1336.00,50.522
1337.00,50.535
1338.00,50.597
1339.00,50.637
1340.00,50.720
1341.00,50.763
1342.00,50.830
1343.00,50.888
1344.00,50.927
1345.00,50.997
1346.00,51.042
1347.00,51.051
1348.00,51.096
1349.00,51.103
1350.00,51.121
1351.00,51.133
1352.00,51.129
1353.00,51.140
1354.00,51.159
1355.00,51.098
1356.00,51.149
1357.00,51.206
1358.00,51.194
1359.00,51.195
1360.00,51.268
1361.00,51.231
1362.00,51.081
1363.00,51.240
1364.00,51.215
1365.00,51.158
1366.00,51.242
1367.00,51.188
1368.00,51.082
1369.00,51.157
1370.00,51.155
1371.00,51.110
1372.00,51.132
1373.00,51.157
1374.00,51.164
1375.00,51.144
1376.00,51.166
1377.00,51.116
1378.00,51.137
1379.00,51.158
1380.00,51.137
1381.00,51.185
1382.00,51.143
1383.00,51.127
1384.00,51.098
1385.00,51.099
1386.00,51.122
1387.00,51.086
1388.00,51.094
1389.00,51.122
1390.00,51.132
1391.00,51.046
1392.00,51.108
1393.00,51.176
1394.00,51.129
1395.00,51.101
1396.00,51.039
1397.00,51.051
1398.00,51.153
1399.00,51.134
1400.00,51.053
1401.00,51.075
1402.00,51.177
1403.00,51.162
1404.00,51.078
1405.00,51.154
1406.00,51.136
1407.00,51.168
1408.00,51.182
1409.00,51.159
1410.00,51.186
1411.00,51.164
1412.00,51.239
1413.00,51.187
1414.00,51.189
1415.00,51.235
1416.00,51.238
1417.00,51.266
1418.00,51.256
1419.00,51.257
1420.00,51.306
1421.00,51.325
1422.00,51.309
1423.00,51.322
1424.00,51.325
1425.00,51.344
1426.00,51.340
1427.00,51.359
1428.00,51.376
1429.00,51.379
1430.00,51.393
1431.00,51.413
1432.00,51.419
1433.00,51.443
1434.00,51.444
1435.00,51.487
1436.00,51.495
1437.00,51.479
1438.00,51.486
1439.00,51.527
1440.00,51.529
1441.00,51.539
1442.00,51.551
1443.00,51.579
1444.00,51.616
1445.00,51.589
1446.00,51.590
1447.00,51.638
1448.00,51.723
1449.00,51.646
1450.00,51.655
1451.00,51.677
1452.00,51.687
1453.00,51.716
1454.00,51.717
1455.00,51.753
1456.00,51.767
1457.00,51.758
1458.00,51.816
1459.00,51.806
1460.00,51.803
1461.00,51.811
1462.00,51.832
1463.00,51.888
1464.00,51.880
1465.00,51.886
1466.00,51.893
1467.00,51.921
1468.00,51.939
1469.00,51.947
1470.00,51.951
1471.00,51.961
1472.00,51.978
1473.00,51.989
1474.00,52.016
1475.00,52.029
1476.00,52.022
1477.00,52.022
1478.00,52.068
1479.00,52.060
1480.00,52.087
1481.00,52.095
1482.00,52.106
1483.00,52.132
1484.00,52.128
1485.00,52.131
1486.00,52.147
1487.00,52.167
1488.00,52.188
1489.00,52.170
1490.00,52.175
1491.00,52.211
1492.00,52.242
1493.00,52.206
1494.00,52.242
1495.00,52.240
1496.00,52.244
1497.00,52.255
1498.00,52.268
1499.00,52.274
1500.00,52.304
1501.00, 
1502.00, 
1503.00, 
1504.00, 
1505.00, 
1506.00, 
1507.00, 
1508.00, 
1509.00, 
1510.00, 
1511.00, 
1512.00, 
1513.00, 
1514.00, 
1515.00, 
1516.00, 
1517.00, 
1518.00, 
1519.00, 
1520.00, 
1521.00, 
1522.00, 
1523.00, 
1524.00, 
1525.00, 
1526.00, 
1527.00, 
1528.00, 
1529.00, 
1530.00, 
1531.00, 
1532.00, 
1533.00, 
1534.00, 
1535.00, 
1536.00, 
1537.00, 
1538.00, 
1539.00, 
1540.00, 
1541.00, 
1542.00, 
1543.00, 
1544.00, 
1545.00, 
1546.00, 
1547.00, 
1548.00, 
1549.00, 
1550.00, 
1551.00, 
1552.00, 
1553.00, 
1554.00, 
1555.00, 
1556.00, 
1557.00, 
1558.00, 
1559.00, 
1560.00, 
1561.00, 
1562.00, 
1563.00, 
1564.00, 
1565.00, 
1566.00, 
1567.00, 
1568.00, 
1569.00, 
1570.00, 
1571.00, 
1572.00, 
1573.00, 
1574.00, 
1575.00, 
1576.00, 
1577.00, 
1578.00, 
1579.00, 
1580.00, 
1581.00, 
1582.00, 
1583.00, 
1584.00, 
1585.00, 
1586.00, 
1587.00, 
1588.00, 
1589.00, 
1590.00, 
1591.00, 
1592.00, 
1593.00, 
1594.00, 
1595.00, 
1596.00, 
1597.00, 
1598.00, 
1599.00, 
1600.00, 
1601.00, 
1602.00, 
1603.00, 
1604.00, 
1605.00, 
1606.00, 
1607.00, 
1608.00, 
1609.00, 
1610.00, 
1611.00, 
1612.00, 
1613.00, 
1614.00, 
1615.00, 
1616.00, 
1617.00, 
1618.00, 
1619.00, 
1620.00, 
1621.00, 
1622.00, 
1623.00, 
1624.00, 
1625.00, 
1626.00, 
1627.00, 
1628.00, 
1629.00, 
1630.00, 
1631.00, 
1632.00, 
1633.00, 
1634.00, 
1635.00, 
1636.00, 
1637.00, 
1638.00, 
1639.00, 
1640.00, 
1641.00, 
1642.00, 
1643.00, 
1644.00, 
1645.00, 
1646.00, 
1647.00, 
1648.00, 
1649.00, 
1650.00, 
1651.00, 
1652.00, 
1653.00, 
1654.00, 
1655.00, 
1656.00, 
1657.00, 
1658.00, 
1659.00, 
1660.00, 
1661.00, 
1662.00, 
1663.00, 
1664.00, 
1665.00, 
1666.00, 
1667.00, 
1668.00, 
1669.00, 
1670.00, 
1671.00, 
1672.00, 
1673.00, 
1674.00, 
1675.00, 
1676.00, 
1677.00, 
1678.00, 
1679.00, 
1680.00, 
1681.00, 
1682.00, 
1683.00, 
1684.00, 
1685.00, 
1686.00, 
1687.00, 
1688.00, 
1689.00, 
1690.00, 
1691.00, 
1692.00, 
1693.00, 
1694.00, 
1695.00, 
1696.00, 
1697.00, 
1698.00, 
1699.00, 
1700.00, 
1701.00, 
1702.00, 
1703.00, 
1704.00, 
1705.00, 
1706.00, 
1707.00, 
1708.00, 
1709.00, 
1710.00, 
1711.00, 
1712.00, 
1713.00, 
1714.00, 
1715.00, 
1716.00, 
1717.00, 
1718.00, 
1719.00, 
1720.00, 
1721.00, 
1722.00, 
1723.00, 
1724.00, 
1725.00, 
1726.00, 
1727.00, 
1728.00, 
1729.00, 
1730.00, 
1731.00, 
1732.00, 
1733.00, 
1734.00, 
1735.00, 
1736.00, 
1737.00, 
1738.00, 
1739.00, 
1740.00, 
1741.00, 
1742.00, 
1743.00, 
1744.00, 
1745.00, 
1746.00, 
1747.00, 
1748.00, 
1749.00, 
1750.00, 
1751.00, 
1752.00, 
1753.00, 
1754.00, 
1755.00, 
1756.00, 
1757.00, 
1758.00, 
1759.00, 
1760.00, 
1761.00, 
1762.00, 
1763.00, 
1764.00, 
1765.00, 
1766.00, 
1767.00, 
1768.00, 
1769.00, 
1770.00, 
1771.00, 
1772.00, 
1773.00, 
1774.00, 
1775.00, 
1776.00, 
1777.00, 
1778.00, 
1779.00, 
1780.00, 
1781.00, 
1782.00, 
1783.00, 
1784.00, 
1785.00, 
1786.00, 
1787.00, 
1788.00, 
1789.00, 
1790.00, 
1791.00, 
1792.00, 
1793.00, 
1794.00, 
1795.00, 
1796.00, 
1797.00, 
1798.00, 
1799.00, 
1800.00, 
1801.00, 
1802.00, 
1803.00, 
1804.00, 
1805.00, 
1806.00, 
1807.00, 
1808.00, 
1809.00, 
1810.00, 
1811.00, 
1812.00, 
1813.00, 
1814.00, 
1815.00, 
1816.00, 
1817.00, 
1818.00, 
1819.00, 
1820.00, 
1821.00, 
1822.00, 
1823.00, 
1824.00, 
1825.00, 
1826.00, 
1827.00, 
1828.00, 
1829.00, 
1830.00, 
1831.00, 
1832.00, 
1833.00, 
1834.00, 
1835.00, 
1836.00, 
1837.00, 
1838.00, 
1839.00, 
1840.00, 
1841.00, 
1842.00, 
1843.00, 
1844.00, 
1845.00, 
1846.00, 
1847.00, 
1848.00, 
1849.00, 
1850.00, 
1851.00, 
1852.00, 
1853.00, 
1854.00, 
1855.00, 
1856.00, 
1857.00, 
1858.00, 
1859.00, 
1860.00, 
1861.00, 
1862.00, 
1863.00, 
1864.00, 
1865.00, 
1866.00, 
1867.00, 
1868.00, 
1869.00, 
1870.00, 
1871.00, 
1872.00, 
1873.00, 
1874.00, 
1875.00, 
1876.00, 
1877.00, 
1878.00, 
1879.00, 
1880.00, 
1881.00, 
1882.00, 
1883.00, 
1884.00, 
1885.00, 
1886.00, 
1887.00, 
1888.00, 
1889.00, 
1890.00, 
1891.00, 
1892.00, 
1893.00, 
1894.00, 
1895.00, 
1896.00, 
1897.00, 
1898.00, 
1899.00, 
1900.00, 
1901.00, 
1902.00, 
1903.00, 
1904.00, 
1905.00, 
1906.00, 
1907.00, 
1908.00, 
1909.00, 
1910.00, 
1911.00, 
1912.00, 
1913.00, 
1914.00, 
1915.00, 
1916.00, 
1917.00, 
1918.00, 
1919.00, 
1920.00, 
1921.00, 
1922.00, 
1923.00, 
1924.00, 
1925.00, 
1926.00, 
1927.00, 
1928.00, 
1929.00, 
1930.00, 
1931.00, 
1932.00, 
1933.00, 
1934.00, 
1935.00, 
1936.00, 
1937.00, 
1938.00, 
1939.00, 
1940.00, 
1941.00, 
1942.00, 
1943.00, 
1944.00, 
1945.00, 
1946.00, 
1947.00, 
1948.00, 
1949.00, 
1950.00, 
1951.00, 
1952.00, 
1953.00, 
1954.00, 
1955.00, 
1956.00, 
1957.00, 
1958.00, 
1959.00, 
1960.00, 
1961.00, 
1962.00, 
1963.00, 
1964.00, 
1965.00, 
1966.00, 
1967.00, 
1968.00, 
1969.00, 
1970.00, 
1971.00, 
1972.00, 
1973.00, 
1974.00, 
1975.00, 
1976.00, 
1977.00, 
1978.00, 
1979.00, 
1980.00, 
1981.00, 
1982.00, 
1983.00, 
1984.00, 
1985.00, 
1986.00, 
1987.00, 
1988.00, 
1989.00, 
1990.00, 
1991.00, 
1992.00, 
1993.00, 
1994.00, 
1995.00, 
1996.00, 
1997.00, 
1998.00, 
1999.00, 
2000.00, 
2001.00, 
2002.00, 
2003.00, 
2004.00, 
2005.00, 
2006.00, 
2007.00, 
2008.00, 
2009.00, 
2010.00, 
2011.00, 
2012.00, 
2013.00, 
2014.00, 
2015.00, 
2016.00, 
2017.00, 
2018.00, 
2019.00, 
2020.00, 
2021.00, 
2022.00, 
2023.00, 
2024.00, 
2025.00, 
2026.00, 
2027.00, 
2028.00, 
2029.00, 
2030.00, 
2031.00, 
2032.00, 
2033.00, 
2034.00, 
2035.00, 
2036.00, 
2037.00, 
2038.00, 
2039.00, 
2040.00, 
2041.00, 
2042.00, 
2043.00, 
2044.00, 
2045.00, 
2046.00, 
2047.00, 
2048.00, 
2049.00, 
2050.00, 
2051.00, 
2052.00, 
2053.00, 
2054.00, 
2055.00, 
2056.00, 
2057.00, 
2058.00, 
2059.00, 
2060.00, 
2061.00, 
2062.00, 
2063.00, 
2064.00, 
2065.00, 
2066.00, 
2067.00, 
2068.00, 
2069.00, 
2070.00, 
2071.00, 
2072.00, 
2073.00, 
2074.00, 
2075.00, 
2076.00, 
2077.00, 
2078.00, 
2079.00, 
2080.00, 
2081.00, 
2082.00, 
2083.00, 
2084.00, 
2085.00, 
2086.00, 
2087.00, 
2088.00, 
2089.00, 
2090.00, 
2091.00, 
2092.00, 
2093.00, 
2094.00, 
2095.00, 
2096.00, 
2097.00, 
2098.00, 
2099.00, 
2100.00, 
2101.00, 
2102.00, 
2103.00, 
2104.00, 
2105.00, 
2106.00, 
2107.00, 
2108.00, 
2109.00, 
2110.00, 
2111.00, 
2112.00, 
2113.00, 
2114.00, 
2115.00, 
2116.00, 
2117.00, 
2118.00, 
2119.00, 
2120.00, 
2121.00, 
2122.00, 
2123.00, 
2124.00, 
2125.00, 
2126.00, 
2127.00, 
2128.00, 
2129.00, 
2130.00, 
2131.00, 
2132.00, 
2133.00, 
2134.00, 
2135.00, 
2136.00, 
2137.00, 
2138.00, 
2139.00, 
2140.00, 
2141.00, 
2142.00, 
2143.00, 
2144.00, 
2145.00, 
2146.00, 
2147.00, 
2148.00, 
2149.00, 
2150.00, 
2151.00, 
2152.00, 
2153.00, 
2154.00, 
2155.00, 
2156.00, 
2157.00, 
2158.00, 
2159.00, 
2160.00, 
2161.00, 
2162.00, 
2163.00, 
2164.00, 
2165.00, 
2166.00, 
2167.00, 
2168.00, 
2169.00, 
2170.00, 
2171.00, 
2172.00, 
2173.00, 
2174.00, 
2175.00, 
2176.00, 
2177.00, 
2178.00, 
2179.00, 
2180.00, 
2181.00, 
2182.00, 
2183.00, 
2184.00, 
2185.00, 
2186.00, 
2187.00, 
2188.00, 
2189.00, 
2190.00, 
2191.00, 
2192.00, 
2193.00, 
2194.00, 
2195.00, 
2196.00, 
2197.00, 
2198.00, 
2199.00, 
2200.00, 
2201.00, 
2202.00, 
2203.00, 
2204.00, 
2205.00, 
2206.00, 
2207.00, 
2208.00, 
2209.00, 
2210.00, 
2211.00, 
2212.00, 
2213.00, 
2214.00, 
2215.00, 
2216.00, 
2217.00, 
2218.00, 
2219.00, 
2220.00, 
2221.00, 
2222.00, 
2223.00, 
2224.00, 
2225.00, 
2226.00, 
2227.00, 
2228.00, 
2229.00, 
2230.00, 
2231.00, 
2232.00, 
2233.00, 
2234.00, 
2235.00, 
2236.00, 
2237.00, 
2238.00, 
2239.00, 
2240.00, 
2241.00, 
2242.00, 
2243.00, 
2244.00, 
2245.00, 
2246.00, 
2247.00, 
2248.00, 
2249.00, 
2250.00, 
2251.00, 
2252.00, 
2253.00, 
2254.00, 
2255.00, 
2256.00, 
2257.00, 
2258.00, 
2259.00, 
2260.00, 
2261.00, 
2262.00, 
2263.00, 
2264.00, 
2265.00, 
2266.00, 
2267.00, 
2268.00, 
2269.00, 
2270.00, 
2271.00, 
2272.00, 
2273.00, 
2274.00, 
2275.00, 
2276.00, 
2277.00, 
2278.00, 
2279.00, 
2280.00, 
2281.00, 
2282.00, 
2283.00, 
2284.00, 
2285.00, 
2286.00, 
2287.00, 
2288.00, 
2289.00, 
2290.00, 
2291.00, 
2292.00, 
2293.00, 
2294.00, 
2295.00, 
2296.00, 
2297.00, 
2298.00, 
2299.00, 
2300.00, 
2301.00, 
2302.00, 
2303.00, 
2304.00, 
2305.00, 
2306.00, 
2307.00, 
2308.00, 
2309.00, 
2310.00, 
2311.00, 
2312.00, 
2313.00, 
2314.00, 
2315.00, 
2316.00, 
2317.00, 
2318.00, 
2319.00, 
2320.00, 
2321.00, 
2322.00, 
2323.00, 
2324.00, 
2325.00, 
2326.00, 
2327.00, 
2328.00, 
2329.00, 
2330.00, 
2331.00, 
2332.00, 
2333.00, 
2334.00, 
2335.00, 
2336.00, 
2337.00, 
2338.00, 
2339.00, 
2340.00, 
2341.00, 
2342.00, 
2343.00, 
2344.00, 
2345.00, 
2346.00, 
2347.00, 
2348.00, 
2349.00, 
2350.00, 
2351.00, 
2352.00, 
2353.00, 
2354.00, 
2355.00, 
2356.00, 
2357.00, 
2358.00, 
2359.00, 
2360.00, 
2361.00, 
2362.00, 
2363.00, 
2364.00, 
2365.00, 
2366.00, 
2367.00, 
2368.00, 
2369.00, 
2370.00, 
2371.00, 
2372.00, 
2373.00, 
2374.00, 
2375.00, 
2376.00, 
2377.00, 
2378.00, 
2379.00, 
2380.00, 
2381.00, 
2382.00, 
2383.00, 
2384.00, 
2385.00, 
2386.00, 
2387.00, 
2388.00, 
2389.00, 
2390.00, 
2391.00, 
2392.00, 
2393.00, 
2394.00, 
2395.00, 
2396.00, 
2397.00, 
2398.00, 
2399.00, 
2400.00, 
2401.00, 
2402.00, 
2403.00, 
2404.00, 
2405.00, 
2406.00, 
2407.00, 
2408.00, 
2409.00, 
2410.00, 
2411.00, 
2412.00, 
2413.00, 
2414.00, 
2415.00, 
2416.00, 
2417.00, 
2418.00, 
2419.00, 
2420.00, 
2421.00, 
2422.00, 
2423.00, 
2424.00, 
2425.00, 
2426.00, 
2427.00, 
2428.00, 
2429.00, 
2430.00, 
2431.00, 
2432.00, 
2433.00, 
2434.00, 
2435.00, 
2436.00, 
2437.00, 
2438.00, 
2439.00, 
2440.00, 
2441.00, 
2442.00, 
2443.00, 
2444.00, 
2445.00, 
2446.00, 
2447.00, 
2448.00, 
2449.00, 
2450.00, 
2451.00, 
2452.00, 
2453.00, 
2454.00, 
2455.00, 
2456.00, 
2457.00, 
2458.00, 
2459.00, 
2460.00, 
2461.00, 
2462.00, 
2463.00, 
2464.00, 
2465.00, 
2466.00, 
2467.00, 
2468.00, 
2469.00, 
2470.00, 
2471.00, 
2472.00, 
2473.00, 
2474.00, 
2475.00, 
2476.00, 
2477.00, 
2478.00, 
2479.00, 
2480.00, 
2481.00, 
2482.00, 
2483.00, 
2484.00, 
2485.00, 
2486.00, 
2487.00, 
2488.00, 
2489.00, 
2490.00, 
2491.00, 
2492.00, 
2493.00, 
2494.00, 
2495.00, 
2496.00, 
2497.00, 
2498.00, 
2499.00, 
2500.00, 
2501.00, 
2502.00, 
2503.00, 
2504.00, 
2505.00, 
2506.00, 
2507.00, 
2508.00, 
2509.00, 
2510.00, 
2511.00, 
2512.00, 
2513.00, 
2514.00, 
2515.00, 
2516.00, 
2517.00, 
2518.00, 
2519.00, 
2520.00, 
2521.00, 
2522.00, 
2523.00, 
2524.00, 
2525.00, 
2526.00, 
2527.00, 
2528.00, 
2529.00, 
2530.00, 
2531.00, 
2532.00, 
2533.00, 
2534.00, 
2535.00, 
2536.00, 
2537.00, 
2538.00, 
2539.00, 
2540.00, 
2541.00, 
2542.00, 
2543.00, 
2544.00, 
2545.00, 
2546.00, 
2547.00, 
2548.00, 
2549.00, 
2550.00, 
2551.00, 
2552.00, 
2553.00, 
2554.00, 
2555.00, 
2556.00, 
2557.00, 
2558.00, 
2559.00, 
2560.00, 
2561.00, 
2562.00, 
2563.00, 
2564.00, 
2565.00, 
2566.00, 
2567.00, 
2568.00, 
2569.00, 
2570.00, 
2571.00, 
2572.00, 
2573.00, 
2574.00, 
2575.00, 
2576.00, 
2577.00, 
2578.00, 
2579.00, 
2580.00, 
2581.00, 
2582.00, 
2583.00, 
2584.00, 
2585.00, 
2586.00, 
2587.00, 
2588.00, 
2589.00, 
2590.00, 
2591.00, 
2592.00, 
2593.00, 
2594.00, 
2595.00, 
2596.00, 
2597.00, 
2598.00, 
2599.00, 
2600.00, 
