"2cP5 - RawData"
"Wavelength nm.","T%"
200.00,-0.000
201.00,0.000
202.00,-0.000
203.00,0.000
204.00,-0.001
205.00,0.000
206.00,-0.001
207.00,0.001
208.00,0.002
209.00,0.003
210.00,-0.002
211.00,0.001
212.00,0.000
213.00,0.001
214.00,0.003
215.00,0.001
216.00,0.002
217.00,0.004
218.00,-0.001
219.00,0.001
220.00,0.002
221.00,0.003
222.00,0.001
223.00,0.003
224.00,0.003
225.00,0.002
226.00,0.002
227.00,0.001
228.00,0.000
229.00,0.001
230.00,0.000
231.00,0.001
232.00,-0.000
233.00,-0.001
234.00,0.000
235.00,0.001
236.00,-0.000
237.00,0.001
238.00,-0.002
239.00,-0.000
240.00,0.000
241.00,-0.001
242.00,-0.002
243.00,0.001
244.00,-0.001
245.00,0.000
246.00,0.002
247.00,0.000
248.00,0.001
249.00,-0.001
250.00,0.000
251.00,-0.003
252.00,0.001
253.00,0.000
254.00,0.002
255.00,0.000
256.00,0.001
257.00,-0.000
258.00,0.000
259.00,0.002
260.00,-0.000
261.00,-0.002
262.00,-0.001
263.00,-0.000
264.00,0.000
265.00,-0.001
266.00,-0.001
267.00,0.000
268.00,-0.000
269.00,0.001
270.00,-0.000
271.00,-0.001
272.00,0.002
273.00,-0.000
274.00,0.000
275.00,0.001
276.00,-0.001
277.00,0.001
278.00,0.001
279.00,0.001
280.00,0.000
281.00,-0.000
282.00,0.001
283.00,-0.001
284.00,0.000
285.00,0.003
286.00,-0.001
287.00,0.001
288.00,-0.001
289.00,0.002
290.00,0.001
291.00,-0.001
292.00,-0.001
293.00,-0.001
294.00,-0.000
295.00,-0.000
296.00,0.001
297.00,0.001
298.00,0.001
299.00,0.003
300.00,0.002
301.00,0.002
302.00,0.003
303.00,0.005
304.00,0.011
305.00,0.019
306.00,0.026
307.00,0.035
308.00,0.058
309.00,0.095
310.00,0.128
311.00,0.179
312.00,0.235
313.00,0.316
314.00,0.418
315.00,0.534
316.00,0.689
317.00,0.880
318.00,1.086
319.00,1.327
320.00,1.601
321.00,1.924
322.00,2.271
323.00,2.693
324.00,3.094
325.00,3.527
326.00,3.997
327.00,4.528
328.00,5.049
329.00,5.560
330.00,6.150
331.00,6.698
332.00,7.282
333.00,7.915
334.00,8.471
335.00,9.074
336.00,9.670
337.00,10.283
338.00,10.881
339.00,11.424
340.00,11.970
341.00,12.524
342.00,13.009
343.00,13.498
344.00,13.916
345.00,14.446
346.00,14.865
347.00,15.252
348.00,15.616
349.00,15.978
350.00,16.287
351.00,16.594
352.00,16.879
353.00,17.191
354.00,17.431
355.00,17.700
356.00,17.903
357.00,18.117
358.00,18.287
359.00,18.494
360.00,18.666
361.00,18.781
362.00,18.929
363.00,19.086
364.00,19.153
365.00,19.173
366.00,19.278
367.00,19.376
368.00,19.398
369.00,19.438
370.00,19.512
371.00,19.503
372.00,19.527
373.00,19.509
374.00,19.528
375.00,19.516
376.00,19.494
377.00,19.417
378.00,19.363
379.00,19.301
380.00,19.278
381.00,19.287
382.00,19.258
383.00,19.272
384.00,19.287
385.00,19.325
386.00,19.331
387.00,19.395
388.00,19.432
389.00,19.368
390.00,19.425
391.00,19.473
392.00,19.468
393.00,19.463
394.00,19.473
395.00,19.497
396.00,19.480
397.00,19.501
398.00,19.507
399.00,19.511
400.00,19.510
401.00,19.511
402.00,19.468
403.00,19.484
404.00,19.501
405.00,19.460
406.00,19.451
407.00,19.429
408.00,19.447
409.00,19.391
410.00,19.345
411.00,19.337
412.00,19.330
413.00,19.382
414.00,19.343
415.00,19.361
416.00,19.416
417.00,19.393
418.00,19.406
419.00,19.482
420.00,19.539
421.00,19.572
422.00,19.599
423.00,19.638
424.00,19.653
425.00,19.693
426.00,19.692
427.00,19.766
428.00,19.800
429.00,19.845
430.00,19.915
431.00,19.956
432.00,20.015
433.00,20.100
434.00,20.136
435.00,20.204
436.00,20.246
437.00,20.339
438.00,20.425
439.00,20.463
440.00,20.565
441.00,20.641
442.00,20.697
443.00,20.792
444.00,20.896
445.00,20.984
446.00,21.087
447.00,21.200
448.00,21.279
449.00,21.407
450.00,21.501
451.00,21.581
452.00,21.690
453.00,21.821
454.00,21.921
455.00,22.011
456.00,22.144
457.00,22.244
458.00,22.346
459.00,22.511
460.00,22.640
461.00,22.765
462.00,22.885
463.00,23.029
464.00,23.124
465.00,23.281
466.00,23.426
467.00,23.538
468.00,23.651
469.00,23.800
470.00,23.902
471.00,24.021
472.00,24.107
473.00,24.213
474.00,24.364
475.00,24.502
476.00,24.590
477.00,24.686
478.00,24.841
479.00,25.025
480.00,25.158
481.00,25.246
482.00,25.424
483.00,25.540
484.00,25.761
485.00,25.898
486.00,26.082
487.00,26.247
488.00,26.403
489.00,26.574
490.00,26.721
491.00,26.824
492.00,27.080
493.00,27.191
494.00,27.213
495.00,27.360
496.00,27.529
497.00,27.654
498.00,27.815
499.00,27.949
500.00,28.095
501.00,28.211
502.00,28.373
503.00,28.478
504.00,28.546
505.00,28.719
506.00,28.786
507.00,28.898
508.00,29.060
509.00,29.236
510.00,29.343
511.00,29.430
512.00,29.608
513.00,29.751
514.00,29.859
515.00,29.976
516.00,30.138
517.00,30.183
518.00,30.359
519.00,30.442
520.00,30.486
521.00,30.631
522.00,30.691
523.00,30.750
524.00,30.845
525.00,30.950
526.00,31.039
527.00,31.143
528.00,31.243
529.00,31.401
530.00,31.533
531.00,31.646
532.00,31.755
533.00,31.848
534.00,31.941
535.00,32.050
536.00,32.118
537.00,32.201
538.00,32.281
539.00,32.329
540.00,32.419
541.00,32.467
542.00,32.582
543.00,32.596
544.00,32.713
545.00,32.794
546.00,32.814
547.00,32.952
548.00,33.045
549.00,33.085
550.00,33.148
551.00,33.252
552.00,33.336
553.00,33.354
554.00,33.478
555.00,33.518
556.00,33.562
557.00,33.601
558.00,33.650
559.00,33.758
560.00,33.847
561.00,33.934
562.00,33.945
563.00,34.001
564.00,34.060
565.00,34.106
566.00,34.109
567.00,34.147
568.00,34.245
569.00,34.241
570.00,34.329
571.00,34.370
572.00,34.417
573.00,34.361
574.00,34.430
575.00,34.453
576.00,34.500
577.00,34.595
578.00,34.631
579.00,34.764
580.00,34.753
581.00,34.868
582.00,34.942
583.00,34.943
584.00,35.011
585.00,35.110
586.00,35.175
587.00,35.304
588.00,35.263
589.00,35.235
590.00,35.374
591.00,35.410
592.00,35.466
593.00,35.530
594.00,35.520
595.00,35.602
596.00,35.662
597.00,35.742
598.00,35.813
599.00,35.784
600.00,35.850
601.00,35.920
602.00,35.962
603.00,35.950
604.00,35.992
605.00,36.080
606.00,36.064
607.00,36.144
608.00,36.279
609.00,36.386
610.00,36.275
611.00,36.341
612.00,36.339
613.00,36.432
614.00,36.492
615.00,36.571
616.00,36.661
617.00,36.689
618.00,36.697
619.00,36.765
620.00,36.801
621.00,36.925
622.00,36.965
623.00,37.016
624.00,37.071
625.00,37.100
626.00,37.248
627.00,37.300
628.00,37.333
629.00,37.360
630.00,37.414
631.00,37.494
632.00,37.590
633.00,37.686
634.00,37.783
635.00,37.896
636.00,37.956
637.00,38.000
638.00,38.065
639.00,38.239
640.00,38.268
641.00,38.314
642.00,38.364
643.00,38.475
644.00,38.633
645.00,38.707
646.00,38.717
647.00,38.806
648.00,38.903
649.00,38.914
650.00,38.974
651.00,39.138
652.00,39.261
653.00,39.239
654.00,39.356
655.00,39.536
656.00,39.759
657.00,39.547
658.00,39.710
659.00,39.854
660.00,39.925
661.00,39.988
662.00,40.041
663.00,40.196
664.00,40.461
665.00,40.612
666.00,40.516
667.00,40.609
668.00,40.714
669.00,40.949
670.00,41.140
671.00,41.123
672.00,41.254
673.00,41.345
674.00,41.409
675.00,41.545
676.00,41.727
677.00,41.894
678.00,41.711
679.00,41.806
680.00,42.034
681.00,42.214
682.00,42.180
683.00,42.284
684.00,42.524
685.00,42.633
686.00,42.540
687.00,42.662
688.00,42.736
689.00,42.809
690.00,43.068
691.00,43.347
692.00,43.200
693.00,43.243
694.00,43.417
695.00,43.601
696.00,43.626
697.00,43.685
698.00,43.778
699.00,44.080
700.00,44.024
701.00,44.142
702.00,44.236
703.00,44.376
704.00,44.498
705.00,44.433
706.00,44.531
707.00,44.514
708.00,44.712
709.00,45.140
710.00,44.970
711.00,44.970
712.00,44.970
713.00,45.223
714.00,45.342
715.00,45.321
716.00,45.326
717.00,45.479
718.00,45.460
719.00,45.513
720.00,45.674
721.00,50.136
722.00,50.248
723.00,50.258
724.00,50.169
725.00,50.294
726.00,50.359
727.00,50.374
728.00,50.382
729.00,50.434
730.00,50.465
731.00,50.492
732.00,50.529
733.00,50.590
734.00,50.763
735.00,50.718
736.00,50.713
737.00,50.814
738.00,50.873
739.00,50.900
740.00,50.969
741.00,50.977
742.00,51.090
743.00,51.096
744.00,51.076
745.00,51.072
746.00,51.135
747.00,51.137
748.00,51.175
749.00,51.138
750.00,51.121
751.00,51.189
752.00,51.175
753.00,51.289
754.00,51.265
755.00,51.270
756.00,51.307
757.00,51.312
758.00,51.373
759.00,51.365
760.00,51.420
761.00,51.397
762.00,51.406
763.00,51.498
764.00,51.427
765.00,51.506
766.00,51.501
767.00,51.483
768.00,51.630
769.00,51.593
770.00,51.636
771.00,51.706
772.00,51.662
773.00,51.692
774.00,51.756
775.00,51.678
776.00,51.722
777.00,51.706
778.00,51.776
779.00,51.824
780.00,51.803
781.00,51.795
782.00,51.779
783.00,51.815
784.00,51.807
785.00,51.774
786.00,51.808
787.00,51.844
788.00,51.779
789.00,51.778
790.00,51.776
791.00,51.916
792.00,51.771
793.00,51.756
794.00,51.796
795.00,51.749
796.00,51.842
797.00,51.824
798.00,51.786
799.00,51.775
800.00,51.725
801.00,51.804
802.00,51.829
803.00,51.727
804.00,51.713
805.00,51.764
806.00,51.741
807.00,51.727
808.00,51.689
809.00,51.688
810.00,51.644
811.00,51.783
812.00,51.745
813.00,51.684
814.00,51.687
815.00,51.682
816.00,51.678
817.00,51.577
818.00,51.617
819.00,51.561
820.00,51.555
821.00,51.580
822.00,51.578
823.00,51.541
824.00,51.624
825.00,51.479
826.00,51.578
827.00,51.631
828.00,51.561
829.00,51.537
830.00,51.546
831.00,53.714
832.00,53.717
833.00,53.679
834.00,53.687
835.00,53.646
836.00,53.625
837.00,53.608
838.00,53.582
839.00,53.668
840.00,53.528
841.00,53.561
842.00,53.494
843.00,53.513
844.00,53.514
845.00,53.470
846.00,53.512
847.00,53.456
848.00,53.452
849.00,53.381
850.00,53.350
851.00,53.288
852.00,53.333
853.00,53.289
854.00,53.262
855.00,53.242
856.00,53.314
857.00,53.212
858.00,53.165
859.00,53.115
860.00,53.163
861.00,53.153
862.00,53.051
863.00,53.129
864.00,53.084
865.00,53.086
866.00,53.089
867.00,53.101
868.00,53.055
869.00,53.060
870.00,53.056
871.00,53.070
872.00,53.057
873.00,53.009
874.00,53.052
875.00,52.988
876.00,53.017
877.00,52.956
878.00,52.982
879.00,52.958
880.00,52.946
881.00,52.918
882.00,52.956
883.00,52.904
884.00,52.849
885.00,52.882
886.00,52.854
887.00,52.830
888.00,52.836
889.00,52.737
890.00,52.775
891.00,52.744
892.00,52.734
893.00,52.721
894.00,52.743
895.00,52.689
896.00,52.676
897.00,52.655
898.00,52.626
899.00,52.630
900.00,52.590
901.00,52.604
902.00,52.630
903.00,52.604
904.00,52.577
905.00,52.587
906.00,52.559
907.00,52.531
908.00,52.489
909.00,52.466
910.00,52.440
911.00,52.451
912.00,52.440
913.00,52.401
914.00,52.396
915.00,52.354
916.00,52.333
917.00,52.337
918.00,52.325
919.00,52.275
920.00,52.262
921.00,52.238
922.00,52.256
923.00,52.206
924.00,52.172
925.00,52.203
926.00,52.168
927.00,52.149
928.00,52.113
929.00,52.124
930.00,52.110
931.00,52.110
932.00,52.036
933.00,52.079
934.00,52.050
935.00,52.004
936.00,51.998
937.00,51.970
938.00,51.969
939.00,51.966
940.00,51.919
941.00,51.910
942.00,51.877
943.00,51.873
944.00,51.855
945.00,51.845
946.00,51.840
947.00,51.810
948.00,51.783
949.00,51.742
950.00,51.756
951.00,51.714
952.00,51.669
953.00,51.664
954.00,51.633
955.00,51.605
956.00,51.632
957.00,51.655
958.00,51.573
959.00,51.520
960.00,51.500
961.00,51.505
962.00,51.501
963.00,51.454
964.00,51.462
965.00,51.451
966.00,51.446
967.00,51.439
968.00,51.413
969.00,51.437
970.00,51.394
971.00,51.420
972.00,51.388
973.00,51.415
974.00,51.435
975.00,51.406
976.00,51.419
977.00,51.403
978.00,51.449
979.00,51.395
980.00,51.430
981.00,51.420
982.00,51.366
983.00,51.403
984.00,51.373
985.00,51.390
986.00,51.354
987.00,51.377
988.00,51.352
989.00,51.349
990.00,51.341
991.00,51.334
992.00,51.337
993.00,51.290
994.00,51.296
995.00,51.288
996.00,51.257
997.00,51.254
998.00,51.228
999.00,51.260
1000.00,51.195
1001.00,51.186
1002.00,51.203
1003.00,51.200
1004.00,51.162
1005.00,51.137
1006.00,51.168
1007.00,51.120
1008.00,51.122
1009.00,51.097
1010.00,51.094
1011.00,51.084
1012.00,51.036
1013.00,51.065
1014.00,51.016
1015.00,51.024
1016.00,50.996
1017.00,50.984
1018.00,50.983
1019.00,50.959
1020.00,50.945
1021.00,50.934
1022.00,50.934
1023.00,50.878
1024.00,50.891
1025.00,50.876
1026.00,50.858
1027.00,50.852
1028.00,50.833
1029.00,50.816
1030.00,50.797
1031.00,50.792
1032.00,50.760
1033.00,50.765
1034.00,50.718
1035.00,50.691
1036.00,50.672
1037.00,50.646
1038.00,50.631
1039.00,50.607
1040.00,50.601
1041.00,50.575
1042.00,50.564
1043.00,50.545
1044.00,50.565
1045.00,50.539
1046.00,50.542
1047.00,50.552
1048.00,50.567
1049.00,50.581
1050.00,50.578
1051.00,50.610
1052.00,50.621
1053.00,50.617
1054.00,50.616
1055.00,50.643
1056.00,50.641
1057.00,50.642
1058.00,50.632
1059.00,50.617
1060.00,50.641
1061.00,50.592
1062.00,50.596
1063.00,50.645
1064.00,50.600
1065.00,50.600
1066.00,50.591
1067.00,50.572
1068.00,50.601
1069.00,50.559
1070.00,50.535
1071.00,50.536
1072.00,50.545
1073.00,50.521
1074.00,50.528
1075.00,50.508
1076.00,50.508
1077.00,50.487
1078.00,50.451
1079.00,50.480
1080.00,50.465
1081.00,50.440
1082.00,50.438
1083.00,50.435
1084.00,50.415
1085.00,50.422
1086.00,50.412
1087.00,50.411
1088.00,50.394
1089.00,50.375
1090.00,50.388
1091.00,50.379
1092.00,50.363
1093.00,50.372
1094.00,50.331
1095.00,50.315
1096.00,50.304
1097.00,50.277
1098.00,50.290
1099.00,50.266
1100.00,50.246
1101.00,50.266
1102.00,50.253
1103.00,50.241
1104.00,50.241
1105.00,50.227
1106.00,50.213
1107.00,50.219
1108.00,50.197
1109.00,50.202
1110.00,50.196
1111.00,50.172
1112.00,50.180
1113.00,50.158
1114.00,50.149
1115.00,50.152
1116.00,50.148
1117.00,50.128
1118.00,50.126
1119.00,50.112
1120.00,50.099
1121.00,50.095
1122.00,50.077
1123.00,50.088
1124.00,50.079
1125.00,50.052
1126.00,50.060
1127.00,50.055
1128.00,50.036
1129.00,50.022
1130.00,50.011
1131.00,50.016
1132.00,49.998
1133.00,49.986
1134.00,50.002
1135.00,49.985
1136.00,49.980
1137.00,49.990
1138.00,49.985
1139.00,49.975
1140.00,49.972
1141.00,49.951
1142.00,49.967
1143.00,49.975
1144.00,49.929
1145.00,49.950
1146.00,49.943
1147.00,49.919
1148.00,49.920
1149.00,49.930
1150.00,49.927
1151.00,49.938
1152.00,49.915
1153.00,49.919
1154.00,49.916
1155.00,49.901
1156.00,49.908
1157.00,49.896
1158.00,49.881
1159.00,49.884
1160.00,49.886
1161.00,49.868
1162.00,49.885
1163.00,49.890
1164.00,49.884
1165.00,49.884
1166.00,49.874
1167.00,49.888
1168.00,49.896
1169.00,49.871
1170.00,49.887
1171.00,49.856
1172.00,49.853
1173.00,49.866
1174.00,49.858
1175.00,49.871
1176.00,49.892
1177.00,49.873
1178.00,49.869
1179.00,49.867
1180.00,49.846
1181.00,49.872
1182.00,49.870
1183.00,49.845
1184.00,49.840
1185.00,49.837
1186.00,49.835
1187.00,49.844
1188.00,49.814
1189.00,49.831
1190.00,49.812
1191.00,49.801
1192.00,49.831
1193.00,49.803
1194.00,49.804
1195.00,49.783
1196.00,49.809
1197.00,49.817
1198.00,49.803
1199.00,49.798
1200.00,49.812
1201.00,49.818
1202.00,49.794
1203.00,49.811
1204.00,49.794
1205.00,49.797
1206.00,49.799
1207.00,49.792
1208.00,49.793
1209.00,49.780
1210.00,49.778
1211.00,49.786
1212.00,49.790
1213.00,49.744
1214.00,49.775
1215.00,49.760
1216.00,49.752
1217.00,49.764
1218.00,49.779
1219.00,49.780
1220.00,49.769
1221.00,49.775
1222.00,49.776
1223.00,49.807
1224.00,49.808
1225.00,49.781
1226.00,49.779
1227.00,49.766
1228.00,49.793
1229.00,49.783
1230.00,49.816
1231.00,49.817
1232.00,49.826
1233.00,49.837
1234.00,49.828
1235.00,49.823
1236.00,49.848
1237.00,49.831
1238.00,49.823
1239.00,49.840
1240.00,49.812
1241.00,49.833
1242.00,49.837
1243.00,49.831
1244.00,49.821
1245.00,49.837
1246.00,49.834
1247.00,49.831
1248.00,49.840
1249.00,49.848
1250.00,49.864
1251.00,49.842
1252.00,49.863
1253.00,49.852
1254.00,49.872
1255.00,49.875
1256.00,49.845
1257.00,49.842
1258.00,49.894
1259.00,49.891
1260.00,49.888
1261.00,49.904
1262.00,49.877
1263.00,49.880
1264.00,49.891
1265.00,49.884
1266.00,49.890
1267.00,49.890
1268.00,49.885
1269.00,49.906
1270.00,49.903
1271.00,49.896
1272.00,49.912
1273.00,49.912
1274.00,49.914
1275.00,49.934
1276.00,49.926
1277.00,49.935
1278.00,49.955
1279.00,49.961
1280.00,49.949
1281.00,49.956
1282.00,49.956
1283.00,49.952
1284.00,49.947
1285.00,49.952
1286.00,49.974
1287.00,49.939
1288.00,49.960
1289.00,49.950
1290.00,49.973
1291.00,49.977
1292.00,49.968
1293.00,49.970
1294.00,49.996
1295.00,50.002
1296.00,50.008
1297.00,50.024
1298.00,50.027
1299.00,50.020
1300.00,50.041
1301.00,50.026
1302.00,50.063
1303.00,50.058
1304.00,50.035
1305.00,50.077
1306.00,50.061
1307.00,50.074
1308.00,50.081
1309.00,50.073
1310.00,50.085
1311.00,50.066
1312.00,50.056
1313.00,50.075
1314.00,50.087
1315.00,50.100
1316.00,50.111
1317.00,50.103
1318.00,50.106
1319.00,50.119
1320.00,50.110
1321.00,50.287
1322.00,50.283
1323.00,50.267
1324.00,50.269
1325.00,50.248
1326.00,50.273
1327.00,50.244
1328.00,50.289
1329.00,50.221
1330.00,50.280
1331.00,50.267
1332.00,50.269
1333.00,50.255
1334.00,50.292
1335.00,50.321
1336.00,50.327
1337.00,50.372
1338.00,50.428
1339.00,50.458
1340.00,50.517
1341.00,50.582
1342.00,50.643
1343.00,50.687
1344.00,50.732
1345.00,50.805
1346.00,50.862
1347.00,50.860
1348.00,50.873
1349.00,50.918
1350.00,50.908
1351.00,50.934
1352.00,50.934
1353.00,50.945
1354.00,50.966
1355.00,50.903
1356.00,50.966
1357.00,51.004
1358.00,50.982
1359.00,51.010
1360.00,51.052
1361.00,50.988
1362.00,50.938
1363.00,51.072
1364.00,51.011
1365.00,50.978
1366.00,51.035
1367.00,50.972
1368.00,50.913
1369.00,50.974
1370.00,50.968
1371.00,50.926
1372.00,50.924
1373.00,50.944
1374.00,50.946
1375.00,50.939
1376.00,50.933
1377.00,50.904
1378.00,51.015
1379.00,50.896
1380.00,50.938
1381.00,50.989
1382.00,50.970
1383.00,50.921
1384.00,50.885
1385.00,50.878
1386.00,50.926
1387.00,50.906
1388.00,50.861
1389.00,50.863
1390.00,50.940
1391.00,50.885
1392.00,50.909
1393.00,50.999
1394.00,50.940
1395.00,50.952
1396.00,50.865
1397.00,50.860
1398.00,50.965
1399.00,50.929
1400.00,50.906
1401.00,50.926
1402.00,50.982
1403.00,50.958
1404.00,50.928
1405.00,50.975
1406.00,50.947
1407.00,50.986
1408.00,50.985
1409.00,50.965
1410.00,50.993
1411.00,50.965
1412.00,51.036
1413.00,50.969
1414.00,50.966
1415.00,51.013
1416.00,51.018
1417.00,51.063
1418.00,51.043
1419.00,51.028
1420.00,51.071
1421.00,51.112
1422.00,51.096
1423.00,51.120
1424.00,51.123
1425.00,51.143
1426.00,51.148
1427.00,51.145
1428.00,51.157
1429.00,51.192
1430.00,51.184
1431.00,51.213
1432.00,51.227
1433.00,51.230
1434.00,51.232
1435.00,51.262
1436.00,51.291
1437.00,51.269
1438.00,51.282
1439.00,51.326
1440.00,51.335
1441.00,51.329
1442.00,51.351
1443.00,51.398
1444.00,51.425
1445.00,51.389
1446.00,51.406
1447.00,51.453
1448.00,51.476
1449.00,51.472
1450.00,51.480
1451.00,51.499
1452.00,51.489
1453.00,51.527
1454.00,51.539
1455.00,51.550
1456.00,51.564
1457.00,51.560
1458.00,51.597
1459.00,51.615
1460.00,51.622
1461.00,51.625
1462.00,51.646
1463.00,51.674
1464.00,51.670
1465.00,51.673
1466.00,51.670
1467.00,51.720
1468.00,51.753
1469.00,51.759
1470.00,51.763
1471.00,51.770
1472.00,51.777
1473.00,51.791
1474.00,51.804
1475.00,51.820
1476.00,51.820
1477.00,51.806
1478.00,51.882
1479.00,51.884
1480.00,51.868
1481.00,51.884
1482.00,51.896
1483.00,51.920
1484.00,51.920
1485.00,51.922
1486.00,51.931
1487.00,51.963
1488.00,51.970
1489.00,51.971
1490.00,51.983
1491.00,52.001
1492.00,52.029
1493.00,52.014
1494.00,52.039
1495.00,52.043
1496.00,52.039
1497.00,52.059
1498.00,52.058
1499.00,52.060
1500.00,52.092
1501.00, 
1502.00, 
1503.00, 
1504.00, 
1505.00, 
1506.00, 
1507.00, 
1508.00, 
1509.00, 
1510.00, 
1511.00, 
1512.00, 
1513.00, 
1514.00, 
1515.00, 
1516.00, 
1517.00, 
1518.00, 
1519.00, 
1520.00, 
1521.00, 
1522.00, 
1523.00, 
1524.00, 
1525.00, 
1526.00, 
1527.00, 
1528.00, 
1529.00, 
1530.00, 
1531.00, 
1532.00, 
1533.00, 
1534.00, 
1535.00, 
1536.00, 
1537.00, 
1538.00, 
1539.00, 
1540.00, 
1541.00, 
1542.00, 
1543.00, 
1544.00, 
1545.00, 
1546.00, 
1547.00, 
1548.00, 
1549.00, 
1550.00, 
1551.00, 
1552.00, 
1553.00, 
1554.00, 
1555.00, 
1556.00, 
1557.00, 
1558.00, 
1559.00, 
1560.00, 
1561.00, 
1562.00, 
1563.00, 
1564.00, 
1565.00, 
1566.00, 
1567.00, 
1568.00, 
1569.00, 
1570.00, 
1571.00, 
1572.00, 
1573.00, 
1574.00, 
1575.00, 
1576.00, 
1577.00, 
1578.00, 
1579.00, 
1580.00, 
1581.00, 
1582.00, 
1583.00, 
1584.00, 
1585.00, 
1586.00, 
1587.00, 
1588.00, 
1589.00, 
1590.00, 
1591.00, 
1592.00, 
1593.00, 
1594.00, 
1595.00, 
1596.00, 
1597.00, 
1598.00, 
1599.00, 
1600.00, 
1601.00, 
1602.00, 
1603.00, 
1604.00, 
1605.00, 
1606.00, 
1607.00, 
1608.00, 
1609.00, 
1610.00, 
1611.00, 
1612.00, 
1613.00, 
1614.00, 
1615.00, 
1616.00, 
1617.00, 
1618.00, 
1619.00, 
1620.00, 
1621.00, 
1622.00, 
1623.00, 
1624.00, 
1625.00, 
1626.00, 
1627.00, 
1628.00, 
1629.00, 
1630.00, 
1631.00, 
1632.00, 
1633.00, 
1634.00, 
1635.00, 
1636.00, 
1637.00, 
1638.00, 
1639.00, 
1640.00, 
1641.00, 
1642.00, 
1643.00, 
1644.00, 
1645.00, 
1646.00, 
1647.00, 
1648.00, 
1649.00, 
1650.00, 
1651.00, 
1652.00, 
1653.00, 
1654.00, 
1655.00, 
1656.00, 
1657.00, 
1658.00, 
1659.00, 
1660.00, 
1661.00, 
1662.00, 
1663.00, 
1664.00, 
1665.00, 
1666.00, 
1667.00, 
1668.00, 
1669.00, 
1670.00, 
1671.00, 
1672.00, 
1673.00, 
1674.00, 
1675.00, 
1676.00, 
1677.00, 
1678.00, 
1679.00, 
1680.00, 
1681.00, 
1682.00, 
1683.00, 
1684.00, 
1685.00, 
1686.00, 
1687.00, 
1688.00, 
1689.00, 
1690.00, 
1691.00, 
1692.00, 
1693.00, 
1694.00, 
1695.00, 
1696.00, 
1697.00, 
1698.00, 
1699.00, 
1700.00, 
1701.00, 
1702.00, 
1703.00, 
1704.00, 
1705.00, 
1706.00, 
1707.00, 
1708.00, 
1709.00, 
1710.00, 
1711.00, 
1712.00, 
1713.00, 
1714.00, 
1715.00, 
1716.00, 
1717.00, 
1718.00, 
1719.00, 
1720.00, 
1721.00, 
1722.00, 
1723.00, 
1724.00, 
1725.00, 
1726.00, 
1727.00, 
1728.00, 
1729.00, 
1730.00, 
1731.00, 
1732.00, 
1733.00, 
1734.00, 
1735.00, 
1736.00, 
1737.00, 
1738.00, 
1739.00, 
1740.00, 
1741.00, 
1742.00, 
1743.00, 
1744.00, 
1745.00, 
1746.00, 
1747.00, 
1748.00, 
1749.00, 
1750.00, 
1751.00, 
1752.00, 
1753.00, 
1754.00, 
1755.00, 
1756.00, 
1757.00, 
1758.00, 
1759.00, 
1760.00, 
1761.00, 
1762.00, 
1763.00, 
1764.00, 
1765.00, 
1766.00, 
1767.00, 
1768.00, 
1769.00, 
1770.00, 
1771.00, 
1772.00, 
1773.00, 
1774.00, 
1775.00, 
1776.00, 
1777.00, 
1778.00, 
1779.00, 
1780.00, 
1781.00, 
1782.00, 
1783.00, 
1784.00, 
1785.00, 
1786.00, 
1787.00, 
1788.00, 
1789.00, 
1790.00, 
1791.00, 
1792.00, 
1793.00, 
1794.00, 
1795.00, 
1796.00, 
1797.00, 
1798.00, 
1799.00, 
1800.00, 
1801.00, 
1802.00, 
1803.00, 
1804.00, 
1805.00, 
1806.00, 
1807.00, 
1808.00, 
1809.00, 
1810.00, 
1811.00, 
1812.00, 
1813.00, 
1814.00, 
1815.00, 
1816.00, 
1817.00, 
1818.00, 
1819.00, 
1820.00, 
1821.00, 
1822.00, 
1823.00, 
1824.00, 
1825.00, 
1826.00, 
1827.00, 
1828.00, 
1829.00, 
1830.00, 
1831.00, 
1832.00, 
1833.00, 
1834.00, 
1835.00, 
1836.00, 
1837.00, 
1838.00, 
1839.00, 
1840.00, 
1841.00, 
1842.00, 
1843.00, 
1844.00, 
1845.00, 
1846.00, 
1847.00, 
1848.00, 
1849.00, 
1850.00, 
1851.00, 
1852.00, 
1853.00, 
1854.00, 
1855.00, 
1856.00, 
1857.00, 
1858.00, 
1859.00, 
1860.00, 
1861.00, 
1862.00, 
1863.00, 
1864.00, 
1865.00, 
1866.00, 
1867.00, 
1868.00, 
1869.00, 
1870.00, 
1871.00, 
1872.00, 
1873.00, 
1874.00, 
1875.00, 
1876.00, 
1877.00, 
1878.00, 
1879.00, 
1880.00, 
1881.00, 
1882.00, 
1883.00, 
1884.00, 
1885.00, 
1886.00, 
1887.00, 
1888.00, 
1889.00, 
1890.00, 
1891.00, 
1892.00, 
1893.00, 
1894.00, 
1895.00, 
1896.00, 
1897.00, 
1898.00, 
1899.00, 
1900.00, 
1901.00, 
1902.00, 
1903.00, 
1904.00, 
1905.00, 
1906.00, 
1907.00, 
1908.00, 
1909.00, 
1910.00, 
1911.00, 
1912.00, 
1913.00, 
1914.00, 
1915.00, 
1916.00, 
1917.00, 
1918.00, 
1919.00, 
1920.00, 
1921.00, 
1922.00, 
1923.00, 
1924.00, 
1925.00, 
1926.00, 
1927.00, 
1928.00, 
1929.00, 
1930.00, 
1931.00, 
1932.00, 
1933.00, 
1934.00, 
1935.00, 
1936.00, 
1937.00, 
1938.00, 
1939.00, 
1940.00, 
1941.00, 
1942.00, 
1943.00, 
1944.00, 
1945.00, 
1946.00, 
1947.00, 
1948.00, 
1949.00, 
1950.00, 
1951.00, 
1952.00, 
1953.00, 
1954.00, 
1955.00, 
1956.00, 
1957.00, 
1958.00, 
1959.00, 
1960.00, 
1961.00, 
1962.00, 
1963.00, 
1964.00, 
1965.00, 
1966.00, 
1967.00, 
1968.00, 
1969.00, 
1970.00, 
1971.00, 
1972.00, 
1973.00, 
1974.00, 
1975.00, 
1976.00, 
1977.00, 
1978.00, 
1979.00, 
1980.00, 
1981.00, 
1982.00, 
1983.00, 
1984.00, 
1985.00, 
1986.00, 
1987.00, 
1988.00, 
1989.00, 
1990.00, 
1991.00, 
1992.00, 
1993.00, 
1994.00, 
1995.00, 
1996.00, 
1997.00, 
1998.00, 
1999.00, 
2000.00, 
2001.00, 
2002.00, 
2003.00, 
2004.00, 
2005.00, 
2006.00, 
2007.00, 
2008.00, 
2009.00, 
2010.00, 
2011.00, 
2012.00, 
2013.00, 
2014.00, 
2015.00, 
2016.00, 
2017.00, 
2018.00, 
2019.00, 
2020.00, 
2021.00, 
2022.00, 
2023.00, 
2024.00, 
2025.00, 
2026.00, 
2027.00, 
2028.00, 
2029.00, 
2030.00, 
2031.00, 
2032.00, 
2033.00, 
2034.00, 
2035.00, 
2036.00, 
2037.00, 
2038.00, 
2039.00, 
2040.00, 
2041.00, 
2042.00, 
2043.00, 
2044.00, 
2045.00, 
2046.00, 
2047.00, 
2048.00, 
2049.00, 
2050.00, 
2051.00, 
2052.00, 
2053.00, 
2054.00, 
2055.00, 
2056.00, 
2057.00, 
2058.00, 
2059.00, 
2060.00, 
2061.00, 
2062.00, 
2063.00, 
2064.00, 
2065.00, 
2066.00, 
2067.00, 
2068.00, 
2069.00, 
2070.00, 
2071.00, 
2072.00, 
2073.00, 
2074.00, 
2075.00, 
2076.00, 
2077.00, 
2078.00, 
2079.00, 
2080.00, 
2081.00, 
2082.00, 
2083.00, 
2084.00, 
2085.00, 
2086.00, 
2087.00, 
2088.00, 
2089.00, 
2090.00, 
2091.00, 
2092.00, 
2093.00, 
2094.00, 
2095.00, 
2096.00, 
2097.00, 
2098.00, 
2099.00, 
2100.00, 
2101.00, 
2102.00, 
2103.00, 
2104.00, 
2105.00, 
2106.00, 
2107.00, 
2108.00, 
2109.00, 
2110.00, 
2111.00, 
2112.00, 
2113.00, 
2114.00, 
2115.00, 
2116.00, 
2117.00, 
2118.00, 
2119.00, 
2120.00, 
2121.00, 
2122.00, 
2123.00, 
2124.00, 
2125.00, 
2126.00, 
2127.00, 
2128.00, 
2129.00, 
2130.00, 
2131.00, 
2132.00, 
2133.00, 
2134.00, 
2135.00, 
2136.00, 
2137.00, 
2138.00, 
2139.00, 
2140.00, 
2141.00, 
2142.00, 
2143.00, 
2144.00, 
2145.00, 
2146.00, 
2147.00, 
2148.00, 
2149.00, 
2150.00, 
2151.00, 
2152.00, 
2153.00, 
2154.00, 
2155.00, 
2156.00, 
2157.00, 
2158.00, 
2159.00, 
2160.00, 
2161.00, 
2162.00, 
2163.00, 
2164.00, 
2165.00, 
2166.00, 
2167.00, 
2168.00, 
2169.00, 
2170.00, 
2171.00, 
2172.00, 
2173.00, 
2174.00, 
2175.00, 
2176.00, 
2177.00, 
2178.00, 
2179.00, 
2180.00, 
2181.00, 
2182.00, 
2183.00, 
2184.00, 
2185.00, 
2186.00, 
2187.00, 
2188.00, 
2189.00, 
2190.00, 
2191.00, 
2192.00, 
2193.00, 
2194.00, 
2195.00, 
2196.00, 
2197.00, 
2198.00, 
2199.00, 
2200.00, 
2201.00, 
2202.00, 
2203.00, 
2204.00, 
2205.00, 
2206.00, 
2207.00, 
2208.00, 
2209.00, 
2210.00, 
2211.00, 
2212.00, 
2213.00, 
2214.00, 
2215.00, 
2216.00, 
2217.00, 
2218.00, 
2219.00, 
2220.00, 
2221.00, 
2222.00, 
2223.00, 
2224.00, 
2225.00, 
2226.00, 
2227.00, 
2228.00, 
2229.00, 
2230.00, 
2231.00, 
2232.00, 
2233.00, 
2234.00, 
2235.00, 
2236.00, 
2237.00, 
2238.00, 
2239.00, 
2240.00, 
2241.00, 
2242.00, 
2243.00, 
2244.00, 
2245.00, 
2246.00, 
2247.00, 
2248.00, 
2249.00, 
2250.00, 
2251.00, 
2252.00, 
2253.00, 
2254.00, 
2255.00, 
2256.00, 
2257.00, 
2258.00, 
2259.00, 
2260.00, 
2261.00, 
2262.00, 
2263.00, 
2264.00, 
2265.00, 
2266.00, 
2267.00, 
2268.00, 
2269.00, 
2270.00, 
2271.00, 
2272.00, 
2273.00, 
2274.00, 
2275.00, 
2276.00, 
2277.00, 
2278.00, 
2279.00, 
2280.00, 
2281.00, 
2282.00, 
2283.00, 
2284.00, 
2285.00, 
2286.00, 
2287.00, 
2288.00, 
2289.00, 
2290.00, 
2291.00, 
2292.00, 
2293.00, 
2294.00, 
2295.00, 
2296.00, 
2297.00, 
2298.00, 
2299.00, 
2300.00, 
2301.00, 
2302.00, 
2303.00, 
2304.00, 
2305.00, 
2306.00, 
2307.00, 
2308.00, 
2309.00, 
2310.00, 
2311.00, 
2312.00, 
2313.00, 
2314.00, 
2315.00, 
2316.00, 
2317.00, 
2318.00, 
2319.00, 
2320.00, 
2321.00, 
2322.00, 
2323.00, 
2324.00, 
2325.00, 
2326.00, 
2327.00, 
2328.00, 
2329.00, 
2330.00, 
2331.00, 
2332.00, 
2333.00, 
2334.00, 
2335.00, 
2336.00, 
2337.00, 
2338.00, 
2339.00, 
2340.00, 
2341.00, 
2342.00, 
2343.00, 
2344.00, 
2345.00, 
2346.00, 
2347.00, 
2348.00, 
2349.00, 
2350.00, 
2351.00, 
2352.00, 
2353.00, 
2354.00, 
2355.00, 
2356.00, 
2357.00, 
2358.00, 
2359.00, 
2360.00, 
2361.00, 
2362.00, 
2363.00, 
2364.00, 
2365.00, 
2366.00, 
2367.00, 
2368.00, 
2369.00, 
2370.00, 
2371.00, 
2372.00, 
2373.00, 
2374.00, 
2375.00, 
2376.00, 
2377.00, 
2378.00, 
2379.00, 
2380.00, 
2381.00, 
2382.00, 
2383.00, 
2384.00, 
2385.00, 
2386.00, 
2387.00, 
2388.00, 
2389.00, 
2390.00, 
2391.00, 
2392.00, 
2393.00, 
2394.00, 
2395.00, 
2396.00, 
2397.00, 
2398.00, 
2399.00, 
2400.00, 
2401.00, 
2402.00, 
2403.00, 
2404.00, 
2405.00, 
2406.00, 
2407.00, 
2408.00, 
2409.00, 
2410.00, 
2411.00, 
2412.00, 
2413.00, 
2414.00, 
2415.00, 
2416.00, 
2417.00, 
2418.00, 
2419.00, 
2420.00, 
2421.00, 
2422.00, 
2423.00, 
2424.00, 
2425.00, 
2426.00, 
2427.00, 
2428.00, 
2429.00, 
2430.00, 
2431.00, 
2432.00, 
2433.00, 
2434.00, 
2435.00, 
2436.00, 
2437.00, 
2438.00, 
2439.00, 
2440.00, 
2441.00, 
2442.00, 
2443.00, 
2444.00, 
2445.00, 
2446.00, 
2447.00, 
2448.00, 
2449.00, 
2450.00, 
2451.00, 
2452.00, 
2453.00, 
2454.00, 
2455.00, 
2456.00, 
2457.00, 
2458.00, 
2459.00, 
2460.00, 
2461.00, 
2462.00, 
2463.00, 
2464.00, 
2465.00, 
2466.00, 
2467.00, 
2468.00, 
2469.00, 
2470.00, 
2471.00, 
2472.00, 
2473.00, 
2474.00, 
2475.00, 
2476.00, 
2477.00, 
2478.00, 
2479.00, 
2480.00, 
2481.00, 
2482.00, 
2483.00, 
2484.00, 
2485.00, 
2486.00, 
2487.00, 
2488.00, 
2489.00, 
2490.00, 
2491.00, 
2492.00, 
2493.00, 
2494.00, 
2495.00, 
2496.00, 
2497.00, 
2498.00, 
2499.00, 
2500.00, 
2501.00, 
2502.00, 
2503.00, 
2504.00, 
2505.00, 
2506.00, 
2507.00, 
2508.00, 
2509.00, 
2510.00, 
2511.00, 
2512.00, 
2513.00, 
2514.00, 
2515.00, 
2516.00, 
2517.00, 
2518.00, 
2519.00, 
2520.00, 
2521.00, 
2522.00, 
2523.00, 
2524.00, 
2525.00, 
2526.00, 
2527.00, 
2528.00, 
2529.00, 
2530.00, 
2531.00, 
2532.00, 
2533.00, 
2534.00, 
2535.00, 
2536.00, 
2537.00, 
2538.00, 
2539.00, 
2540.00, 
2541.00, 
2542.00, 
2543.00, 
2544.00, 
2545.00, 
2546.00, 
2547.00, 
2548.00, 
2549.00, 
2550.00, 
2551.00, 
2552.00, 
2553.00, 
2554.00, 
2555.00, 
2556.00, 
2557.00, 
2558.00, 
2559.00, 
2560.00, 
2561.00, 
2562.00, 
2563.00, 
2564.00, 
2565.00, 
2566.00, 
2567.00, 
2568.00, 
2569.00, 
2570.00, 
2571.00, 
2572.00, 
2573.00, 
2574.00, 
2575.00, 
2576.00, 
2577.00, 
2578.00, 
2579.00, 
2580.00, 
2581.00, 
2582.00, 
2583.00, 
2584.00, 
2585.00, 
2586.00, 
2587.00, 
2588.00, 
2589.00, 
2590.00, 
2591.00, 
2592.00, 
2593.00, 
2594.00, 
2595.00, 
2596.00, 
2597.00, 
2598.00, 
2599.00, 
2600.00, 
