"1cP1 - RawData"
"Wavelength nm.","T%"
200.00,-0.000
201.00,0.003
202.00,-0.002
203.00,0.002
204.00,0.002
205.00,0.002
206.00,-0.001
207.00,0.000
208.00,0.003
209.00,0.005
210.00,0.001
211.00,0.002
212.00,0.002
213.00,0.002
214.00,0.004
215.00,0.003
216.00,0.002
217.00,0.002
218.00,-0.001
219.00,0.001
220.00,0.000
221.00,0.000
222.00,0.001
223.00,0.001
224.00,-0.000
225.00,0.000
226.00,0.002
227.00,0.001
228.00,0.003
229.00,-0.001
230.00,0.001
231.00,0.001
232.00,-0.001
233.00,-0.000
234.00,0.002
235.00,0.002
236.00,0.001
237.00,0.001
238.00,0.001
239.00,-0.000
240.00,0.002
241.00,0.001
242.00,0.002
243.00,-0.000
244.00,0.001
245.00,0.002
246.00,0.001
247.00,0.001
248.00,0.001
249.00,0.001
250.00,0.001
251.00,0.001
252.00,0.001
253.00,0.001
254.00,0.002
255.00,0.001
256.00,-0.000
257.00,0.001
258.00,0.001
259.00,0.001
260.00,0.001
261.00,0.002
262.00,0.001
263.00,-0.001
264.00,-0.000
265.00,0.000
266.00,0.002
267.00,-0.001
268.00,0.002
269.00,0.001
270.00,0.001
271.00,0.001
272.00,0.001
273.00,-0.000
274.00,0.001
275.00,0.000
276.00,0.000
277.00,-0.001
278.00,0.002
279.00,-0.000
280.00,0.001
281.00,0.001
282.00,-0.000
283.00,0.001
284.00,0.001
285.00,0.000
286.00,-0.001
287.00,0.002
288.00,0.002
289.00,0.000
290.00,-0.001
291.00,-0.001
292.00,0.001
293.00,0.001
294.00,-0.000
295.00,0.000
296.00,0.002
297.00,0.001
298.00,-0.000
299.00,-0.000
300.00,-0.000
301.00,0.000
302.00,0.000
303.00,0.001
304.00,0.001
305.00,0.002
306.00,0.004
307.00,0.004
308.00,0.009
309.00,0.015
310.00,0.018
311.00,0.032
312.00,0.051
313.00,0.080
314.00,0.125
315.00,0.174
316.00,0.249
317.00,0.357
318.00,0.479
319.00,0.641
320.00,0.862
321.00,1.137
322.00,1.451
323.00,1.821
324.00,2.245
325.00,2.707
326.00,3.241
327.00,3.843
328.00,4.493
329.00,5.178
330.00,5.956
331.00,6.754
332.00,7.582
333.00,8.519
334.00,9.328
335.00,10.301
336.00,11.247
337.00,12.212
338.00,13.173
339.00,14.091
340.00,15.059
341.00,16.010
342.00,16.802
343.00,17.751
344.00,18.533
345.00,19.322
346.00,20.157
347.00,20.899
348.00,21.594
349.00,22.240
350.00,22.916
351.00,23.528
352.00,24.043
353.00,24.633
354.00,25.049
355.00,25.586
356.00,25.841
357.00,26.386
358.00,26.836
359.00,27.203
360.00,27.560
361.00,27.906
362.00,28.177
363.00,28.463
364.00,28.639
365.00,28.871
366.00,29.055
367.00,29.166
368.00,29.346
369.00,29.393
370.00,29.546
371.00,29.561
372.00,29.634
373.00,29.629
374.00,29.596
375.00,29.622
376.00,29.594
377.00,29.510
378.00,29.436
379.00,29.323
380.00,29.308
381.00,29.289
382.00,29.389
383.00,29.453
384.00,29.523
385.00,29.693
386.00,29.790
387.00,29.938
388.00,30.016
389.00,30.083
390.00,30.244
391.00,30.348
392.00,30.452
393.00,30.506
394.00,30.591
395.00,30.625
396.00,30.617
397.00,30.694
398.00,30.769
399.00,30.676
400.00,30.772
401.00,30.750
402.00,30.813
403.00,30.806
404.00,30.844
405.00,30.842
406.00,30.842
407.00,30.771
408.00,30.785
409.00,30.733
410.00,30.712
411.00,30.683
412.00,30.632
413.00,30.654
414.00,30.629
415.00,30.625
416.00,30.664
417.00,30.630
418.00,30.692
419.00,30.708
420.00,30.705
421.00,30.822
422.00,30.806
423.00,30.868
424.00,30.903
425.00,30.922
426.00,30.938
427.00,30.930
428.00,31.020
429.00,30.993
430.00,31.054
431.00,31.127
432.00,31.137
433.00,31.197
434.00,31.257
435.00,31.290
436.00,31.378
437.00,31.412
438.00,31.426
439.00,31.514
440.00,31.606
441.00,31.668
442.00,31.710
443.00,31.771
444.00,31.802
445.00,31.946
446.00,32.050
447.00,32.126
448.00,32.185
449.00,32.305
450.00,32.338
451.00,32.473
452.00,32.598
453.00,32.612
454.00,32.763
455.00,32.885
456.00,32.980
457.00,33.025
458.00,33.190
459.00,33.273
460.00,33.407
461.00,33.501
462.00,33.607
463.00,33.703
464.00,33.850
465.00,33.933
466.00,34.011
467.00,34.146
468.00,34.226
469.00,34.313
470.00,34.433
471.00,34.502
472.00,34.600
473.00,34.640
474.00,34.756
475.00,34.795
476.00,34.886
477.00,34.995
478.00,35.131
479.00,35.266
480.00,35.409
481.00,35.450
482.00,35.583
483.00,35.763
484.00,35.891
485.00,36.025
486.00,36.107
487.00,36.212
488.00,36.350
489.00,36.472
490.00,36.581
491.00,36.712
492.00,36.844
493.00,36.963
494.00,37.029
495.00,37.104
496.00,37.268
497.00,37.334
498.00,37.431
499.00,37.532
500.00,37.701
501.00,37.680
502.00,37.951
503.00,37.997
504.00,38.059
505.00,38.181
506.00,38.324
507.00,38.353
508.00,38.419
509.00,38.599
510.00,38.680
511.00,38.716
512.00,38.866
513.00,38.968
514.00,39.064
515.00,39.209
516.00,39.308
517.00,39.356
518.00,39.497
519.00,39.567
520.00,39.649
521.00,39.687
522.00,39.770
523.00,39.864
524.00,39.893
525.00,39.919
526.00,40.092
527.00,40.116
528.00,40.165
529.00,40.185
530.00,40.303
531.00,40.503
532.00,40.566
533.00,40.697
534.00,40.742
535.00,40.820
536.00,40.911
537.00,40.951
538.00,40.981
539.00,41.031
540.00,41.112
541.00,41.172
542.00,41.189
543.00,41.272
544.00,41.374
545.00,41.386
546.00,41.423
547.00,41.567
548.00,41.615
549.00,41.656
550.00,41.712
551.00,41.858
552.00,41.881
553.00,41.896
554.00,41.994
555.00,42.059
556.00,42.090
557.00,42.101
558.00,42.140
559.00,42.232
560.00,42.231
561.00,42.286
562.00,42.365
563.00,42.382
564.00,42.481
565.00,42.501
566.00,42.470
567.00,42.451
568.00,42.558
569.00,42.460
570.00,42.529
571.00,42.579
572.00,42.485
573.00,42.521
574.00,42.691
575.00,42.606
576.00,42.725
577.00,42.807
578.00,42.873
579.00,42.828
580.00,42.917
581.00,43.002
582.00,43.106
583.00,43.099
584.00,43.223
585.00,43.339
586.00,43.285
587.00,43.329
588.00,43.407
589.00,43.426
590.00,43.444
591.00,43.443
592.00,43.388
593.00,43.459
594.00,43.473
595.00,43.532
596.00,43.617
597.00,43.688
598.00,43.823
599.00,43.717
600.00,43.780
601.00,43.844
602.00,43.818
603.00,43.930
604.00,43.879
605.00,43.926
606.00,44.014
607.00,44.022
608.00,44.093
609.00,44.001
610.00,44.099
611.00,44.053
612.00,44.190
613.00,44.162
614.00,44.086
615.00,44.165
616.00,44.318
617.00,44.258
618.00,44.301
619.00,44.374
620.00,44.406
621.00,44.464
622.00,44.474
623.00,44.513
624.00,44.537
625.00,44.583
626.00,44.653
627.00,44.654
628.00,44.687
629.00,44.688
630.00,44.729
631.00,44.774
632.00,44.840
633.00,44.899
634.00,44.889
635.00,44.907
636.00,44.958
637.00,45.053
638.00,45.093
639.00,45.130
640.00,45.154
641.00,45.239
642.00,45.205
643.00,45.257
644.00,45.366
645.00,45.219
646.00,45.303
647.00,45.496
648.00,45.498
649.00,45.605
650.00,45.613
651.00,45.674
652.00,45.761
653.00,45.732
654.00,45.679
655.00,45.760
656.00,45.877
657.00,46.034
658.00,46.226
659.00,45.207
660.00,46.012
661.00,46.129
662.00,46.273
663.00,46.262
664.00,46.338
665.00,46.285
666.00,46.406
667.00,46.483
668.00,46.392
669.00,46.480
670.00,46.626
671.00,46.667
672.00,46.715
673.00,46.799
674.00,46.794
675.00,46.821
676.00,46.980
677.00,47.056
678.00,47.143
679.00,47.193
680.00,47.314
681.00,47.267
682.00,47.293
683.00,47.288
684.00,47.501
685.00,47.492
686.00,47.431
687.00,47.459
688.00,47.477
689.00,47.487
690.00,47.541
691.00,47.699
692.00,47.668
693.00,47.840
694.00,47.774
695.00,47.843
696.00,47.792
697.00,47.829
698.00,48.016
699.00,48.124
700.00,48.233
701.00,48.181
702.00,48.249
703.00,48.317
704.00,48.311
705.00,48.236
706.00,48.342
707.00,48.417
708.00,48.238
709.00,48.395
710.00,48.578
711.00,48.375
712.00,48.375
713.00,48.463
714.00,48.558
715.00,48.678
716.00,48.623
717.00,48.614
718.00,48.736
719.00,48.702
720.00,48.772
721.00,53.137
722.00,53.159
723.00,53.132
724.00,53.141
725.00,53.154
726.00,53.112
727.00,53.060
728.00,53.085
729.00,53.042
730.00,53.057
731.00,53.041
732.00,53.058
733.00,53.046
734.00,53.067
735.00,52.977
736.00,53.009
737.00,53.035
738.00,53.057
739.00,53.010
740.00,52.936
741.00,53.024
742.00,53.028
743.00,52.965
744.00,52.923
745.00,52.885
746.00,52.888
747.00,52.914
748.00,52.830
749.00,52.879
750.00,52.893
751.00,52.759
752.00,52.750
753.00,52.793
754.00,52.679
755.00,52.711
756.00,52.748
757.00,52.685
758.00,52.672
759.00,52.668
760.00,52.617
761.00,52.526
762.00,52.594
763.00,52.585
764.00,52.574
765.00,52.561
766.00,52.544
767.00,52.586
768.00,52.476
769.00,52.476
770.00,52.553
771.00,52.511
772.00,52.451
773.00,52.500
774.00,52.446
775.00,52.474
776.00,52.419
777.00,52.453
778.00,52.355
779.00,52.345
780.00,52.333
781.00,52.336
782.00,52.366
783.00,52.287
784.00,52.323
785.00,52.210
786.00,52.205
787.00,52.230
788.00,52.207
789.00,52.197
790.00,52.155
791.00,52.117
792.00,52.017
793.00,52.123
794.00,52.023
795.00,52.011
796.00,51.940
797.00,51.891
798.00,51.980
799.00,51.850
800.00,51.943
801.00,51.825
802.00,51.800
803.00,51.786
804.00,51.784
805.00,51.712
806.00,51.675
807.00,51.704
808.00,51.699
809.00,51.677
810.00,51.545
811.00,51.597
812.00,51.563
813.00,51.529
814.00,51.488
815.00,51.531
816.00,51.474
817.00,51.393
818.00,51.245
819.00,51.400
820.00,51.339
821.00,51.287
822.00,51.318
823.00,51.438
824.00,51.368
825.00,51.138
826.00,51.231
827.00,51.352
828.00,51.240
829.00,51.219
830.00,51.265
831.00,53.464
832.00,53.429
833.00,53.409
834.00,53.369
835.00,53.344
836.00,53.361
837.00,53.275
838.00,53.287
839.00,53.266
840.00,53.194
841.00,53.234
842.00,53.163
843.00,53.174
844.00,53.168
845.00,53.079
846.00,53.114
847.00,53.067
848.00,52.937
849.00,52.958
850.00,52.965
851.00,52.877
852.00,52.892
853.00,52.875
854.00,52.822
855.00,52.756
856.00,52.759
857.00,52.646
858.00,52.665
859.00,52.657
860.00,52.704
861.00,52.678
862.00,52.621
863.00,52.626
864.00,52.700
865.00,52.569
866.00,52.515
867.00,52.549
868.00,52.534
869.00,52.521
870.00,52.478
871.00,52.474
872.00,52.454
873.00,52.437
874.00,52.412
875.00,52.386
876.00,52.381
877.00,52.363
878.00,52.335
879.00,52.334
880.00,52.282
881.00,52.283
882.00,52.297
883.00,52.273
884.00,52.243
885.00,52.220
886.00,52.206
887.00,52.182
888.00,52.162
889.00,52.107
890.00,52.124
891.00,52.061
892.00,52.044
893.00,52.014
894.00,52.035
895.00,51.987
896.00,51.964
897.00,51.938
898.00,51.906
899.00,51.921
900.00,51.887
901.00,51.886
902.00,51.915
903.00,51.848
904.00,51.842
905.00,51.818
906.00,51.787
907.00,51.716
908.00,51.734
909.00,51.734
910.00,51.676
911.00,51.654
912.00,51.701
913.00,51.643
914.00,51.613
915.00,51.600
916.00,51.585
917.00,51.537
918.00,51.501
919.00,51.577
920.00,51.499
921.00,51.487
922.00,51.455
923.00,51.443
924.00,51.415
925.00,51.387
926.00,51.398
927.00,51.357
928.00,51.327
929.00,51.330
930.00,51.292
931.00,51.308
932.00,51.249
933.00,51.242
934.00,51.297
935.00,51.189
936.00,51.172
937.00,51.167
938.00,51.153
939.00,51.144
940.00,51.102
941.00,51.103
942.00,51.054
943.00,51.066
944.00,51.024
945.00,51.006
946.00,50.964
947.00,50.950
948.00,50.943
949.00,50.904
950.00,50.892
951.00,50.892
952.00,50.868
953.00,50.826
954.00,50.796
955.00,50.764
956.00,50.761
957.00,50.724
958.00,50.738
959.00,50.689
960.00,50.689
961.00,50.651
962.00,50.666
963.00,50.603
964.00,50.617
965.00,50.590
966.00,50.573
967.00,50.553
968.00,50.539
969.00,50.550
970.00,50.530
971.00,50.545
972.00,50.507
973.00,50.561
974.00,50.573
975.00,50.547
976.00,50.551
977.00,50.544
978.00,50.583
979.00,50.529
980.00,50.560
981.00,50.560
982.00,50.532
983.00,50.512
984.00,50.520
985.00,50.551
986.00,50.501
987.00,50.525
988.00,50.490
989.00,50.481
990.00,50.456
991.00,50.439
992.00,50.462
993.00,50.417
994.00,50.419
995.00,50.453
996.00,50.402
997.00,50.369
998.00,50.352
999.00,50.379
1000.00,50.326
1001.00,50.337
1002.00,50.311
1003.00,50.331
1004.00,50.306
1005.00,50.283
1006.00,50.311
1007.00,50.259
1008.00,50.260
1009.00,50.227
1010.00,50.225
1011.00,50.199
1012.00,50.164
1013.00,50.147
1014.00,50.136
1015.00,50.155
1016.00,50.101
1017.00,50.134
1018.00,50.107
1019.00,50.098
1020.00,50.071
1021.00,50.051
1022.00,50.052
1023.00,49.998
1024.00,49.987
1025.00,49.972
1026.00,49.985
1027.00,49.928
1028.00,49.962
1029.00,49.924
1030.00,49.901
1031.00,49.909
1032.00,49.879
1033.00,49.885
1034.00,49.845
1035.00,49.808
1036.00,49.782
1037.00,49.780
1038.00,49.750
1039.00,49.743
1040.00,49.740
1041.00,49.690
1042.00,49.691
1043.00,49.663
1044.00,49.699
1045.00,49.681
1046.00,49.678
1047.00,49.692
1048.00,49.711
1049.00,49.715
1050.00,49.740
1051.00,49.749
1052.00,49.763
1053.00,49.776
1054.00,49.759
1055.00,49.784
1056.00,49.811
1057.00,49.771
1058.00,49.752
1059.00,49.755
1060.00,49.760
1061.00,49.751
1062.00,49.735
1063.00,49.754
1064.00,49.752
1065.00,49.733
1066.00,49.715
1067.00,49.743
1068.00,49.736
1069.00,49.719
1070.00,49.705
1071.00,49.669
1072.00,49.700
1073.00,49.670
1074.00,49.663
1075.00,49.651
1076.00,49.653
1077.00,49.633
1078.00,49.617
1079.00,49.605
1080.00,49.627
1081.00,49.590
1082.00,49.585
1083.00,49.576
1084.00,49.584
1085.00,49.566
1086.00,49.560
1087.00,49.568
1088.00,49.539
1089.00,49.534
1090.00,49.525
1091.00,49.531
1092.00,49.516
1093.00,49.485
1094.00,49.501
1095.00,49.479
1096.00,49.463
1097.00,49.478
1098.00,49.474
1099.00,49.446
1100.00,49.457
1101.00,49.442
1102.00,49.445
1103.00,49.467
1104.00,49.416
1105.00,49.410
1106.00,49.385
1107.00,49.378
1108.00,49.385
1109.00,49.368
1110.00,49.343
1111.00,49.341
1112.00,49.325
1113.00,49.324
1114.00,49.316
1115.00,49.331
1116.00,49.339
1117.00,49.332
1118.00,49.341
1119.00,49.315
1120.00,49.307
1121.00,49.277
1122.00,49.284
1123.00,49.284
1124.00,49.269
1125.00,49.269
1126.00,49.265
1127.00,49.268
1128.00,49.250
1129.00,49.241
1130.00,49.229
1131.00,49.226
1132.00,49.222
1133.00,49.206
1134.00,49.207
1135.00,49.196
1136.00,49.202
1137.00,49.187
1138.00,49.204
1139.00,49.186
1140.00,49.183
1141.00,49.189
1142.00,49.171
1143.00,49.178
1144.00,49.163
1145.00,49.167
1146.00,49.167
1147.00,49.151
1148.00,49.145
1149.00,49.162
1150.00,49.156
1151.00,49.152
1152.00,49.151
1153.00,49.139
1154.00,49.126
1155.00,49.131
1156.00,49.104
1157.00,49.126
1158.00,49.111
1159.00,49.103
1160.00,49.108
1161.00,49.123
1162.00,49.107
1163.00,49.115
1164.00,49.122
1165.00,49.115
1166.00,49.114
1167.00,49.104
1168.00,49.121
1169.00,49.103
1170.00,49.097
1171.00,49.106
1172.00,49.097
1173.00,49.083
1174.00,49.094
1175.00,49.074
1176.00,49.080
1177.00,49.069
1178.00,49.080
1179.00,49.101
1180.00,49.078
1181.00,49.092
1182.00,49.090
1183.00,49.085
1184.00,49.070
1185.00,49.113
1186.00,49.096
1187.00,49.092
1188.00,49.085
1189.00,49.080
1190.00,49.078
1191.00,49.073
1192.00,49.098
1193.00,49.095
1194.00,49.098
1195.00,49.078
1196.00,49.119
1197.00,49.107
1198.00,49.086
1199.00,49.084
1200.00,49.090
1201.00,49.095
1202.00,49.078
1203.00,49.079
1204.00,49.093
1205.00,49.093
1206.00,49.066
1207.00,49.092
1208.00,49.069
1209.00,49.088
1210.00,49.112
1211.00,49.081
1212.00,49.086
1213.00,49.057
1214.00,49.094
1215.00,49.075
1216.00,49.079
1217.00,49.082
1218.00,49.096
1219.00,49.096
1220.00,49.071
1221.00,49.091
1222.00,49.089
1223.00,49.108
1224.00,49.098
1225.00,49.119
1226.00,49.105
1227.00,49.102
1228.00,49.114
1229.00,49.119
1230.00,49.137
1231.00,49.117
1232.00,49.145
1233.00,49.135
1234.00,49.152
1235.00,49.135
1236.00,49.159
1237.00,49.189
1238.00,49.172
1239.00,49.151
1240.00,49.161
1241.00,49.165
1242.00,49.159
1243.00,49.195
1244.00,49.156
1245.00,49.182
1246.00,49.194
1247.00,49.179
1248.00,49.172
1249.00,49.182
1250.00,49.197
1251.00,49.195
1252.00,49.196
1253.00,49.193
1254.00,49.217
1255.00,49.205
1256.00,49.194
1257.00,49.181
1258.00,49.230
1259.00,49.211
1260.00,49.236
1261.00,49.231
1262.00,49.251
1263.00,49.252
1264.00,49.253
1265.00,49.265
1266.00,49.253
1267.00,49.280
1268.00,49.277
1269.00,49.264
1270.00,49.310
1271.00,49.300
1272.00,49.294
1273.00,49.311
1274.00,49.320
1275.00,49.305
1276.00,49.301
1277.00,49.315
1278.00,49.339
1279.00,49.338
1280.00,49.327
1281.00,49.359
1282.00,49.356
1283.00,49.347
1284.00,49.369
1285.00,49.349
1286.00,49.353
1287.00,49.353
1288.00,49.359
1289.00,49.359
1290.00,49.398
1291.00,49.399
1292.00,49.401
1293.00,49.404
1294.00,49.423
1295.00,49.455
1296.00,49.438
1297.00,49.441
1298.00,49.470
1299.00,49.437
1300.00,49.458
1301.00,49.463
1302.00,49.479
1303.00,49.484
1304.00,49.481
1305.00,49.517
1306.00,49.513
1307.00,49.517
1308.00,49.510
1309.00,49.519
1310.00,49.510
1311.00,49.505
1312.00,49.534
1313.00,49.526
1314.00,49.564
1315.00,49.574
1316.00,49.575
1317.00,49.600
1318.00,49.596
1319.00,49.587
1320.00,49.595
1321.00,49.762
1322.00,49.756
1323.00,49.740
1324.00,49.722
1325.00,49.737
1326.00,49.764
1327.00,49.721
1328.00,49.756
1329.00,49.759
1330.00,49.744
1331.00,49.758
1332.00,49.770
1333.00,49.763
1334.00,49.774
1335.00,49.790
1336.00,49.834
1337.00,49.864
1338.00,49.908
1339.00,49.974
1340.00,50.050
1341.00,50.082
1342.00,50.170
1343.00,50.230
1344.00,50.255
1345.00,50.307
1346.00,50.342
1347.00,50.390
1348.00,50.391
1349.00,50.392
1350.00,50.439
1351.00,50.449
1352.00,50.446
1353.00,50.508
1354.00,50.490
1355.00,50.433
1356.00,50.491
1357.00,50.515
1358.00,50.482
1359.00,50.576
1360.00,50.755
1361.00,50.551
1362.00,50.413
1363.00,50.660
1364.00,50.686
1365.00,50.571
1366.00,50.615
1367.00,50.543
1368.00,50.478
1369.00,50.525
1370.00,50.518
1371.00,50.463
1372.00,50.510
1373.00,50.547
1374.00,50.522
1375.00,50.494
1376.00,50.501
1377.00,50.476
1378.00,50.503
1379.00,50.510
1380.00,50.538
1381.00,50.558
1382.00,50.610
1383.00,50.571
1384.00,50.552
1385.00,50.503
1386.00,50.538
1387.00,50.513
1388.00,50.508
1389.00,50.460
1390.00,50.537
1391.00,50.479
1392.00,50.525
1393.00,50.485
1394.00,50.569
1395.00,50.459
1396.00,50.446
1397.00,50.461
1398.00,50.621
1399.00,50.524
1400.00,50.509
1401.00,50.456
1402.00,50.962
1403.00,50.551
1404.00,50.526
1405.00,50.577
1406.00,50.588
1407.00,50.558
1408.00,50.614
1409.00,50.587
1410.00,50.607
1411.00,50.591
1412.00,50.620
1413.00,50.582
1414.00,50.627
1415.00,50.631
1416.00,50.678
1417.00,50.701
1418.00,50.665
1419.00,50.696
1420.00,50.716
1421.00,50.769
1422.00,50.752
1423.00,50.736
1424.00,50.751
1425.00,50.764
1426.00,50.759
1427.00,50.833
1428.00,50.826
1429.00,50.832
1430.00,50.878
1431.00,50.892
1432.00,50.885
1433.00,50.917
1434.00,50.927
1435.00,50.941
1436.00,50.970
1437.00,50.954
1438.00,50.980
1439.00,51.008
1440.00,51.007
1441.00,51.037
1442.00,51.049
1443.00,51.073
1444.00,51.103
1445.00,51.080
1446.00,51.110
1447.00,51.147
1448.00,51.146
1449.00,51.166
1450.00,51.195
1451.00,51.190
1452.00,51.215
1453.00,51.221
1454.00,51.235
1455.00,51.264
1456.00,51.266
1457.00,51.290
1458.00,51.298
1459.00,51.312
1460.00,51.356
1461.00,51.371
1462.00,51.381
1463.00,51.399
1464.00,51.421
1465.00,51.425
1466.00,51.435
1467.00,51.453
1468.00,51.507
1469.00,51.491
1470.00,51.500
1471.00,51.544
1472.00,51.568
1473.00,51.553
1474.00,51.594
1475.00,51.604
1476.00,51.603
1477.00,51.597
1478.00,51.606
1479.00,51.644
1480.00,51.655
1481.00,51.651
1482.00,51.690
1483.00,51.723
1484.00,51.716
1485.00,51.724
1486.00,51.736
1487.00,51.777
1488.00,51.771
1489.00,51.777
1490.00,51.821
1491.00,51.833
1492.00,51.811
1493.00,51.833
1494.00,51.890
1495.00,51.867
1496.00,51.861
1497.00,51.872
1498.00,51.887
1499.00,51.885
1500.00,51.902
1501.00, 
1502.00, 
1503.00, 
1504.00, 
1505.00, 
1506.00, 
1507.00, 
1508.00, 
1509.00, 
1510.00, 
1511.00, 
1512.00, 
1513.00, 
1514.00, 
1515.00, 
1516.00, 
1517.00, 
1518.00, 
1519.00, 
1520.00, 
1521.00, 
1522.00, 
1523.00, 
1524.00, 
1525.00, 
1526.00, 
1527.00, 
1528.00, 
1529.00, 
1530.00, 
1531.00, 
1532.00, 
1533.00, 
1534.00, 
1535.00, 
1536.00, 
1537.00, 
1538.00, 
1539.00, 
1540.00, 
1541.00, 
1542.00, 
1543.00, 
1544.00, 
1545.00, 
1546.00, 
1547.00, 
1548.00, 
1549.00, 
1550.00, 
1551.00, 
1552.00, 
1553.00, 
1554.00, 
1555.00, 
1556.00, 
1557.00, 
1558.00, 
1559.00, 
1560.00, 
1561.00, 
1562.00, 
1563.00, 
1564.00, 
1565.00, 
1566.00, 
1567.00, 
1568.00, 
1569.00, 
1570.00, 
1571.00, 
1572.00, 
1573.00, 
1574.00, 
1575.00, 
1576.00, 
1577.00, 
1578.00, 
1579.00, 
1580.00, 
1581.00, 
1582.00, 
1583.00, 
1584.00, 
1585.00, 
1586.00, 
1587.00, 
1588.00, 
1589.00, 
1590.00, 
1591.00, 
1592.00, 
1593.00, 
1594.00, 
1595.00, 
1596.00, 
1597.00, 
1598.00, 
1599.00, 
1600.00, 
1601.00, 
1602.00, 
1603.00, 
1604.00, 
1605.00, 
1606.00, 
1607.00, 
1608.00, 
1609.00, 
1610.00, 
1611.00, 
1612.00, 
1613.00, 
1614.00, 
1615.00, 
1616.00, 
1617.00, 
1618.00, 
1619.00, 
1620.00, 
1621.00, 
1622.00, 
1623.00, 
1624.00, 
1625.00, 
1626.00, 
1627.00, 
1628.00, 
1629.00, 
1630.00, 
1631.00, 
1632.00, 
1633.00, 
1634.00, 
1635.00, 
1636.00, 
1637.00, 
1638.00, 
1639.00, 
1640.00, 
1641.00, 
1642.00, 
1643.00, 
1644.00, 
1645.00, 
1646.00, 
1647.00, 
1648.00, 
1649.00, 
1650.00, 
1651.00, 
1652.00, 
1653.00, 
1654.00, 
1655.00, 
1656.00, 
1657.00, 
1658.00, 
1659.00, 
1660.00, 
1661.00, 
1662.00, 
1663.00, 
1664.00, 
1665.00, 
1666.00, 
1667.00, 
1668.00, 
1669.00, 
1670.00, 
1671.00, 
1672.00, 
1673.00, 
1674.00, 
1675.00, 
1676.00, 
1677.00, 
1678.00, 
1679.00, 
1680.00, 
1681.00, 
1682.00, 
1683.00, 
1684.00, 
1685.00, 
1686.00, 
1687.00, 
1688.00, 
1689.00, 
1690.00, 
1691.00, 
1692.00, 
1693.00, 
1694.00, 
1695.00, 
1696.00, 
1697.00, 
1698.00, 
1699.00, 
1700.00, 
1701.00, 
1702.00, 
1703.00, 
1704.00, 
1705.00, 
1706.00, 
1707.00, 
1708.00, 
1709.00, 
1710.00, 
1711.00, 
1712.00, 
1713.00, 
1714.00, 
1715.00, 
1716.00, 
1717.00, 
1718.00, 
1719.00, 
1720.00, 
1721.00, 
1722.00, 
1723.00, 
1724.00, 
1725.00, 
1726.00, 
1727.00, 
1728.00, 
1729.00, 
1730.00, 
1731.00, 
1732.00, 
1733.00, 
1734.00, 
1735.00, 
1736.00, 
1737.00, 
1738.00, 
1739.00, 
1740.00, 
1741.00, 
1742.00, 
1743.00, 
1744.00, 
1745.00, 
1746.00, 
1747.00, 
1748.00, 
1749.00, 
1750.00, 
1751.00, 
1752.00, 
1753.00, 
1754.00, 
1755.00, 
1756.00, 
1757.00, 
1758.00, 
1759.00, 
1760.00, 
1761.00, 
1762.00, 
1763.00, 
1764.00, 
1765.00, 
1766.00, 
1767.00, 
1768.00, 
1769.00, 
1770.00, 
1771.00, 
1772.00, 
1773.00, 
1774.00, 
1775.00, 
1776.00, 
1777.00, 
1778.00, 
1779.00, 
1780.00, 
1781.00, 
1782.00, 
1783.00, 
1784.00, 
1785.00, 
1786.00, 
1787.00, 
1788.00, 
1789.00, 
1790.00, 
1791.00, 
1792.00, 
1793.00, 
1794.00, 
1795.00, 
1796.00, 
1797.00, 
1798.00, 
1799.00, 
1800.00, 
1801.00, 
1802.00, 
1803.00, 
1804.00, 
1805.00, 
1806.00, 
1807.00, 
1808.00, 
1809.00, 
1810.00, 
1811.00, 
1812.00, 
1813.00, 
1814.00, 
1815.00, 
1816.00, 
1817.00, 
1818.00, 
1819.00, 
1820.00, 
1821.00, 
1822.00, 
1823.00, 
1824.00, 
1825.00, 
1826.00, 
1827.00, 
1828.00, 
1829.00, 
1830.00, 
1831.00, 
1832.00, 
1833.00, 
1834.00, 
1835.00, 
1836.00, 
1837.00, 
1838.00, 
1839.00, 
1840.00, 
1841.00, 
1842.00, 
1843.00, 
1844.00, 
1845.00, 
1846.00, 
1847.00, 
1848.00, 
1849.00, 
1850.00, 
1851.00, 
1852.00, 
1853.00, 
1854.00, 
1855.00, 
1856.00, 
1857.00, 
1858.00, 
1859.00, 
1860.00, 
1861.00, 
1862.00, 
1863.00, 
1864.00, 
1865.00, 
1866.00, 
1867.00, 
1868.00, 
1869.00, 
1870.00, 
1871.00, 
1872.00, 
1873.00, 
1874.00, 
1875.00, 
1876.00, 
1877.00, 
1878.00, 
1879.00, 
1880.00, 
1881.00, 
1882.00, 
1883.00, 
1884.00, 
1885.00, 
1886.00, 
1887.00, 
1888.00, 
1889.00, 
1890.00, 
1891.00, 
1892.00, 
1893.00, 
1894.00, 
1895.00, 
1896.00, 
1897.00, 
1898.00, 
1899.00, 
1900.00, 
1901.00, 
1902.00, 
1903.00, 
1904.00, 
1905.00, 
1906.00, 
1907.00, 
1908.00, 
1909.00, 
1910.00, 
1911.00, 
1912.00, 
1913.00, 
1914.00, 
1915.00, 
1916.00, 
1917.00, 
1918.00, 
1919.00, 
1920.00, 
1921.00, 
1922.00, 
1923.00, 
1924.00, 
1925.00, 
1926.00, 
1927.00, 
1928.00, 
1929.00, 
1930.00, 
1931.00, 
1932.00, 
1933.00, 
1934.00, 
1935.00, 
1936.00, 
1937.00, 
1938.00, 
1939.00, 
1940.00, 
1941.00, 
1942.00, 
1943.00, 
1944.00, 
1945.00, 
1946.00, 
1947.00, 
1948.00, 
1949.00, 
1950.00, 
1951.00, 
1952.00, 
1953.00, 
1954.00, 
1955.00, 
1956.00, 
1957.00, 
1958.00, 
1959.00, 
1960.00, 
1961.00, 
1962.00, 
1963.00, 
1964.00, 
1965.00, 
1966.00, 
1967.00, 
1968.00, 
1969.00, 
1970.00, 
1971.00, 
1972.00, 
1973.00, 
1974.00, 
1975.00, 
1976.00, 
1977.00, 
1978.00, 
1979.00, 
1980.00, 
1981.00, 
1982.00, 
1983.00, 
1984.00, 
1985.00, 
1986.00, 
1987.00, 
1988.00, 
1989.00, 
1990.00, 
1991.00, 
1992.00, 
1993.00, 
1994.00, 
1995.00, 
1996.00, 
1997.00, 
1998.00, 
1999.00, 
2000.00, 
2001.00, 
2002.00, 
2003.00, 
2004.00, 
2005.00, 
2006.00, 
2007.00, 
2008.00, 
2009.00, 
2010.00, 
2011.00, 
2012.00, 
2013.00, 
2014.00, 
2015.00, 
2016.00, 
2017.00, 
2018.00, 
2019.00, 
2020.00, 
2021.00, 
2022.00, 
2023.00, 
2024.00, 
2025.00, 
2026.00, 
2027.00, 
2028.00, 
2029.00, 
2030.00, 
2031.00, 
2032.00, 
2033.00, 
2034.00, 
2035.00, 
2036.00, 
2037.00, 
2038.00, 
2039.00, 
2040.00, 
2041.00, 
2042.00, 
2043.00, 
2044.00, 
2045.00, 
2046.00, 
2047.00, 
2048.00, 
2049.00, 
2050.00, 
2051.00, 
2052.00, 
2053.00, 
2054.00, 
2055.00, 
2056.00, 
2057.00, 
2058.00, 
2059.00, 
2060.00, 
2061.00, 
2062.00, 
2063.00, 
2064.00, 
2065.00, 
2066.00, 
2067.00, 
2068.00, 
2069.00, 
2070.00, 
2071.00, 
2072.00, 
2073.00, 
2074.00, 
2075.00, 
2076.00, 
2077.00, 
2078.00, 
2079.00, 
2080.00, 
2081.00, 
2082.00, 
2083.00, 
2084.00, 
2085.00, 
2086.00, 
2087.00, 
2088.00, 
2089.00, 
2090.00, 
2091.00, 
2092.00, 
2093.00, 
2094.00, 
2095.00, 
2096.00, 
2097.00, 
2098.00, 
2099.00, 
2100.00, 
2101.00, 
2102.00, 
2103.00, 
2104.00, 
2105.00, 
2106.00, 
2107.00, 
2108.00, 
2109.00, 
2110.00, 
2111.00, 
2112.00, 
2113.00, 
2114.00, 
2115.00, 
2116.00, 
2117.00, 
2118.00, 
2119.00, 
2120.00, 
2121.00, 
2122.00, 
2123.00, 
2124.00, 
2125.00, 
2126.00, 
2127.00, 
2128.00, 
2129.00, 
2130.00, 
2131.00, 
2132.00, 
2133.00, 
2134.00, 
2135.00, 
2136.00, 
2137.00, 
2138.00, 
2139.00, 
2140.00, 
2141.00, 
2142.00, 
2143.00, 
2144.00, 
2145.00, 
2146.00, 
2147.00, 
2148.00, 
2149.00, 
2150.00, 
2151.00, 
2152.00, 
2153.00, 
2154.00, 
2155.00, 
2156.00, 
2157.00, 
2158.00, 
2159.00, 
2160.00, 
2161.00, 
2162.00, 
2163.00, 
2164.00, 
2165.00, 
2166.00, 
2167.00, 
2168.00, 
2169.00, 
2170.00, 
2171.00, 
2172.00, 
2173.00, 
2174.00, 
2175.00, 
2176.00, 
2177.00, 
2178.00, 
2179.00, 
2180.00, 
2181.00, 
2182.00, 
2183.00, 
2184.00, 
2185.00, 
2186.00, 
2187.00, 
2188.00, 
2189.00, 
2190.00, 
2191.00, 
2192.00, 
2193.00, 
2194.00, 
2195.00, 
2196.00, 
2197.00, 
2198.00, 
2199.00, 
2200.00, 
2201.00, 
2202.00, 
2203.00, 
2204.00, 
2205.00, 
2206.00, 
2207.00, 
2208.00, 
2209.00, 
2210.00, 
2211.00, 
2212.00, 
2213.00, 
2214.00, 
2215.00, 
2216.00, 
2217.00, 
2218.00, 
2219.00, 
2220.00, 
2221.00, 
2222.00, 
2223.00, 
2224.00, 
2225.00, 
2226.00, 
2227.00, 
2228.00, 
2229.00, 
2230.00, 
2231.00, 
2232.00, 
2233.00, 
2234.00, 
2235.00, 
2236.00, 
2237.00, 
2238.00, 
2239.00, 
2240.00, 
2241.00, 
2242.00, 
2243.00, 
2244.00, 
2245.00, 
2246.00, 
2247.00, 
2248.00, 
2249.00, 
2250.00, 
2251.00, 
2252.00, 
2253.00, 
2254.00, 
2255.00, 
2256.00, 
2257.00, 
2258.00, 
2259.00, 
2260.00, 
2261.00, 
2262.00, 
2263.00, 
2264.00, 
2265.00, 
2266.00, 
2267.00, 
2268.00, 
2269.00, 
2270.00, 
2271.00, 
2272.00, 
2273.00, 
2274.00, 
2275.00, 
2276.00, 
2277.00, 
2278.00, 
2279.00, 
2280.00, 
2281.00, 
2282.00, 
2283.00, 
2284.00, 
2285.00, 
2286.00, 
2287.00, 
2288.00, 
2289.00, 
2290.00, 
2291.00, 
2292.00, 
2293.00, 
2294.00, 
2295.00, 
2296.00, 
2297.00, 
2298.00, 
2299.00, 
2300.00, 
2301.00, 
2302.00, 
2303.00, 
2304.00, 
2305.00, 
2306.00, 
2307.00, 
2308.00, 
2309.00, 
2310.00, 
2311.00, 
2312.00, 
2313.00, 
2314.00, 
2315.00, 
2316.00, 
2317.00, 
2318.00, 
2319.00, 
2320.00, 
2321.00, 
2322.00, 
2323.00, 
2324.00, 
2325.00, 
2326.00, 
2327.00, 
2328.00, 
2329.00, 
2330.00, 
2331.00, 
2332.00, 
2333.00, 
2334.00, 
2335.00, 
2336.00, 
2337.00, 
2338.00, 
2339.00, 
2340.00, 
2341.00, 
2342.00, 
2343.00, 
2344.00, 
2345.00, 
2346.00, 
2347.00, 
2348.00, 
2349.00, 
2350.00, 
2351.00, 
2352.00, 
2353.00, 
2354.00, 
2355.00, 
2356.00, 
2357.00, 
2358.00, 
2359.00, 
2360.00, 
2361.00, 
2362.00, 
2363.00, 
2364.00, 
2365.00, 
2366.00, 
2367.00, 
2368.00, 
2369.00, 
2370.00, 
2371.00, 
2372.00, 
2373.00, 
2374.00, 
2375.00, 
2376.00, 
2377.00, 
2378.00, 
2379.00, 
2380.00, 
2381.00, 
2382.00, 
2383.00, 
2384.00, 
2385.00, 
2386.00, 
2387.00, 
2388.00, 
2389.00, 
2390.00, 
2391.00, 
2392.00, 
2393.00, 
2394.00, 
2395.00, 
2396.00, 
2397.00, 
2398.00, 
2399.00, 
2400.00, 
2401.00, 
2402.00, 
2403.00, 
2404.00, 
2405.00, 
2406.00, 
2407.00, 
2408.00, 
2409.00, 
2410.00, 
2411.00, 
2412.00, 
2413.00, 
2414.00, 
2415.00, 
2416.00, 
2417.00, 
2418.00, 
2419.00, 
2420.00, 
2421.00, 
2422.00, 
2423.00, 
2424.00, 
2425.00, 
2426.00, 
2427.00, 
2428.00, 
2429.00, 
2430.00, 
2431.00, 
2432.00, 
2433.00, 
2434.00, 
2435.00, 
2436.00, 
2437.00, 
2438.00, 
2439.00, 
2440.00, 
2441.00, 
2442.00, 
2443.00, 
2444.00, 
2445.00, 
2446.00, 
2447.00, 
2448.00, 
2449.00, 
2450.00, 
2451.00, 
2452.00, 
2453.00, 
2454.00, 
2455.00, 
2456.00, 
2457.00, 
2458.00, 
2459.00, 
2460.00, 
2461.00, 
2462.00, 
2463.00, 
2464.00, 
2465.00, 
2466.00, 
2467.00, 
2468.00, 
2469.00, 
2470.00, 
2471.00, 
2472.00, 
2473.00, 
2474.00, 
2475.00, 
2476.00, 
2477.00, 
2478.00, 
2479.00, 
2480.00, 
2481.00, 
2482.00, 
2483.00, 
2484.00, 
2485.00, 
2486.00, 
2487.00, 
2488.00, 
2489.00, 
2490.00, 
2491.00, 
2492.00, 
2493.00, 
2494.00, 
2495.00, 
2496.00, 
2497.00, 
2498.00, 
2499.00, 
2500.00, 
2501.00, 
2502.00, 
2503.00, 
2504.00, 
2505.00, 
2506.00, 
2507.00, 
2508.00, 
2509.00, 
2510.00, 
2511.00, 
2512.00, 
2513.00, 
2514.00, 
2515.00, 
2516.00, 
2517.00, 
2518.00, 
2519.00, 
2520.00, 
2521.00, 
2522.00, 
2523.00, 
2524.00, 
2525.00, 
2526.00, 
2527.00, 
2528.00, 
2529.00, 
2530.00, 
2531.00, 
2532.00, 
2533.00, 
2534.00, 
2535.00, 
2536.00, 
2537.00, 
2538.00, 
2539.00, 
2540.00, 
2541.00, 
2542.00, 
2543.00, 
2544.00, 
2545.00, 
2546.00, 
2547.00, 
2548.00, 
2549.00, 
2550.00, 
2551.00, 
2552.00, 
2553.00, 
2554.00, 
2555.00, 
2556.00, 
2557.00, 
2558.00, 
2559.00, 
2560.00, 
2561.00, 
2562.00, 
2563.00, 
2564.00, 
2565.00, 
2566.00, 
2567.00, 
2568.00, 
2569.00, 
2570.00, 
2571.00, 
2572.00, 
2573.00, 
2574.00, 
2575.00, 
2576.00, 
2577.00, 
2578.00, 
2579.00, 
2580.00, 
2581.00, 
2582.00, 
2583.00, 
2584.00, 
2585.00, 
2586.00, 
2587.00, 
2588.00, 
2589.00, 
2590.00, 
2591.00, 
2592.00, 
2593.00, 
2594.00, 
2595.00, 
2596.00, 
2597.00, 
2598.00, 
2599.00, 
2600.00, 
