"1cP3 - RawData"
"Wavelength nm.","T%"
200.00,-0.000
201.00,0.001
202.00,-0.000
203.00,0.003
204.00,0.002
205.00,0.000
206.00,-0.000
207.00,0.002
208.00,0.004
209.00,-0.003
210.00,-0.000
211.00,0.004
212.00,-0.001
213.00,0.003
214.00,0.002
215.00,0.001
216.00,0.000
217.00,0.005
218.00,-0.002
219.00,0.001
220.00,0.001
221.00,0.003
222.00,0.003
223.00,0.002
224.00,-0.002
225.00,0.001
226.00,0.000
227.00,0.000
228.00,0.000
229.00,0.000
230.00,0.002
231.00,0.002
232.00,-0.000
233.00,0.001
234.00,0.001
235.00,0.000
236.00,-0.000
237.00,0.001
238.00,-0.001
239.00,0.000
240.00,0.002
241.00,0.000
242.00,-0.001
243.00,0.003
244.00,0.001
245.00,0.002
246.00,-0.000
247.00,0.001
248.00,0.002
249.00,0.002
250.00,0.001
251.00,-0.001
252.00,0.000
253.00,0.002
254.00,0.002
255.00,0.001
256.00,0.001
257.00,-0.000
258.00,0.001
259.00,0.001
260.00,0.000
261.00,0.003
262.00,0.000
263.00,0.000
264.00,0.001
265.00,-0.001
266.00,0.002
267.00,0.001
268.00,0.002
269.00,0.000
270.00,-0.001
271.00,0.000
272.00,-0.000
273.00,-0.001
274.00,-0.000
275.00,0.001
276.00,0.001
277.00,0.002
278.00,-0.000
279.00,0.001
280.00,0.001
281.00,0.001
282.00,-0.001
283.00,0.000
284.00,-0.000
285.00,-0.000
286.00,0.001
287.00,0.000
288.00,-0.001
289.00,0.000
290.00,0.001
291.00,-0.000
292.00,-0.001
293.00,0.002
294.00,-0.000
295.00,0.001
296.00,-0.001
297.00,0.000
298.00,-0.000
299.00,0.000
300.00,0.001
301.00,0.002
302.00,-0.000
303.00,-0.001
304.00,0.002
305.00,0.003
306.00,0.003
307.00,0.005
308.00,0.010
309.00,0.016
310.00,0.023
311.00,0.039
312.00,0.061
313.00,0.092
314.00,0.131
315.00,0.200
316.00,0.283
317.00,0.402
318.00,0.551
319.00,0.740
320.00,0.988
321.00,1.277
322.00,1.648
323.00,2.075
324.00,2.573
325.00,3.119
326.00,3.675
327.00,4.381
328.00,5.130
329.00,5.951
330.00,6.826
331.00,7.727
332.00,8.663
333.00,9.743
334.00,10.750
335.00,11.868
336.00,12.923
337.00,14.037
338.00,15.140
339.00,16.198
340.00,17.283
341.00,18.373
342.00,19.368
343.00,20.415
344.00,21.454
345.00,22.317
346.00,23.276
347.00,24.132
348.00,24.974
349.00,25.754
350.00,26.530
351.00,27.227
352.00,27.846
353.00,28.538
354.00,29.081
355.00,29.665
356.00,30.117
357.00,30.656
358.00,31.184
359.00,31.642
360.00,31.986
361.00,32.418
362.00,32.774
363.00,33.067
364.00,33.390
365.00,33.643
366.00,33.972
367.00,34.098
368.00,34.263
369.00,34.388
370.00,34.574
371.00,34.631
372.00,34.691
373.00,34.793
374.00,34.679
375.00,34.733
376.00,34.705
377.00,34.604
378.00,34.574
379.00,34.446
380.00,34.434
381.00,34.480
382.00,34.467
383.00,34.680
384.00,34.862
385.00,35.006
386.00,35.132
387.00,35.340
388.00,35.433
389.00,35.576
390.00,35.714
391.00,35.880
392.00,36.007
393.00,36.078
394.00,36.237
395.00,36.275
396.00,36.211
397.00,36.335
398.00,36.350
399.00,36.447
400.00,36.464
401.00,36.532
402.00,36.534
403.00,36.522
404.00,36.576
405.00,36.574
406.00,36.671
407.00,36.517
408.00,36.552
409.00,36.492
410.00,36.432
411.00,36.434
412.00,36.404
413.00,36.448
414.00,36.401
415.00,36.372
416.00,36.446
417.00,36.410
418.00,36.500
419.00,36.514
420.00,36.461
421.00,36.535
422.00,36.571
423.00,36.696
424.00,36.649
425.00,36.680
426.00,36.683
427.00,36.767
428.00,36.791
429.00,36.803
430.00,36.847
431.00,36.847
432.00,36.877
433.00,36.967
434.00,36.999
435.00,37.011
436.00,37.071
437.00,37.123
438.00,37.151
439.00,37.229
440.00,37.251
441.00,37.324
442.00,37.411
443.00,37.449
444.00,37.530
445.00,37.612
446.00,37.670
447.00,37.696
448.00,37.772
449.00,37.891
450.00,37.922
451.00,38.057
452.00,38.165
453.00,38.152
454.00,38.249
455.00,38.392
456.00,38.438
457.00,38.591
458.00,38.685
459.00,38.778
460.00,38.852
461.00,38.925
462.00,39.044
463.00,39.152
464.00,39.286
465.00,39.366
466.00,39.410
467.00,39.515
468.00,39.542
469.00,39.654
470.00,39.738
471.00,39.773
472.00,39.926
473.00,39.886
474.00,40.034
475.00,40.085
476.00,40.161
477.00,40.212
478.00,40.314
479.00,40.473
480.00,40.544
481.00,40.617
482.00,40.761
483.00,40.848
484.00,40.972
485.00,41.109
486.00,41.184
487.00,41.283
488.00,41.380
489.00,41.505
490.00,41.675
491.00,41.717
492.00,41.797
493.00,41.946
494.00,41.948
495.00,42.003
496.00,42.138
497.00,42.137
498.00,42.263
499.00,42.407
500.00,42.469
501.00,42.518
502.00,42.646
503.00,42.768
504.00,42.804
505.00,42.935
506.00,43.026
507.00,43.068
508.00,43.119
509.00,43.269
510.00,43.334
511.00,43.404
512.00,43.511
513.00,43.618
514.00,43.709
515.00,43.859
516.00,43.875
517.00,43.981
518.00,44.086
519.00,44.145
520.00,44.223
521.00,44.220
522.00,44.321
523.00,44.406
524.00,44.453
525.00,44.538
526.00,44.628
527.00,44.617
528.00,44.713
529.00,44.749
530.00,44.829
531.00,44.973
532.00,45.010
533.00,45.129
534.00,45.146
535.00,45.202
536.00,45.302
537.00,45.317
538.00,45.417
539.00,45.479
540.00,45.515
541.00,45.608
542.00,45.557
543.00,45.620
544.00,45.703
545.00,45.666
546.00,45.739
547.00,45.889
548.00,45.875
549.00,45.967
550.00,46.034
551.00,46.157
552.00,46.185
553.00,46.176
554.00,46.302
555.00,46.320
556.00,46.365
557.00,46.426
558.00,46.399
559.00,46.479
560.00,46.514
561.00,46.603
562.00,46.696
563.00,46.704
564.00,46.755
565.00,46.774
566.00,46.786
567.00,46.788
568.00,46.784
569.00,46.806
570.00,46.733
571.00,46.774
572.00,46.847
573.00,46.805
574.00,46.941
575.00,46.896
576.00,46.903
577.00,46.929
578.00,47.019
579.00,47.047
580.00,47.041
581.00,47.078
582.00,47.222
583.00,47.233
584.00,47.427
585.00,47.440
586.00,47.394
587.00,47.470
588.00,47.515
589.00,47.570
590.00,47.581
591.00,47.539
592.00,47.505
593.00,47.644
594.00,47.644
595.00,47.722
596.00,47.790
597.00,47.770
598.00,47.874
599.00,47.810
600.00,47.859
601.00,47.823
602.00,47.965
603.00,48.078
604.00,47.980
605.00,48.112
606.00,48.112
607.00,48.107
608.00,48.180
609.00,48.103
610.00,48.158
611.00,48.134
612.00,48.152
613.00,48.134
614.00,48.187
615.00,48.261
616.00,48.299
617.00,48.285
618.00,48.257
619.00,48.332
620.00,48.353
621.00,48.294
622.00,48.388
623.00,48.431
624.00,48.449
625.00,48.511
626.00,48.547
627.00,48.531
628.00,48.426
629.00,48.606
630.00,48.712
631.00,48.665
632.00,48.704
633.00,48.737
634.00,48.749
635.00,48.797
636.00,48.880
637.00,48.845
638.00,48.952
639.00,49.009
640.00,48.996
641.00,49.037
642.00,49.041
643.00,48.957
644.00,49.119
645.00,49.083
646.00,49.201
647.00,49.246
648.00,49.199
649.00,49.362
650.00,49.292
651.00,49.362
652.00,49.319
653.00,49.384
654.00,49.405
655.00,49.462
656.00,49.517
657.00,49.525
658.00,49.601
659.00,49.720
660.00,49.689
661.00,49.546
662.00,49.729
663.00,49.704
664.00,49.890
665.00,49.849
666.00,49.569
667.00,49.756
668.00,50.179
669.00,49.986
670.00,50.095
671.00,50.059
672.00,50.069
673.00,50.066
674.00,50.098
675.00,50.106
676.00,50.185
677.00,50.300
678.00,50.359
679.00,50.326
680.00,50.286
681.00,50.317
682.00,50.311
683.00,50.353
684.00,50.589
685.00,50.571
686.00,50.373
687.00,50.399
688.00,50.370
689.00,50.420
690.00,50.582
691.00,50.639
692.00,50.595
693.00,50.665
694.00,50.564
695.00,50.531
696.00,50.608
697.00,50.587
698.00,50.746
699.00,50.912
700.00,50.775
701.00,50.864
702.00,50.945
703.00,50.892
704.00,50.976
705.00,50.889
706.00,50.922
707.00,51.051
708.00,50.823
709.00,51.012
710.00,51.150
711.00,50.938
712.00,50.947
713.00,51.100
714.00,50.989
715.00,50.999
716.00,50.910
717.00,51.012
718.00,51.036
719.00,50.973
720.00,51.116
721.00,55.667
722.00,55.550
723.00,55.587
724.00,55.562
725.00,55.569
726.00,55.500
727.00,55.486
728.00,55.483
729.00,55.433
730.00,55.379
731.00,55.383
732.00,55.308
733.00,55.301
734.00,55.250
735.00,55.357
736.00,55.318
737.00,55.319
738.00,55.281
739.00,55.293
740.00,55.166
741.00,55.268
742.00,55.230
743.00,55.134
744.00,55.097
745.00,54.994
746.00,54.979
747.00,54.958
748.00,54.974
749.00,54.999
750.00,54.896
751.00,54.886
752.00,54.811
753.00,54.789
754.00,54.702
755.00,54.706
756.00,54.694
757.00,54.684
758.00,54.624
759.00,54.620
760.00,54.549
761.00,54.477
762.00,54.487
763.00,54.498
764.00,54.402
765.00,54.477
766.00,54.423
767.00,54.425
768.00,54.428
769.00,54.346
770.00,54.467
771.00,54.280
772.00,54.310
773.00,54.278
774.00,54.358
775.00,54.294
776.00,54.203
777.00,54.276
778.00,54.094
779.00,54.218
780.00,54.147
781.00,54.091
782.00,54.091
783.00,54.018
784.00,54.009
785.00,53.957
786.00,53.911
787.00,53.924
788.00,53.902
789.00,53.897
790.00,53.815
791.00,53.892
792.00,53.781
793.00,53.762
794.00,53.721
795.00,53.761
796.00,53.627
797.00,53.590
798.00,53.599
799.00,53.520
800.00,53.550
801.00,53.491
802.00,53.389
803.00,53.377
804.00,53.382
805.00,53.333
806.00,53.349
807.00,53.309
808.00,53.324
809.00,53.177
810.00,53.208
811.00,53.186
812.00,53.179
813.00,53.145
814.00,53.079
815.00,53.110
816.00,53.069
817.00,53.002
818.00,52.861
819.00,52.938
820.00,52.969
821.00,52.866
822.00,52.881
823.00,52.905
824.00,52.918
825.00,52.855
826.00,52.771
827.00,52.901
828.00,52.751
829.00,52.833
830.00,52.618
831.00,55.043
832.00,55.006
833.00,54.947
834.00,55.003
835.00,54.913
836.00,54.915
837.00,54.839
838.00,54.831
839.00,54.796
840.00,54.783
841.00,54.790
842.00,54.735
843.00,54.690
844.00,54.700
845.00,54.625
846.00,54.606
847.00,54.560
848.00,54.573
849.00,54.517
850.00,54.506
851.00,54.459
852.00,54.467
853.00,54.370
854.00,54.337
855.00,54.300
856.00,54.303
857.00,54.168
858.00,54.201
859.00,54.124
860.00,54.224
861.00,54.174
862.00,54.106
863.00,54.085
864.00,54.075
865.00,54.080
866.00,54.031
867.00,54.052
868.00,54.021
869.00,53.984
870.00,53.988
871.00,53.986
872.00,53.930
873.00,53.925
874.00,53.911
875.00,53.884
876.00,53.840
877.00,53.844
878.00,53.819
879.00,53.817
880.00,53.750
881.00,53.794
882.00,53.796
883.00,53.784
884.00,53.708
885.00,53.702
886.00,53.676
887.00,53.651
888.00,53.594
889.00,53.584
890.00,53.558
891.00,53.512
892.00,53.508
893.00,53.473
894.00,53.457
895.00,53.451
896.00,53.425
897.00,53.379
898.00,53.359
899.00,53.395
900.00,53.335
901.00,53.336
902.00,53.347
903.00,53.287
904.00,53.255
905.00,53.215
906.00,53.222
907.00,53.195
908.00,53.166
909.00,53.182
910.00,53.131
911.00,53.096
912.00,53.103
913.00,53.067
914.00,53.006
915.00,53.010
916.00,52.981
917.00,52.967
918.00,52.961
919.00,52.889
920.00,52.894
921.00,52.877
922.00,52.845
923.00,52.817
924.00,52.808
925.00,52.782
926.00,52.795
927.00,52.784
928.00,52.739
929.00,52.717
930.00,52.608
931.00,52.743
932.00,52.663
933.00,52.625
934.00,52.603
935.00,52.602
936.00,52.586
937.00,52.527
938.00,52.545
939.00,52.527
940.00,52.503
941.00,52.476
942.00,52.456
943.00,52.451
944.00,52.401
945.00,52.409
946.00,52.396
947.00,52.353
948.00,52.326
949.00,52.320
950.00,52.291
951.00,52.276
952.00,52.223
953.00,52.212
954.00,52.152
955.00,52.108
956.00,52.096
957.00,52.085
958.00,52.075
959.00,52.032
960.00,52.043
961.00,52.023
962.00,52.038
963.00,51.969
964.00,51.976
965.00,51.954
966.00,51.939
967.00,51.917
968.00,51.912
969.00,51.926
970.00,51.899
971.00,51.926
972.00,51.888
973.00,51.939
974.00,51.913
975.00,51.901
976.00,51.908
977.00,51.891
978.00,51.929
979.00,51.910
980.00,51.937
981.00,51.895
982.00,51.879
983.00,51.872
984.00,51.882
985.00,51.884
986.00,51.850
987.00,51.874
988.00,51.827
989.00,51.802
990.00,51.833
991.00,51.841
992.00,51.801
993.00,51.767
994.00,51.775
995.00,51.747
996.00,51.731
997.00,51.718
998.00,51.703
999.00,51.695
1000.00,51.645
1001.00,51.664
1002.00,51.631
1003.00,51.634
1004.00,51.618
1005.00,51.601
1006.00,51.625
1007.00,51.575
1008.00,51.569
1009.00,51.538
1010.00,51.546
1011.00,51.528
1012.00,51.514
1013.00,51.507
1014.00,51.474
1015.00,51.501
1016.00,51.457
1017.00,51.478
1018.00,51.424
1019.00,51.412
1020.00,51.397
1021.00,51.364
1022.00,51.367
1023.00,51.360
1024.00,51.357
1025.00,51.304
1026.00,51.311
1027.00,51.271
1028.00,51.287
1029.00,51.252
1030.00,51.232
1031.00,51.244
1032.00,51.203
1033.00,51.205
1034.00,51.178
1035.00,51.138
1036.00,51.104
1037.00,51.105
1038.00,51.087
1039.00,51.074
1040.00,51.059
1041.00,51.029
1042.00,51.040
1043.00,50.986
1044.00,51.014
1045.00,51.002
1046.00,51.005
1047.00,51.008
1048.00,51.021
1049.00,51.028
1050.00,51.056
1051.00,51.050
1052.00,51.066
1053.00,51.078
1054.00,51.071
1055.00,51.078
1056.00,51.091
1057.00,51.099
1058.00,51.063
1059.00,51.069
1060.00,51.080
1061.00,51.072
1062.00,51.039
1063.00,51.059
1064.00,51.060
1065.00,51.048
1066.00,51.023
1067.00,51.052
1068.00,51.092
1069.00,51.022
1070.00,51.004
1071.00,50.994
1072.00,51.018
1073.00,50.970
1074.00,50.965
1075.00,50.955
1076.00,50.942
1077.00,50.920
1078.00,50.924
1079.00,50.921
1080.00,50.935
1081.00,50.911
1082.00,50.917
1083.00,50.934
1084.00,50.907
1085.00,50.924
1086.00,50.909
1087.00,50.891
1088.00,50.870
1089.00,50.870
1090.00,50.859
1091.00,50.846
1092.00,50.845
1093.00,50.817
1094.00,50.820
1095.00,50.792
1096.00,50.784
1097.00,50.789
1098.00,50.775
1099.00,50.757
1100.00,50.761
1101.00,50.755
1102.00,50.742
1103.00,50.744
1104.00,50.739
1105.00,50.726
1106.00,50.688
1107.00,50.682
1108.00,50.698
1109.00,50.663
1110.00,50.647
1111.00,50.657
1112.00,50.657
1113.00,50.645
1114.00,50.647
1115.00,50.653
1116.00,50.652
1117.00,50.603
1118.00,50.612
1119.00,50.616
1120.00,50.600
1121.00,50.594
1122.00,50.609
1123.00,50.601
1124.00,50.578
1125.00,50.579
1126.00,50.581
1127.00,50.590
1128.00,50.558
1129.00,50.583
1130.00,50.514
1131.00,50.500
1132.00,50.504
1133.00,50.505
1134.00,50.504
1135.00,50.489
1136.00,50.504
1137.00,50.489
1138.00,50.509
1139.00,50.505
1140.00,50.493
1141.00,50.495
1142.00,50.484
1143.00,50.513
1144.00,50.495
1145.00,50.480
1146.00,50.488
1147.00,50.475
1148.00,50.465
1149.00,50.487
1150.00,50.474
1151.00,50.468
1152.00,50.462
1153.00,50.448
1154.00,50.427
1155.00,50.439
1156.00,50.424
1157.00,50.433
1158.00,50.423
1159.00,50.430
1160.00,50.426
1161.00,50.433
1162.00,50.435
1163.00,50.420
1164.00,50.412
1165.00,50.411
1166.00,50.417
1167.00,50.410
1168.00,50.420
1169.00,50.422
1170.00,50.429
1171.00,50.426
1172.00,50.406
1173.00,50.404
1174.00,50.429
1175.00,50.412
1176.00,50.409
1177.00,50.399
1178.00,50.405
1179.00,50.421
1180.00,50.410
1181.00,50.420
1182.00,50.431
1183.00,50.412
1184.00,50.416
1185.00,50.435
1186.00,50.399
1187.00,50.410
1188.00,50.395
1189.00,50.404
1190.00,50.411
1191.00,50.387
1192.00,50.408
1193.00,50.410
1194.00,50.399
1195.00,50.381
1196.00,50.410
1197.00,50.404
1198.00,50.392
1199.00,50.395
1200.00,50.411
1201.00,50.398
1202.00,50.404
1203.00,50.402
1204.00,50.404
1205.00,50.419
1206.00,50.394
1207.00,50.419
1208.00,50.382
1209.00,50.395
1210.00,50.398
1211.00,50.389
1212.00,50.405
1213.00,50.367
1214.00,50.402
1215.00,50.389
1216.00,50.388
1217.00,50.400
1218.00,50.401
1219.00,50.400
1220.00,50.373
1221.00,50.408
1222.00,50.388
1223.00,50.410
1224.00,50.404
1225.00,50.399
1226.00,50.407
1227.00,50.388
1228.00,50.414
1229.00,50.418
1230.00,50.444
1231.00,50.427
1232.00,50.461
1233.00,50.450
1234.00,50.453
1235.00,50.462
1236.00,50.464
1237.00,50.467
1238.00,50.471
1239.00,50.477
1240.00,50.474
1241.00,50.485
1242.00,50.479
1243.00,50.498
1244.00,50.448
1245.00,50.489
1246.00,50.493
1247.00,50.492
1248.00,50.501
1249.00,50.496
1250.00,50.509
1251.00,50.500
1252.00,50.513
1253.00,50.500
1254.00,50.532
1255.00,50.520
1256.00,50.506
1257.00,50.498
1258.00,50.541
1259.00,50.545
1260.00,50.561
1261.00,50.560
1262.00,50.570
1263.00,50.575
1264.00,50.585
1265.00,50.620
1266.00,50.611
1267.00,50.600
1268.00,50.617
1269.00,50.606
1270.00,50.648
1271.00,50.620
1272.00,50.631
1273.00,50.648
1274.00,50.634
1275.00,50.637
1276.00,50.641
1277.00,50.653
1278.00,50.669
1279.00,50.672
1280.00,50.674
1281.00,50.685
1282.00,50.692
1283.00,50.685
1284.00,50.709
1285.00,50.683
1286.00,50.708
1287.00,50.704
1288.00,50.712
1289.00,50.707
1290.00,50.749
1291.00,50.746
1292.00,50.756
1293.00,50.744
1294.00,50.776
1295.00,50.796
1296.00,50.776
1297.00,50.778
1298.00,50.822
1299.00,50.789
1300.00,50.796
1301.00,50.804
1302.00,50.834
1303.00,50.829
1304.00,50.809
1305.00,50.855
1306.00,50.848
1307.00,50.854
1308.00,50.856
1309.00,50.872
1310.00,50.876
1311.00,50.874
1312.00,50.906
1313.00,50.895
1314.00,50.926
1315.00,50.931
1316.00,50.945
1317.00,50.965
1318.00,50.961
1319.00,50.965
1320.00,50.982
1321.00,51.085
1322.00,51.107
1323.00,51.106
1324.00,51.091
1325.00,51.091
1326.00,51.112
1327.00,51.084
1328.00,51.100
1329.00,51.085
1330.00,51.099
1331.00,51.097
1332.00,51.110
1333.00,51.112
1334.00,51.141
1335.00,51.161
1336.00,51.186
1337.00,51.214
1338.00,51.248
1339.00,51.321
1340.00,51.412
1341.00,51.477
1342.00,51.508
1343.00,51.557
1344.00,51.599
1345.00,51.669
1346.00,51.695
1347.00,51.697
1348.00,51.750
1349.00,51.741
1350.00,51.755
1351.00,51.799
1352.00,51.786
1353.00,51.873
1354.00,51.833
1355.00,51.683
1356.00,51.978
1357.00,51.838
1358.00,51.834
1359.00,51.836
1360.00,51.866
1361.00,52.069
1362.00,51.770
1363.00,51.941
1364.00,52.042
1365.00,51.908
1366.00,51.995
1367.00,51.932
1368.00,51.844
1369.00,51.897
1370.00,51.891
1371.00,51.868
1372.00,51.894
1373.00,51.890
1374.00,51.924
1375.00,51.887
1376.00,51.876
1377.00,51.851
1378.00,51.919
1379.00,51.896
1380.00,51.925
1381.00,51.936
1382.00,51.954
1383.00,51.922
1384.00,51.889
1385.00,51.874
1386.00,51.866
1387.00,51.870
1388.00,51.899
1389.00,51.890
1390.00,51.898
1391.00,51.878
1392.00,51.912
1393.00,51.945
1394.00,51.965
1395.00,51.847
1396.00,51.885
1397.00,51.882
1398.00,51.981
1399.00,51.925
1400.00,51.912
1401.00,51.861
1402.00,52.393
1403.00,51.986
1404.00,51.942
1405.00,51.968
1406.00,51.983
1407.00,51.983
1408.00,52.000
1409.00,52.004
1410.00,52.002
1411.00,51.985
1412.00,52.078
1413.00,52.014
1414.00,52.008
1415.00,52.027
1416.00,52.054
1417.00,52.090
1418.00,52.094
1419.00,52.088
1420.00,52.115
1421.00,52.146
1422.00,52.159
1423.00,52.160
1424.00,52.174
1425.00,52.216
1426.00,52.202
1427.00,52.241
1428.00,52.242
1429.00,52.267
1430.00,52.273
1431.00,52.285
1432.00,52.297
1433.00,52.331
1434.00,52.322
1435.00,52.383
1436.00,52.384
1437.00,52.384
1438.00,52.396
1439.00,52.423
1440.00,52.444
1441.00,52.448
1442.00,52.467
1443.00,52.494
1444.00,52.521
1445.00,52.517
1446.00,52.539
1447.00,52.577
1448.00,52.622
1449.00,52.610
1450.00,52.618
1451.00,52.645
1452.00,52.660
1453.00,52.644
1454.00,52.677
1455.00,52.721
1456.00,52.724
1457.00,52.735
1458.00,52.766
1459.00,52.786
1460.00,52.799
1461.00,52.812
1462.00,52.863
1463.00,52.861
1464.00,52.856
1465.00,52.871
1466.00,52.907
1467.00,52.921
1468.00,52.976
1469.00,52.963
1470.00,52.984
1471.00,53.010
1472.00,53.013
1473.00,53.042
1474.00,53.065
1475.00,53.067
1476.00,53.105
1477.00,53.090
1478.00,53.102
1479.00,53.122
1480.00,53.141
1481.00,53.144
1482.00,53.166
1483.00,53.174
1484.00,53.203
1485.00,53.207
1486.00,53.202
1487.00,53.237
1488.00,53.254
1489.00,53.244
1490.00,53.258
1491.00,53.303
1492.00,53.328
1493.00,53.297
1494.00,53.335
1495.00,53.356
1496.00,53.371
1497.00,53.345
1498.00,53.362
1499.00,53.396
1500.00,53.400
1501.00, 
1502.00, 
1503.00, 
1504.00, 
1505.00, 
1506.00, 
1507.00, 
1508.00, 
1509.00, 
1510.00, 
1511.00, 
1512.00, 
1513.00, 
1514.00, 
1515.00, 
1516.00, 
1517.00, 
1518.00, 
1519.00, 
1520.00, 
1521.00, 
1522.00, 
1523.00, 
1524.00, 
1525.00, 
1526.00, 
1527.00, 
1528.00, 
1529.00, 
1530.00, 
1531.00, 
1532.00, 
1533.00, 
1534.00, 
1535.00, 
1536.00, 
1537.00, 
1538.00, 
1539.00, 
1540.00, 
1541.00, 
1542.00, 
1543.00, 
1544.00, 
1545.00, 
1546.00, 
1547.00, 
1548.00, 
1549.00, 
1550.00, 
1551.00, 
1552.00, 
1553.00, 
1554.00, 
1555.00, 
1556.00, 
1557.00, 
1558.00, 
1559.00, 
1560.00, 
1561.00, 
1562.00, 
1563.00, 
1564.00, 
1565.00, 
1566.00, 
1567.00, 
1568.00, 
1569.00, 
1570.00, 
1571.00, 
1572.00, 
1573.00, 
1574.00, 
1575.00, 
1576.00, 
1577.00, 
1578.00, 
1579.00, 
1580.00, 
1581.00, 
1582.00, 
1583.00, 
1584.00, 
1585.00, 
1586.00, 
1587.00, 
1588.00, 
1589.00, 
1590.00, 
1591.00, 
1592.00, 
1593.00, 
1594.00, 
1595.00, 
1596.00, 
1597.00, 
1598.00, 
1599.00, 
1600.00, 
1601.00, 
1602.00, 
1603.00, 
1604.00, 
1605.00, 
1606.00, 
1607.00, 
1608.00, 
1609.00, 
1610.00, 
1611.00, 
1612.00, 
1613.00, 
1614.00, 
1615.00, 
1616.00, 
1617.00, 
1618.00, 
1619.00, 
1620.00, 
1621.00, 
1622.00, 
1623.00, 
1624.00, 
1625.00, 
1626.00, 
1627.00, 
1628.00, 
1629.00, 
1630.00, 
1631.00, 
1632.00, 
1633.00, 
1634.00, 
1635.00, 
1636.00, 
1637.00, 
1638.00, 
1639.00, 
1640.00, 
1641.00, 
1642.00, 
1643.00, 
1644.00, 
1645.00, 
1646.00, 
1647.00, 
1648.00, 
1649.00, 
1650.00, 
1651.00, 
1652.00, 
1653.00, 
1654.00, 
1655.00, 
1656.00, 
1657.00, 
1658.00, 
1659.00, 
1660.00, 
1661.00, 
1662.00, 
1663.00, 
1664.00, 
1665.00, 
1666.00, 
1667.00, 
1668.00, 
1669.00, 
1670.00, 
1671.00, 
1672.00, 
1673.00, 
1674.00, 
1675.00, 
1676.00, 
1677.00, 
1678.00, 
1679.00, 
1680.00, 
1681.00, 
1682.00, 
1683.00, 
1684.00, 
1685.00, 
1686.00, 
1687.00, 
1688.00, 
1689.00, 
1690.00, 
1691.00, 
1692.00, 
1693.00, 
1694.00, 
1695.00, 
1696.00, 
1697.00, 
1698.00, 
1699.00, 
1700.00, 
1701.00, 
1702.00, 
1703.00, 
1704.00, 
1705.00, 
1706.00, 
1707.00, 
1708.00, 
1709.00, 
1710.00, 
1711.00, 
1712.00, 
1713.00, 
1714.00, 
1715.00, 
1716.00, 
1717.00, 
1718.00, 
1719.00, 
1720.00, 
1721.00, 
1722.00, 
1723.00, 
1724.00, 
1725.00, 
1726.00, 
1727.00, 
1728.00, 
1729.00, 
1730.00, 
1731.00, 
1732.00, 
1733.00, 
1734.00, 
1735.00, 
1736.00, 
1737.00, 
1738.00, 
1739.00, 
1740.00, 
1741.00, 
1742.00, 
1743.00, 
1744.00, 
1745.00, 
1746.00, 
1747.00, 
1748.00, 
1749.00, 
1750.00, 
1751.00, 
1752.00, 
1753.00, 
1754.00, 
1755.00, 
1756.00, 
1757.00, 
1758.00, 
1759.00, 
1760.00, 
1761.00, 
1762.00, 
1763.00, 
1764.00, 
1765.00, 
1766.00, 
1767.00, 
1768.00, 
1769.00, 
1770.00, 
1771.00, 
1772.00, 
1773.00, 
1774.00, 
1775.00, 
1776.00, 
1777.00, 
1778.00, 
1779.00, 
1780.00, 
1781.00, 
1782.00, 
1783.00, 
1784.00, 
1785.00, 
1786.00, 
1787.00, 
1788.00, 
1789.00, 
1790.00, 
1791.00, 
1792.00, 
1793.00, 
1794.00, 
1795.00, 
1796.00, 
1797.00, 
1798.00, 
1799.00, 
1800.00, 
1801.00, 
1802.00, 
1803.00, 
1804.00, 
1805.00, 
1806.00, 
1807.00, 
1808.00, 
1809.00, 
1810.00, 
1811.00, 
1812.00, 
1813.00, 
1814.00, 
1815.00, 
1816.00, 
1817.00, 
1818.00, 
1819.00, 
1820.00, 
1821.00, 
1822.00, 
1823.00, 
1824.00, 
1825.00, 
1826.00, 
1827.00, 
1828.00, 
1829.00, 
1830.00, 
1831.00, 
1832.00, 
1833.00, 
1834.00, 
1835.00, 
1836.00, 
1837.00, 
1838.00, 
1839.00, 
1840.00, 
1841.00, 
1842.00, 
1843.00, 
1844.00, 
1845.00, 
1846.00, 
1847.00, 
1848.00, 
1849.00, 
1850.00, 
1851.00, 
1852.00, 
1853.00, 
1854.00, 
1855.00, 
1856.00, 
1857.00, 
1858.00, 
1859.00, 
1860.00, 
1861.00, 
1862.00, 
1863.00, 
1864.00, 
1865.00, 
1866.00, 
1867.00, 
1868.00, 
1869.00, 
1870.00, 
1871.00, 
1872.00, 
1873.00, 
1874.00, 
1875.00, 
1876.00, 
1877.00, 
1878.00, 
1879.00, 
1880.00, 
1881.00, 
1882.00, 
1883.00, 
1884.00, 
1885.00, 
1886.00, 
1887.00, 
1888.00, 
1889.00, 
1890.00, 
1891.00, 
1892.00, 
1893.00, 
1894.00, 
1895.00, 
1896.00, 
1897.00, 
1898.00, 
1899.00, 
1900.00, 
1901.00, 
1902.00, 
1903.00, 
1904.00, 
1905.00, 
1906.00, 
1907.00, 
1908.00, 
1909.00, 
1910.00, 
1911.00, 
1912.00, 
1913.00, 
1914.00, 
1915.00, 
1916.00, 
1917.00, 
1918.00, 
1919.00, 
1920.00, 
1921.00, 
1922.00, 
1923.00, 
1924.00, 
1925.00, 
1926.00, 
1927.00, 
1928.00, 
1929.00, 
1930.00, 
1931.00, 
1932.00, 
1933.00, 
1934.00, 
1935.00, 
1936.00, 
1937.00, 
1938.00, 
1939.00, 
1940.00, 
1941.00, 
1942.00, 
1943.00, 
1944.00, 
1945.00, 
1946.00, 
1947.00, 
1948.00, 
1949.00, 
1950.00, 
1951.00, 
1952.00, 
1953.00, 
1954.00, 
1955.00, 
1956.00, 
1957.00, 
1958.00, 
1959.00, 
1960.00, 
1961.00, 
1962.00, 
1963.00, 
1964.00, 
1965.00, 
1966.00, 
1967.00, 
1968.00, 
1969.00, 
1970.00, 
1971.00, 
1972.00, 
1973.00, 
1974.00, 
1975.00, 
1976.00, 
1977.00, 
1978.00, 
1979.00, 
1980.00, 
1981.00, 
1982.00, 
1983.00, 
1984.00, 
1985.00, 
1986.00, 
1987.00, 
1988.00, 
1989.00, 
1990.00, 
1991.00, 
1992.00, 
1993.00, 
1994.00, 
1995.00, 
1996.00, 
1997.00, 
1998.00, 
1999.00, 
2000.00, 
2001.00, 
2002.00, 
2003.00, 
2004.00, 
2005.00, 
2006.00, 
2007.00, 
2008.00, 
2009.00, 
2010.00, 
2011.00, 
2012.00, 
2013.00, 
2014.00, 
2015.00, 
2016.00, 
2017.00, 
2018.00, 
2019.00, 
2020.00, 
2021.00, 
2022.00, 
2023.00, 
2024.00, 
2025.00, 
2026.00, 
2027.00, 
2028.00, 
2029.00, 
2030.00, 
2031.00, 
2032.00, 
2033.00, 
2034.00, 
2035.00, 
2036.00, 
2037.00, 
2038.00, 
2039.00, 
2040.00, 
2041.00, 
2042.00, 
2043.00, 
2044.00, 
2045.00, 
2046.00, 
2047.00, 
2048.00, 
2049.00, 
2050.00, 
2051.00, 
2052.00, 
2053.00, 
2054.00, 
2055.00, 
2056.00, 
2057.00, 
2058.00, 
2059.00, 
2060.00, 
2061.00, 
2062.00, 
2063.00, 
2064.00, 
2065.00, 
2066.00, 
2067.00, 
2068.00, 
2069.00, 
2070.00, 
2071.00, 
2072.00, 
2073.00, 
2074.00, 
2075.00, 
2076.00, 
2077.00, 
2078.00, 
2079.00, 
2080.00, 
2081.00, 
2082.00, 
2083.00, 
2084.00, 
2085.00, 
2086.00, 
2087.00, 
2088.00, 
2089.00, 
2090.00, 
2091.00, 
2092.00, 
2093.00, 
2094.00, 
2095.00, 
2096.00, 
2097.00, 
2098.00, 
2099.00, 
2100.00, 
2101.00, 
2102.00, 
2103.00, 
2104.00, 
2105.00, 
2106.00, 
2107.00, 
2108.00, 
2109.00, 
2110.00, 
2111.00, 
2112.00, 
2113.00, 
2114.00, 
2115.00, 
2116.00, 
2117.00, 
2118.00, 
2119.00, 
2120.00, 
2121.00, 
2122.00, 
2123.00, 
2124.00, 
2125.00, 
2126.00, 
2127.00, 
2128.00, 
2129.00, 
2130.00, 
2131.00, 
2132.00, 
2133.00, 
2134.00, 
2135.00, 
2136.00, 
2137.00, 
2138.00, 
2139.00, 
2140.00, 
2141.00, 
2142.00, 
2143.00, 
2144.00, 
2145.00, 
2146.00, 
2147.00, 
2148.00, 
2149.00, 
2150.00, 
2151.00, 
2152.00, 
2153.00, 
2154.00, 
2155.00, 
2156.00, 
2157.00, 
2158.00, 
2159.00, 
2160.00, 
2161.00, 
2162.00, 
2163.00, 
2164.00, 
2165.00, 
2166.00, 
2167.00, 
2168.00, 
2169.00, 
2170.00, 
2171.00, 
2172.00, 
2173.00, 
2174.00, 
2175.00, 
2176.00, 
2177.00, 
2178.00, 
2179.00, 
2180.00, 
2181.00, 
2182.00, 
2183.00, 
2184.00, 
2185.00, 
2186.00, 
2187.00, 
2188.00, 
2189.00, 
2190.00, 
2191.00, 
2192.00, 
2193.00, 
2194.00, 
2195.00, 
2196.00, 
2197.00, 
2198.00, 
2199.00, 
2200.00, 
2201.00, 
2202.00, 
2203.00, 
2204.00, 
2205.00, 
2206.00, 
2207.00, 
2208.00, 
2209.00, 
2210.00, 
2211.00, 
2212.00, 
2213.00, 
2214.00, 
2215.00, 
2216.00, 
2217.00, 
2218.00, 
2219.00, 
2220.00, 
2221.00, 
2222.00, 
2223.00, 
2224.00, 
2225.00, 
2226.00, 
2227.00, 
2228.00, 
2229.00, 
2230.00, 
2231.00, 
2232.00, 
2233.00, 
2234.00, 
2235.00, 
2236.00, 
2237.00, 
2238.00, 
2239.00, 
2240.00, 
2241.00, 
2242.00, 
2243.00, 
2244.00, 
2245.00, 
2246.00, 
2247.00, 
2248.00, 
2249.00, 
2250.00, 
2251.00, 
2252.00, 
2253.00, 
2254.00, 
2255.00, 
2256.00, 
2257.00, 
2258.00, 
2259.00, 
2260.00, 
2261.00, 
2262.00, 
2263.00, 
2264.00, 
2265.00, 
2266.00, 
2267.00, 
2268.00, 
2269.00, 
2270.00, 
2271.00, 
2272.00, 
2273.00, 
2274.00, 
2275.00, 
2276.00, 
2277.00, 
2278.00, 
2279.00, 
2280.00, 
2281.00, 
2282.00, 
2283.00, 
2284.00, 
2285.00, 
2286.00, 
2287.00, 
2288.00, 
2289.00, 
2290.00, 
2291.00, 
2292.00, 
2293.00, 
2294.00, 
2295.00, 
2296.00, 
2297.00, 
2298.00, 
2299.00, 
2300.00, 
2301.00, 
2302.00, 
2303.00, 
2304.00, 
2305.00, 
2306.00, 
2307.00, 
2308.00, 
2309.00, 
2310.00, 
2311.00, 
2312.00, 
2313.00, 
2314.00, 
2315.00, 
2316.00, 
2317.00, 
2318.00, 
2319.00, 
2320.00, 
2321.00, 
2322.00, 
2323.00, 
2324.00, 
2325.00, 
2326.00, 
2327.00, 
2328.00, 
2329.00, 
2330.00, 
2331.00, 
2332.00, 
2333.00, 
2334.00, 
2335.00, 
2336.00, 
2337.00, 
2338.00, 
2339.00, 
2340.00, 
2341.00, 
2342.00, 
2343.00, 
2344.00, 
2345.00, 
2346.00, 
2347.00, 
2348.00, 
2349.00, 
2350.00, 
2351.00, 
2352.00, 
2353.00, 
2354.00, 
2355.00, 
2356.00, 
2357.00, 
2358.00, 
2359.00, 
2360.00, 
2361.00, 
2362.00, 
2363.00, 
2364.00, 
2365.00, 
2366.00, 
2367.00, 
2368.00, 
2369.00, 
2370.00, 
2371.00, 
2372.00, 
2373.00, 
2374.00, 
2375.00, 
2376.00, 
2377.00, 
2378.00, 
2379.00, 
2380.00, 
2381.00, 
2382.00, 
2383.00, 
2384.00, 
2385.00, 
2386.00, 
2387.00, 
2388.00, 
2389.00, 
2390.00, 
2391.00, 
2392.00, 
2393.00, 
2394.00, 
2395.00, 
2396.00, 
2397.00, 
2398.00, 
2399.00, 
2400.00, 
2401.00, 
2402.00, 
2403.00, 
2404.00, 
2405.00, 
2406.00, 
2407.00, 
2408.00, 
2409.00, 
2410.00, 
2411.00, 
2412.00, 
2413.00, 
2414.00, 
2415.00, 
2416.00, 
2417.00, 
2418.00, 
2419.00, 
2420.00, 
2421.00, 
2422.00, 
2423.00, 
2424.00, 
2425.00, 
2426.00, 
2427.00, 
2428.00, 
2429.00, 
2430.00, 
2431.00, 
2432.00, 
2433.00, 
2434.00, 
2435.00, 
2436.00, 
2437.00, 
2438.00, 
2439.00, 
2440.00, 
2441.00, 
2442.00, 
2443.00, 
2444.00, 
2445.00, 
2446.00, 
2447.00, 
2448.00, 
2449.00, 
2450.00, 
2451.00, 
2452.00, 
2453.00, 
2454.00, 
2455.00, 
2456.00, 
2457.00, 
2458.00, 
2459.00, 
2460.00, 
2461.00, 
2462.00, 
2463.00, 
2464.00, 
2465.00, 
2466.00, 
2467.00, 
2468.00, 
2469.00, 
2470.00, 
2471.00, 
2472.00, 
2473.00, 
2474.00, 
2475.00, 
2476.00, 
2477.00, 
2478.00, 
2479.00, 
2480.00, 
2481.00, 
2482.00, 
2483.00, 
2484.00, 
2485.00, 
2486.00, 
2487.00, 
2488.00, 
2489.00, 
2490.00, 
2491.00, 
2492.00, 
2493.00, 
2494.00, 
2495.00, 
2496.00, 
2497.00, 
2498.00, 
2499.00, 
2500.00, 
2501.00, 
2502.00, 
2503.00, 
2504.00, 
2505.00, 
2506.00, 
2507.00, 
2508.00, 
2509.00, 
2510.00, 
2511.00, 
2512.00, 
2513.00, 
2514.00, 
2515.00, 
2516.00, 
2517.00, 
2518.00, 
2519.00, 
2520.00, 
2521.00, 
2522.00, 
2523.00, 
2524.00, 
2525.00, 
2526.00, 
2527.00, 
2528.00, 
2529.00, 
2530.00, 
2531.00, 
2532.00, 
2533.00, 
2534.00, 
2535.00, 
2536.00, 
2537.00, 
2538.00, 
2539.00, 
2540.00, 
2541.00, 
2542.00, 
2543.00, 
2544.00, 
2545.00, 
2546.00, 
2547.00, 
2548.00, 
2549.00, 
2550.00, 
2551.00, 
2552.00, 
2553.00, 
2554.00, 
2555.00, 
2556.00, 
2557.00, 
2558.00, 
2559.00, 
2560.00, 
2561.00, 
2562.00, 
2563.00, 
2564.00, 
2565.00, 
2566.00, 
2567.00, 
2568.00, 
2569.00, 
2570.00, 
2571.00, 
2572.00, 
2573.00, 
2574.00, 
2575.00, 
2576.00, 
2577.00, 
2578.00, 
2579.00, 
2580.00, 
2581.00, 
2582.00, 
2583.00, 
2584.00, 
2585.00, 
2586.00, 
2587.00, 
2588.00, 
2589.00, 
2590.00, 
2591.00, 
2592.00, 
2593.00, 
2594.00, 
2595.00, 
2596.00, 
2597.00, 
2598.00, 
2599.00, 
2600.00, 
