"1cP4 - RawData"
"Wavelength nm.","T%"
200.00,0.002
201.00,0.002
202.00,0.002
203.00,0.003
204.00,0.003
205.00,0.002
206.00,0.001
207.00,0.000
208.00,0.003
209.00,0.003
210.00,-0.000
211.00,0.001
212.00,0.003
213.00,0.003
214.00,-0.001
215.00,-0.003
216.00,0.004
217.00,0.003
218.00,-0.001
219.00,0.002
220.00,0.002
221.00,0.001
222.00,0.004
223.00,0.003
224.00,0.001
225.00,0.002
226.00,-0.001
227.00,0.000
228.00,-0.001
229.00,0.001
230.00,-0.000
231.00,-0.000
232.00,0.001
233.00,-0.000
234.00,0.003
235.00,0.001
236.00,-0.000
237.00,0.001
238.00,0.002
239.00,0.001
240.00,0.002
241.00,0.000
242.00,-0.001
243.00,0.001
244.00,0.001
245.00,0.001
246.00,0.002
247.00,0.002
248.00,0.002
249.00,0.001
250.00,0.003
251.00,0.002
252.00,0.001
253.00,0.002
254.00,0.000
255.00,-0.001
256.00,0.002
257.00,-0.001
258.00,-0.001
259.00,0.000
260.00,-0.000
261.00,0.001
262.00,-0.001
263.00,0.001
264.00,0.001
265.00,0.001
266.00,0.002
267.00,-0.000
268.00,0.002
269.00,0.001
270.00,0.001
271.00,0.000
272.00,0.000
273.00,0.001
274.00,0.000
275.00,0.000
276.00,-0.001
277.00,-0.000
278.00,-0.000
279.00,0.001
280.00,0.000
281.00,-0.000
282.00,0.000
283.00,0.000
284.00,-0.000
285.00,0.001
286.00,0.002
287.00,0.001
288.00,0.001
289.00,0.002
290.00,0.001
291.00,0.002
292.00,0.001
293.00,0.001
294.00,0.000
295.00,0.000
296.00,0.002
297.00,-0.000
298.00,-0.000
299.00,0.001
300.00,0.002
301.00,0.001
302.00,0.000
303.00,0.000
304.00,0.001
305.00,0.002
306.00,0.004
307.00,0.002
308.00,0.008
309.00,0.014
310.00,0.020
311.00,0.028
312.00,0.050
313.00,0.077
314.00,0.115
315.00,0.169
316.00,0.241
317.00,0.342
318.00,0.461
319.00,0.629
320.00,0.822
321.00,1.071
322.00,1.383
323.00,1.736
324.00,2.137
325.00,2.581
326.00,3.074
327.00,3.651
328.00,4.263
329.00,4.890
330.00,5.651
331.00,6.377
332.00,7.171
333.00,7.878
334.00,8.840
335.00,9.749
336.00,10.580
337.00,11.478
338.00,12.352
339.00,13.200
340.00,14.097
341.00,14.957
342.00,15.747
343.00,16.583
344.00,17.385
345.00,18.034
346.00,18.868
347.00,19.505
348.00,20.166
349.00,20.762
350.00,21.380
351.00,21.957
352.00,22.381
353.00,22.922
354.00,23.326
355.00,23.749
356.00,24.164
357.00,24.529
358.00,24.855
359.00,25.166
360.00,25.455
361.00,25.800
362.00,26.031
363.00,26.297
364.00,26.513
365.00,26.719
366.00,26.860
367.00,26.978
368.00,27.084
369.00,27.124
370.00,27.241
371.00,27.296
372.00,27.306
373.00,27.281
374.00,27.222
375.00,27.313
376.00,27.185
377.00,27.110
378.00,27.026
379.00,26.938
380.00,26.945
381.00,26.921
382.00,26.969
383.00,27.030
384.00,27.102
385.00,27.245
386.00,27.314
387.00,27.401
388.00,27.509
389.00,27.584
390.00,27.671
391.00,27.789
392.00,27.860
393.00,27.912
394.00,27.974
395.00,27.973
396.00,28.073
397.00,28.016
398.00,28.088
399.00,28.075
400.00,28.129
401.00,28.152
402.00,28.143
403.00,28.124
404.00,28.138
405.00,28.141
406.00,28.188
407.00,28.114
408.00,28.095
409.00,28.064
410.00,28.012
411.00,28.042
412.00,27.993
413.00,27.980
414.00,27.996
415.00,27.978
416.00,27.988
417.00,28.030
418.00,28.049
419.00,28.073
420.00,28.055
421.00,28.188
422.00,28.239
423.00,28.262
424.00,28.285
425.00,28.336
426.00,28.369
427.00,28.419
428.00,28.464
429.00,28.518
430.00,28.525
431.00,28.565
432.00,28.599
433.00,28.690
434.00,28.762
435.00,28.807
436.00,28.901
437.00,28.965
438.00,28.996
439.00,29.078
440.00,29.154
441.00,29.238
442.00,29.327
443.00,29.373
444.00,29.492
445.00,29.519
446.00,29.675
447.00,29.770
448.00,29.849
449.00,29.990
450.00,30.027
451.00,30.145
452.00,30.298
453.00,30.356
454.00,30.506
455.00,30.625
456.00,30.727
457.00,30.849
458.00,30.938
459.00,31.067
460.00,31.167
461.00,31.279
462.00,31.431
463.00,31.544
464.00,31.681
465.00,31.792
466.00,31.876
467.00,32.004
468.00,32.154
469.00,32.267
470.00,32.376
471.00,32.462
472.00,32.606
473.00,32.642
474.00,32.769
475.00,32.868
476.00,32.948
477.00,33.077
478.00,33.167
479.00,33.331
480.00,33.517
481.00,33.550
482.00,33.713
483.00,33.760
484.00,33.977
485.00,34.189
486.00,34.273
487.00,34.386
488.00,34.502
489.00,34.668
490.00,34.856
491.00,34.929
492.00,35.046
493.00,35.176
494.00,35.252
495.00,35.311
496.00,35.498
497.00,35.592
498.00,35.646
499.00,35.791
500.00,35.897
501.00,36.084
502.00,36.221
503.00,36.361
504.00,36.446
505.00,36.544
506.00,36.678
507.00,36.737
508.00,36.822
509.00,36.938
510.00,37.110
511.00,37.175
512.00,37.226
513.00,37.428
514.00,37.575
515.00,37.629
516.00,37.728
517.00,37.863
518.00,37.958
519.00,38.080
520.00,38.130
521.00,38.143
522.00,38.313
523.00,38.374
524.00,38.380
525.00,38.461
526.00,38.561
527.00,38.669
528.00,38.708
529.00,38.692
530.00,38.749
531.00,39.013
532.00,39.081
533.00,39.203
534.00,39.215
535.00,39.322
536.00,39.383
537.00,39.395
538.00,39.534
539.00,39.556
540.00,39.612
541.00,39.701
542.00,39.638
543.00,39.747
544.00,39.890
545.00,39.885
546.00,39.975
547.00,40.068
548.00,40.077
549.00,40.206
550.00,40.276
551.00,40.364
552.00,40.408
553.00,40.395
554.00,40.526
555.00,40.598
556.00,40.607
557.00,40.668
558.00,40.705
559.00,40.770
560.00,40.821
561.00,40.890
562.00,40.955
563.00,40.944
564.00,40.992
565.00,41.023
566.00,41.071
567.00,41.088
568.00,41.106
569.00,41.106
570.00,41.049
571.00,41.151
572.00,41.213
573.00,41.199
574.00,41.309
575.00,41.264
576.00,41.304
577.00,41.372
578.00,41.353
579.00,41.394
580.00,41.445
581.00,41.523
582.00,41.543
583.00,41.559
584.00,41.799
585.00,41.791
586.00,41.783
587.00,41.837
588.00,41.885
589.00,41.859
590.00,41.931
591.00,41.944
592.00,41.941
593.00,42.042
594.00,42.060
595.00,42.094
596.00,42.154
597.00,42.129
598.00,42.250
599.00,42.248
600.00,42.337
601.00,42.384
602.00,42.449
603.00,42.550
604.00,42.469
605.00,42.434
606.00,42.550
607.00,42.671
608.00,42.574
609.00,42.578
610.00,42.665
611.00,42.690
612.00,42.770
613.00,42.733
614.00,42.799
615.00,42.849
616.00,42.872
617.00,42.909
618.00,42.975
619.00,43.024
620.00,43.049
621.00,43.065
622.00,43.085
623.00,43.168
624.00,43.229
625.00,43.210
626.00,43.271
627.00,43.294
628.00,43.352
629.00,43.328
630.00,43.304
631.00,43.583
632.00,43.612
633.00,43.649
634.00,43.704
635.00,43.753
636.00,43.844
637.00,43.937
638.00,43.977
639.00,44.072
640.00,44.102
641.00,44.119
642.00,44.199
643.00,44.253
644.00,44.321
645.00,44.325
646.00,44.381
647.00,44.469
648.00,44.519
649.00,44.708
650.00,44.663
651.00,44.519
652.00,44.686
653.00,44.845
654.00,44.723
655.00,44.768
656.00,44.803
657.00,45.195
658.00,45.165
659.00,45.262
660.00,45.251
661.00,45.247
662.00,45.478
663.00,45.511
664.00,45.528
665.00,45.561
666.00,45.637
667.00,45.861
668.00,45.727
669.00,45.859
670.00,45.954
671.00,46.033
672.00,46.016
673.00,46.194
674.00,46.306
675.00,46.293
676.00,46.288
677.00,46.478
678.00,46.635
679.00,46.564
680.00,46.627
681.00,46.760
682.00,46.839
683.00,46.922
684.00,46.999
685.00,47.083
686.00,46.971
687.00,47.008
688.00,47.231
689.00,47.221
690.00,47.153
691.00,47.297
692.00,47.428
693.00,47.471
694.00,47.353
695.00,47.414
696.00,47.482
697.00,47.640
698.00,47.812
699.00,47.922
700.00,47.968
701.00,47.997
702.00,48.045
703.00,48.062
704.00,48.228
705.00,48.115
706.00,48.241
707.00,48.432
708.00,48.146
709.00,48.255
710.00,48.463
711.00,48.461
712.00,48.489
713.00,48.549
714.00,48.518
715.00,48.638
716.00,48.661
717.00,48.595
718.00,48.703
719.00,48.733
720.00,48.917
721.00,53.021
722.00,52.965
723.00,53.018
724.00,53.067
725.00,53.058
726.00,53.037
727.00,52.978
728.00,53.070
729.00,53.063
730.00,52.962
731.00,53.012
732.00,53.069
733.00,53.026
734.00,53.014
735.00,53.101
736.00,53.112
737.00,53.069
738.00,53.167
739.00,53.144
740.00,53.052
741.00,53.174
742.00,53.184
743.00,53.098
744.00,53.073
745.00,53.122
746.00,53.005
747.00,53.064
748.00,53.001
749.00,53.010
750.00,53.032
751.00,52.973
752.00,52.998
753.00,53.008
754.00,52.961
755.00,52.955
756.00,52.971
757.00,52.984
758.00,52.941
759.00,52.937
760.00,52.894
761.00,52.833
762.00,52.878
763.00,52.898
764.00,52.864
765.00,52.881
766.00,52.844
767.00,52.918
768.00,52.910
769.00,52.787
770.00,52.941
771.00,52.913
772.00,52.861
773.00,52.831
774.00,52.956
775.00,52.813
776.00,52.733
777.00,52.878
778.00,52.737
779.00,52.875
780.00,52.738
781.00,52.750
782.00,52.755
783.00,52.742
784.00,52.744
785.00,52.723
786.00,52.673
787.00,52.696
788.00,52.650
789.00,52.688
790.00,52.617
791.00,52.693
792.00,52.501
793.00,52.602
794.00,52.530
795.00,52.429
796.00,52.421
797.00,52.406
798.00,52.423
799.00,52.384
800.00,52.396
801.00,52.361
802.00,52.262
803.00,52.283
804.00,52.247
805.00,52.214
806.00,52.271
807.00,52.315
808.00,52.211
809.00,52.189
810.00,52.129
811.00,52.098
812.00,52.131
813.00,52.141
814.00,52.055
815.00,52.135
816.00,51.988
817.00,52.024
818.00,51.916
819.00,51.987
820.00,51.903
821.00,51.929
822.00,51.893
823.00,51.951
824.00,51.924
825.00,51.891
826.00,51.893
827.00,51.832
828.00,51.898
829.00,51.761
830.00,51.793
831.00,54.042
832.00,54.022
833.00,53.990
834.00,53.978
835.00,53.928
836.00,53.937
837.00,53.884
838.00,53.876
839.00,53.845
840.00,53.832
841.00,53.834
842.00,53.774
843.00,53.777
844.00,53.783
845.00,53.695
846.00,53.703
847.00,53.683
848.00,53.649
849.00,53.611
850.00,53.580
851.00,53.511
852.00,53.526
853.00,53.481
854.00,53.430
855.00,53.397
856.00,53.408
857.00,53.331
858.00,53.333
859.00,53.298
860.00,53.332
861.00,53.312
862.00,53.277
863.00,53.268
864.00,53.244
865.00,53.262
866.00,53.240
867.00,53.223
868.00,53.216
869.00,53.169
870.00,53.177
871.00,53.164
872.00,53.132
873.00,53.119
874.00,53.144
875.00,53.099
876.00,53.081
877.00,53.046
878.00,53.057
879.00,53.051
880.00,52.998
881.00,53.015
882.00,53.030
883.00,52.973
884.00,52.923
885.00,52.928
886.00,52.921
887.00,52.815
888.00,52.820
889.00,52.970
890.00,52.847
891.00,52.796
892.00,52.771
893.00,52.757
894.00,52.738
895.00,52.718
896.00,52.707
897.00,52.689
898.00,52.641
899.00,52.661
900.00,52.601
901.00,52.609
902.00,52.599
903.00,52.535
904.00,52.506
905.00,52.532
906.00,52.508
907.00,52.481
908.00,52.465
909.00,52.475
910.00,52.426
911.00,52.376
912.00,52.384
913.00,52.350
914.00,52.298
915.00,52.344
916.00,52.295
917.00,52.248
918.00,52.257
919.00,52.226
920.00,52.199
921.00,52.179
922.00,52.163
923.00,52.130
924.00,52.125
925.00,52.094
926.00,52.125
927.00,52.096
928.00,52.045
929.00,52.054
930.00,52.119
931.00,52.017
932.00,51.987
933.00,51.960
934.00,51.921
935.00,51.910
936.00,51.902
937.00,51.875
938.00,51.876
939.00,51.872
940.00,51.838
941.00,51.816
942.00,51.776
943.00,51.769
944.00,51.731
945.00,51.721
946.00,51.723
947.00,51.692
948.00,51.681
949.00,51.663
950.00,51.663
951.00,51.630
952.00,51.603
953.00,51.563
954.00,51.536
955.00,51.486
956.00,51.468
957.00,51.463
958.00,51.448
959.00,51.408
960.00,51.415
961.00,51.453
962.00,51.393
963.00,51.337
964.00,51.335
965.00,51.328
966.00,51.316
967.00,51.297
968.00,51.291
969.00,51.296
970.00,51.279
971.00,51.314
972.00,51.257
973.00,51.316
974.00,51.314
975.00,51.255
976.00,51.307
977.00,51.370
978.00,51.308
979.00,51.282
980.00,51.300
981.00,51.300
982.00,51.259
983.00,51.271
984.00,51.266
985.00,51.267
986.00,51.246
987.00,51.240
988.00,51.158
989.00,51.212
990.00,51.203
991.00,51.177
992.00,51.188
993.00,51.171
994.00,51.168
995.00,51.153
996.00,51.141
997.00,51.128
998.00,51.103
999.00,51.101
1000.00,51.069
1001.00,51.076
1002.00,51.038
1003.00,51.046
1004.00,51.045
1005.00,51.010
1006.00,51.037
1007.00,51.010
1008.00,50.993
1009.00,50.978
1010.00,50.966
1011.00,50.951
1012.00,50.938
1013.00,50.911
1014.00,50.915
1015.00,50.917
1016.00,50.838
1017.00,50.864
1018.00,50.858
1019.00,50.831
1020.00,50.818
1021.00,50.800
1022.00,50.778
1023.00,50.747
1024.00,50.743
1025.00,50.738
1026.00,50.738
1027.00,50.685
1028.00,50.693
1029.00,50.677
1030.00,50.642
1031.00,50.655
1032.00,50.623
1033.00,50.634
1034.00,50.599
1035.00,50.560
1036.00,50.526
1037.00,50.546
1038.00,50.498
1039.00,50.466
1040.00,50.475
1041.00,50.437
1042.00,50.446
1043.00,50.405
1044.00,50.442
1045.00,50.425
1046.00,50.414
1047.00,50.429
1048.00,50.463
1049.00,50.473
1050.00,50.479
1051.00,50.503
1052.00,50.498
1053.00,50.514
1054.00,50.518
1055.00,50.542
1056.00,50.552
1057.00,50.538
1058.00,50.520
1059.00,50.514
1060.00,50.520
1061.00,50.513
1062.00,50.497
1063.00,50.503
1064.00,50.499
1065.00,50.465
1066.00,50.475
1067.00,50.472
1068.00,50.479
1069.00,50.450
1070.00,50.451
1071.00,50.413
1072.00,50.441
1073.00,50.411
1074.00,50.397
1075.00,50.389
1076.00,50.382
1077.00,50.371
1078.00,50.364
1079.00,50.361
1080.00,50.373
1081.00,50.359
1082.00,50.347
1083.00,50.331
1084.00,50.348
1085.00,50.346
1086.00,50.327
1087.00,50.318
1088.00,50.309
1089.00,50.297
1090.00,50.283
1091.00,50.282
1092.00,50.279
1093.00,50.251
1094.00,50.260
1095.00,50.230
1096.00,50.226
1097.00,50.260
1098.00,50.238
1099.00,50.204
1100.00,50.206
1101.00,50.188
1102.00,50.180
1103.00,50.194
1104.00,50.170
1105.00,50.157
1106.00,50.152
1107.00,50.140
1108.00,50.137
1109.00,50.119
1110.00,50.122
1111.00,50.116
1112.00,50.094
1113.00,50.109
1114.00,50.114
1115.00,50.085
1116.00,50.092
1117.00,50.071
1118.00,50.063
1119.00,50.069
1120.00,50.055
1121.00,50.036
1122.00,50.043
1123.00,50.039
1124.00,50.024
1125.00,50.027
1126.00,50.024
1127.00,50.023
1128.00,50.008
1129.00,49.994
1130.00,49.971
1131.00,49.960
1132.00,49.952
1133.00,49.955
1134.00,49.967
1135.00,49.957
1136.00,49.965
1137.00,49.947
1138.00,49.955
1139.00,49.955
1140.00,49.951
1141.00,49.950
1142.00,49.922
1143.00,49.951
1144.00,49.917
1145.00,49.911
1146.00,49.921
1147.00,49.923
1148.00,49.903
1149.00,49.918
1150.00,49.932
1151.00,49.909
1152.00,49.901
1153.00,49.907
1154.00,49.898
1155.00,49.899
1156.00,49.886
1157.00,49.899
1158.00,49.897
1159.00,49.883
1160.00,49.874
1161.00,49.894
1162.00,49.883
1163.00,49.888
1164.00,49.879
1165.00,49.870
1166.00,49.876
1167.00,49.864
1168.00,49.882
1169.00,49.891
1170.00,49.890
1171.00,49.879
1172.00,49.867
1173.00,49.863
1174.00,49.878
1175.00,49.846
1176.00,49.858
1177.00,49.859
1178.00,49.847
1179.00,49.861
1180.00,49.873
1181.00,49.883
1182.00,49.882
1183.00,49.890
1184.00,49.867
1185.00,49.877
1186.00,49.872
1187.00,49.879
1188.00,49.859
1189.00,49.838
1190.00,49.834
1191.00,49.844
1192.00,49.858
1193.00,49.857
1194.00,49.872
1195.00,49.835
1196.00,49.863
1197.00,49.861
1198.00,49.860
1199.00,49.866
1200.00,49.869
1201.00,49.872
1202.00,49.865
1203.00,49.864
1204.00,49.856
1205.00,49.872
1206.00,49.857
1207.00,49.868
1208.00,49.841
1209.00,49.857
1210.00,49.856
1211.00,49.861
1212.00,49.879
1213.00,49.852
1214.00,49.873
1215.00,49.852
1216.00,49.867
1217.00,49.868
1218.00,49.873
1219.00,49.875
1220.00,49.868
1221.00,49.886
1222.00,49.853
1223.00,49.878
1224.00,49.877
1225.00,49.861
1226.00,49.858
1227.00,49.873
1228.00,49.890
1229.00,49.888
1230.00,49.912
1231.00,49.906
1232.00,49.944
1233.00,49.918
1234.00,49.926
1235.00,49.949
1236.00,49.923
1237.00,49.924
1238.00,49.943
1239.00,49.943
1240.00,49.928
1241.00,49.937
1242.00,49.945
1243.00,49.977
1244.00,49.929
1245.00,49.964
1246.00,49.991
1247.00,49.958
1248.00,49.964
1249.00,49.982
1250.00,49.985
1251.00,49.980
1252.00,49.983
1253.00,49.982
1254.00,50.014
1255.00,49.985
1256.00,49.975
1257.00,49.989
1258.00,50.036
1259.00,50.019
1260.00,50.049
1261.00,50.036
1262.00,50.044
1263.00,50.040
1264.00,50.053
1265.00,50.066
1266.00,50.038
1267.00,50.051
1268.00,50.073
1269.00,50.063
1270.00,50.086
1271.00,50.084
1272.00,50.100
1273.00,50.107
1274.00,50.089
1275.00,50.110
1276.00,50.120
1277.00,50.120
1278.00,50.136
1279.00,50.159
1280.00,50.130
1281.00,50.146
1282.00,50.163
1283.00,50.125
1284.00,50.141
1285.00,50.133
1286.00,50.166
1287.00,50.160
1288.00,50.170
1289.00,50.178
1290.00,50.221
1291.00,50.211
1292.00,50.210
1293.00,50.221
1294.00,50.221
1295.00,50.229
1296.00,50.227
1297.00,50.238
1298.00,50.259
1299.00,50.227
1300.00,50.254
1301.00,50.256
1302.00,50.276
1303.00,50.291
1304.00,50.290
1305.00,50.310
1306.00,50.297
1307.00,50.313
1308.00,50.317
1309.00,50.335
1310.00,50.323
1311.00,50.317
1312.00,50.352
1313.00,50.337
1314.00,50.369
1315.00,50.392
1316.00,50.383
1317.00,50.403
1318.00,50.396
1319.00,50.406
1320.00,50.405
1321.00,50.559
1322.00,50.568
1323.00,50.564
1324.00,50.544
1325.00,50.526
1326.00,50.562
1327.00,50.531
1328.00,50.536
1329.00,50.541
1330.00,50.540
1331.00,50.547
1332.00,50.561
1333.00,50.564
1334.00,50.613
1335.00,50.615
1336.00,50.648
1337.00,50.688
1338.00,50.741
1339.00,50.787
1340.00,50.858
1341.00,50.899
1342.00,50.965
1343.00,51.014
1344.00,51.063
1345.00,51.119
1346.00,51.144
1347.00,51.195
1348.00,51.219
1349.00,51.210
1350.00,51.204
1351.00,51.269
1352.00,51.221
1353.00,51.304
1354.00,51.245
1355.00,51.133
1356.00,51.412
1357.00,51.283
1358.00,51.274
1359.00,51.299
1360.00,51.326
1361.00,51.506
1362.00,51.293
1363.00,51.358
1364.00,51.518
1365.00,51.349
1366.00,51.414
1367.00,51.388
1368.00,51.290
1369.00,51.315
1370.00,51.358
1371.00,51.349
1372.00,51.343
1373.00,51.340
1374.00,51.328
1375.00,51.325
1376.00,51.329
1377.00,51.308
1378.00,51.360
1379.00,51.350
1380.00,51.345
1381.00,51.400
1382.00,51.434
1383.00,51.380
1384.00,51.362
1385.00,51.283
1386.00,51.325
1387.00,51.320
1388.00,51.324
1389.00,51.247
1390.00,51.306
1391.00,51.355
1392.00,51.362
1393.00,51.329
1394.00,51.375
1395.00,51.286
1396.00,51.308
1397.00,51.261
1398.00,51.383
1399.00,51.346
1400.00,51.325
1401.00,51.270
1402.00,51.758
1403.00,51.401
1404.00,51.354
1405.00,51.401
1406.00,51.406
1407.00,51.369
1408.00,51.444
1409.00,51.384
1410.00,51.421
1411.00,51.388
1412.00,51.438
1413.00,51.440
1414.00,51.466
1415.00,51.451
1416.00,51.490
1417.00,51.528
1418.00,51.501
1419.00,51.499
1420.00,51.511
1421.00,51.536
1422.00,51.564
1423.00,51.560
1424.00,51.567
1425.00,51.603
1426.00,51.593
1427.00,51.631
1428.00,51.643
1429.00,51.632
1430.00,51.667
1431.00,51.682
1432.00,51.695
1433.00,51.738
1434.00,51.694
1435.00,51.743
1436.00,51.786
1437.00,51.773
1438.00,51.797
1439.00,51.834
1440.00,51.844
1441.00,51.850
1442.00,51.860
1443.00,51.886
1444.00,51.950
1445.00,51.928
1446.00,51.941
1447.00,52.001
1448.00,52.038
1449.00,52.011
1450.00,52.041
1451.00,52.043
1452.00,52.058
1453.00,52.057
1454.00,52.100
1455.00,52.125
1456.00,52.122
1457.00,52.148
1458.00,52.173
1459.00,52.177
1460.00,52.189
1461.00,52.220
1462.00,52.232
1463.00,52.245
1464.00,52.281
1465.00,52.288
1466.00,52.302
1467.00,52.296
1468.00,52.354
1469.00,52.357
1470.00,52.351
1471.00,52.387
1472.00,52.396
1473.00,52.397
1474.00,52.400
1475.00,52.429
1476.00,52.481
1477.00,52.451
1478.00,52.455
1479.00,52.495
1480.00,52.507
1481.00,52.480
1482.00,52.505
1483.00,52.545
1484.00,52.548
1485.00,52.570
1486.00,52.582
1487.00,52.632
1488.00,52.641
1489.00,52.624
1490.00,52.663
1491.00,52.686
1492.00,52.681
1493.00,52.678
1494.00,52.728
1495.00,52.712
1496.00,52.725
1497.00,52.730
1498.00,52.763
1499.00,52.778
1500.00,52.765
1501.00, 
1502.00, 
1503.00, 
1504.00, 
1505.00, 
1506.00, 
1507.00, 
1508.00, 
1509.00, 
1510.00, 
1511.00, 
1512.00, 
1513.00, 
1514.00, 
1515.00, 
1516.00, 
1517.00, 
1518.00, 
1519.00, 
1520.00, 
1521.00, 
1522.00, 
1523.00, 
1524.00, 
1525.00, 
1526.00, 
1527.00, 
1528.00, 
1529.00, 
1530.00, 
1531.00, 
1532.00, 
1533.00, 
1534.00, 
1535.00, 
1536.00, 
1537.00, 
1538.00, 
1539.00, 
1540.00, 
1541.00, 
1542.00, 
1543.00, 
1544.00, 
1545.00, 
1546.00, 
1547.00, 
1548.00, 
1549.00, 
1550.00, 
1551.00, 
1552.00, 
1553.00, 
1554.00, 
1555.00, 
1556.00, 
1557.00, 
1558.00, 
1559.00, 
1560.00, 
1561.00, 
1562.00, 
1563.00, 
1564.00, 
1565.00, 
1566.00, 
1567.00, 
1568.00, 
1569.00, 
1570.00, 
1571.00, 
1572.00, 
1573.00, 
1574.00, 
1575.00, 
1576.00, 
1577.00, 
1578.00, 
1579.00, 
1580.00, 
1581.00, 
1582.00, 
1583.00, 
1584.00, 
1585.00, 
1586.00, 
1587.00, 
1588.00, 
1589.00, 
1590.00, 
1591.00, 
1592.00, 
1593.00, 
1594.00, 
1595.00, 
1596.00, 
1597.00, 
1598.00, 
1599.00, 
1600.00, 
1601.00, 
1602.00, 
1603.00, 
1604.00, 
1605.00, 
1606.00, 
1607.00, 
1608.00, 
1609.00, 
1610.00, 
1611.00, 
1612.00, 
1613.00, 
1614.00, 
1615.00, 
1616.00, 
1617.00, 
1618.00, 
1619.00, 
1620.00, 
1621.00, 
1622.00, 
1623.00, 
1624.00, 
1625.00, 
1626.00, 
1627.00, 
1628.00, 
1629.00, 
1630.00, 
1631.00, 
1632.00, 
1633.00, 
1634.00, 
1635.00, 
1636.00, 
1637.00, 
1638.00, 
1639.00, 
1640.00, 
1641.00, 
1642.00, 
1643.00, 
1644.00, 
1645.00, 
1646.00, 
1647.00, 
1648.00, 
1649.00, 
1650.00, 
1651.00, 
1652.00, 
1653.00, 
1654.00, 
1655.00, 
1656.00, 
1657.00, 
1658.00, 
1659.00, 
1660.00, 
1661.00, 
1662.00, 
1663.00, 
1664.00, 
1665.00, 
1666.00, 
1667.00, 
1668.00, 
1669.00, 
1670.00, 
1671.00, 
1672.00, 
1673.00, 
1674.00, 
1675.00, 
1676.00, 
1677.00, 
1678.00, 
1679.00, 
1680.00, 
1681.00, 
1682.00, 
1683.00, 
1684.00, 
1685.00, 
1686.00, 
1687.00, 
1688.00, 
1689.00, 
1690.00, 
1691.00, 
1692.00, 
1693.00, 
1694.00, 
1695.00, 
1696.00, 
1697.00, 
1698.00, 
1699.00, 
1700.00, 
1701.00, 
1702.00, 
1703.00, 
1704.00, 
1705.00, 
1706.00, 
1707.00, 
1708.00, 
1709.00, 
1710.00, 
1711.00, 
1712.00, 
1713.00, 
1714.00, 
1715.00, 
1716.00, 
1717.00, 
1718.00, 
1719.00, 
1720.00, 
1721.00, 
1722.00, 
1723.00, 
1724.00, 
1725.00, 
1726.00, 
1727.00, 
1728.00, 
1729.00, 
1730.00, 
1731.00, 
1732.00, 
1733.00, 
1734.00, 
1735.00, 
1736.00, 
1737.00, 
1738.00, 
1739.00, 
1740.00, 
1741.00, 
1742.00, 
1743.00, 
1744.00, 
1745.00, 
1746.00, 
1747.00, 
1748.00, 
1749.00, 
1750.00, 
1751.00, 
1752.00, 
1753.00, 
1754.00, 
1755.00, 
1756.00, 
1757.00, 
1758.00, 
1759.00, 
1760.00, 
1761.00, 
1762.00, 
1763.00, 
1764.00, 
1765.00, 
1766.00, 
1767.00, 
1768.00, 
1769.00, 
1770.00, 
1771.00, 
1772.00, 
1773.00, 
1774.00, 
1775.00, 
1776.00, 
1777.00, 
1778.00, 
1779.00, 
1780.00, 
1781.00, 
1782.00, 
1783.00, 
1784.00, 
1785.00, 
1786.00, 
1787.00, 
1788.00, 
1789.00, 
1790.00, 
1791.00, 
1792.00, 
1793.00, 
1794.00, 
1795.00, 
1796.00, 
1797.00, 
1798.00, 
1799.00, 
1800.00, 
1801.00, 
1802.00, 
1803.00, 
1804.00, 
1805.00, 
1806.00, 
1807.00, 
1808.00, 
1809.00, 
1810.00, 
1811.00, 
1812.00, 
1813.00, 
1814.00, 
1815.00, 
1816.00, 
1817.00, 
1818.00, 
1819.00, 
1820.00, 
1821.00, 
1822.00, 
1823.00, 
1824.00, 
1825.00, 
1826.00, 
1827.00, 
1828.00, 
1829.00, 
1830.00, 
1831.00, 
1832.00, 
1833.00, 
1834.00, 
1835.00, 
1836.00, 
1837.00, 
1838.00, 
1839.00, 
1840.00, 
1841.00, 
1842.00, 
1843.00, 
1844.00, 
1845.00, 
1846.00, 
1847.00, 
1848.00, 
1849.00, 
1850.00, 
1851.00, 
1852.00, 
1853.00, 
1854.00, 
1855.00, 
1856.00, 
1857.00, 
1858.00, 
1859.00, 
1860.00, 
1861.00, 
1862.00, 
1863.00, 
1864.00, 
1865.00, 
1866.00, 
1867.00, 
1868.00, 
1869.00, 
1870.00, 
1871.00, 
1872.00, 
1873.00, 
1874.00, 
1875.00, 
1876.00, 
1877.00, 
1878.00, 
1879.00, 
1880.00, 
1881.00, 
1882.00, 
1883.00, 
1884.00, 
1885.00, 
1886.00, 
1887.00, 
1888.00, 
1889.00, 
1890.00, 
1891.00, 
1892.00, 
1893.00, 
1894.00, 
1895.00, 
1896.00, 
1897.00, 
1898.00, 
1899.00, 
1900.00, 
1901.00, 
1902.00, 
1903.00, 
1904.00, 
1905.00, 
1906.00, 
1907.00, 
1908.00, 
1909.00, 
1910.00, 
1911.00, 
1912.00, 
1913.00, 
1914.00, 
1915.00, 
1916.00, 
1917.00, 
1918.00, 
1919.00, 
1920.00, 
1921.00, 
1922.00, 
1923.00, 
1924.00, 
1925.00, 
1926.00, 
1927.00, 
1928.00, 
1929.00, 
1930.00, 
1931.00, 
1932.00, 
1933.00, 
1934.00, 
1935.00, 
1936.00, 
1937.00, 
1938.00, 
1939.00, 
1940.00, 
1941.00, 
1942.00, 
1943.00, 
1944.00, 
1945.00, 
1946.00, 
1947.00, 
1948.00, 
1949.00, 
1950.00, 
1951.00, 
1952.00, 
1953.00, 
1954.00, 
1955.00, 
1956.00, 
1957.00, 
1958.00, 
1959.00, 
1960.00, 
1961.00, 
1962.00, 
1963.00, 
1964.00, 
1965.00, 
1966.00, 
1967.00, 
1968.00, 
1969.00, 
1970.00, 
1971.00, 
1972.00, 
1973.00, 
1974.00, 
1975.00, 
1976.00, 
1977.00, 
1978.00, 
1979.00, 
1980.00, 
1981.00, 
1982.00, 
1983.00, 
1984.00, 
1985.00, 
1986.00, 
1987.00, 
1988.00, 
1989.00, 
1990.00, 
1991.00, 
1992.00, 
1993.00, 
1994.00, 
1995.00, 
1996.00, 
1997.00, 
1998.00, 
1999.00, 
2000.00, 
2001.00, 
2002.00, 
2003.00, 
2004.00, 
2005.00, 
2006.00, 
2007.00, 
2008.00, 
2009.00, 
2010.00, 
2011.00, 
2012.00, 
2013.00, 
2014.00, 
2015.00, 
2016.00, 
2017.00, 
2018.00, 
2019.00, 
2020.00, 
2021.00, 
2022.00, 
2023.00, 
2024.00, 
2025.00, 
2026.00, 
2027.00, 
2028.00, 
2029.00, 
2030.00, 
2031.00, 
2032.00, 
2033.00, 
2034.00, 
2035.00, 
2036.00, 
2037.00, 
2038.00, 
2039.00, 
2040.00, 
2041.00, 
2042.00, 
2043.00, 
2044.00, 
2045.00, 
2046.00, 
2047.00, 
2048.00, 
2049.00, 
2050.00, 
2051.00, 
2052.00, 
2053.00, 
2054.00, 
2055.00, 
2056.00, 
2057.00, 
2058.00, 
2059.00, 
2060.00, 
2061.00, 
2062.00, 
2063.00, 
2064.00, 
2065.00, 
2066.00, 
2067.00, 
2068.00, 
2069.00, 
2070.00, 
2071.00, 
2072.00, 
2073.00, 
2074.00, 
2075.00, 
2076.00, 
2077.00, 
2078.00, 
2079.00, 
2080.00, 
2081.00, 
2082.00, 
2083.00, 
2084.00, 
2085.00, 
2086.00, 
2087.00, 
2088.00, 
2089.00, 
2090.00, 
2091.00, 
2092.00, 
2093.00, 
2094.00, 
2095.00, 
2096.00, 
2097.00, 
2098.00, 
2099.00, 
2100.00, 
2101.00, 
2102.00, 
2103.00, 
2104.00, 
2105.00, 
2106.00, 
2107.00, 
2108.00, 
2109.00, 
2110.00, 
2111.00, 
2112.00, 
2113.00, 
2114.00, 
2115.00, 
2116.00, 
2117.00, 
2118.00, 
2119.00, 
2120.00, 
2121.00, 
2122.00, 
2123.00, 
2124.00, 
2125.00, 
2126.00, 
2127.00, 
2128.00, 
2129.00, 
2130.00, 
2131.00, 
2132.00, 
2133.00, 
2134.00, 
2135.00, 
2136.00, 
2137.00, 
2138.00, 
2139.00, 
2140.00, 
2141.00, 
2142.00, 
2143.00, 
2144.00, 
2145.00, 
2146.00, 
2147.00, 
2148.00, 
2149.00, 
2150.00, 
2151.00, 
2152.00, 
2153.00, 
2154.00, 
2155.00, 
2156.00, 
2157.00, 
2158.00, 
2159.00, 
2160.00, 
2161.00, 
2162.00, 
2163.00, 
2164.00, 
2165.00, 
2166.00, 
2167.00, 
2168.00, 
2169.00, 
2170.00, 
2171.00, 
2172.00, 
2173.00, 
2174.00, 
2175.00, 
2176.00, 
2177.00, 
2178.00, 
2179.00, 
2180.00, 
2181.00, 
2182.00, 
2183.00, 
2184.00, 
2185.00, 
2186.00, 
2187.00, 
2188.00, 
2189.00, 
2190.00, 
2191.00, 
2192.00, 
2193.00, 
2194.00, 
2195.00, 
2196.00, 
2197.00, 
2198.00, 
2199.00, 
2200.00, 
2201.00, 
2202.00, 
2203.00, 
2204.00, 
2205.00, 
2206.00, 
2207.00, 
2208.00, 
2209.00, 
2210.00, 
2211.00, 
2212.00, 
2213.00, 
2214.00, 
2215.00, 
2216.00, 
2217.00, 
2218.00, 
2219.00, 
2220.00, 
2221.00, 
2222.00, 
2223.00, 
2224.00, 
2225.00, 
2226.00, 
2227.00, 
2228.00, 
2229.00, 
2230.00, 
2231.00, 
2232.00, 
2233.00, 
2234.00, 
2235.00, 
2236.00, 
2237.00, 
2238.00, 
2239.00, 
2240.00, 
2241.00, 
2242.00, 
2243.00, 
2244.00, 
2245.00, 
2246.00, 
2247.00, 
2248.00, 
2249.00, 
2250.00, 
2251.00, 
2252.00, 
2253.00, 
2254.00, 
2255.00, 
2256.00, 
2257.00, 
2258.00, 
2259.00, 
2260.00, 
2261.00, 
2262.00, 
2263.00, 
2264.00, 
2265.00, 
2266.00, 
2267.00, 
2268.00, 
2269.00, 
2270.00, 
2271.00, 
2272.00, 
2273.00, 
2274.00, 
2275.00, 
2276.00, 
2277.00, 
2278.00, 
2279.00, 
2280.00, 
2281.00, 
2282.00, 
2283.00, 
2284.00, 
2285.00, 
2286.00, 
2287.00, 
2288.00, 
2289.00, 
2290.00, 
2291.00, 
2292.00, 
2293.00, 
2294.00, 
2295.00, 
2296.00, 
2297.00, 
2298.00, 
2299.00, 
2300.00, 
2301.00, 
2302.00, 
2303.00, 
2304.00, 
2305.00, 
2306.00, 
2307.00, 
2308.00, 
2309.00, 
2310.00, 
2311.00, 
2312.00, 
2313.00, 
2314.00, 
2315.00, 
2316.00, 
2317.00, 
2318.00, 
2319.00, 
2320.00, 
2321.00, 
2322.00, 
2323.00, 
2324.00, 
2325.00, 
2326.00, 
2327.00, 
2328.00, 
2329.00, 
2330.00, 
2331.00, 
2332.00, 
2333.00, 
2334.00, 
2335.00, 
2336.00, 
2337.00, 
2338.00, 
2339.00, 
2340.00, 
2341.00, 
2342.00, 
2343.00, 
2344.00, 
2345.00, 
2346.00, 
2347.00, 
2348.00, 
2349.00, 
2350.00, 
2351.00, 
2352.00, 
2353.00, 
2354.00, 
2355.00, 
2356.00, 
2357.00, 
2358.00, 
2359.00, 
2360.00, 
2361.00, 
2362.00, 
2363.00, 
2364.00, 
2365.00, 
2366.00, 
2367.00, 
2368.00, 
2369.00, 
2370.00, 
2371.00, 
2372.00, 
2373.00, 
2374.00, 
2375.00, 
2376.00, 
2377.00, 
2378.00, 
2379.00, 
2380.00, 
2381.00, 
2382.00, 
2383.00, 
2384.00, 
2385.00, 
2386.00, 
2387.00, 
2388.00, 
2389.00, 
2390.00, 
2391.00, 
2392.00, 
2393.00, 
2394.00, 
2395.00, 
2396.00, 
2397.00, 
2398.00, 
2399.00, 
2400.00, 
2401.00, 
2402.00, 
2403.00, 
2404.00, 
2405.00, 
2406.00, 
2407.00, 
2408.00, 
2409.00, 
2410.00, 
2411.00, 
2412.00, 
2413.00, 
2414.00, 
2415.00, 
2416.00, 
2417.00, 
2418.00, 
2419.00, 
2420.00, 
2421.00, 
2422.00, 
2423.00, 
2424.00, 
2425.00, 
2426.00, 
2427.00, 
2428.00, 
2429.00, 
2430.00, 
2431.00, 
2432.00, 
2433.00, 
2434.00, 
2435.00, 
2436.00, 
2437.00, 
2438.00, 
2439.00, 
2440.00, 
2441.00, 
2442.00, 
2443.00, 
2444.00, 
2445.00, 
2446.00, 
2447.00, 
2448.00, 
2449.00, 
2450.00, 
2451.00, 
2452.00, 
2453.00, 
2454.00, 
2455.00, 
2456.00, 
2457.00, 
2458.00, 
2459.00, 
2460.00, 
2461.00, 
2462.00, 
2463.00, 
2464.00, 
2465.00, 
2466.00, 
2467.00, 
2468.00, 
2469.00, 
2470.00, 
2471.00, 
2472.00, 
2473.00, 
2474.00, 
2475.00, 
2476.00, 
2477.00, 
2478.00, 
2479.00, 
2480.00, 
2481.00, 
2482.00, 
2483.00, 
2484.00, 
2485.00, 
2486.00, 
2487.00, 
2488.00, 
2489.00, 
2490.00, 
2491.00, 
2492.00, 
2493.00, 
2494.00, 
2495.00, 
2496.00, 
2497.00, 
2498.00, 
2499.00, 
2500.00, 
2501.00, 
2502.00, 
2503.00, 
2504.00, 
2505.00, 
2506.00, 
2507.00, 
2508.00, 
2509.00, 
2510.00, 
2511.00, 
2512.00, 
2513.00, 
2514.00, 
2515.00, 
2516.00, 
2517.00, 
2518.00, 
2519.00, 
2520.00, 
2521.00, 
2522.00, 
2523.00, 
2524.00, 
2525.00, 
2526.00, 
2527.00, 
2528.00, 
2529.00, 
2530.00, 
2531.00, 
2532.00, 
2533.00, 
2534.00, 
2535.00, 
2536.00, 
2537.00, 
2538.00, 
2539.00, 
2540.00, 
2541.00, 
2542.00, 
2543.00, 
2544.00, 
2545.00, 
2546.00, 
2547.00, 
2548.00, 
2549.00, 
2550.00, 
2551.00, 
2552.00, 
2553.00, 
2554.00, 
2555.00, 
2556.00, 
2557.00, 
2558.00, 
2559.00, 
2560.00, 
2561.00, 
2562.00, 
2563.00, 
2564.00, 
2565.00, 
2566.00, 
2567.00, 
2568.00, 
2569.00, 
2570.00, 
2571.00, 
2572.00, 
2573.00, 
2574.00, 
2575.00, 
2576.00, 
2577.00, 
2578.00, 
2579.00, 
2580.00, 
2581.00, 
2582.00, 
2583.00, 
2584.00, 
2585.00, 
2586.00, 
2587.00, 
2588.00, 
2589.00, 
2590.00, 
2591.00, 
2592.00, 
2593.00, 
2594.00, 
2595.00, 
2596.00, 
2597.00, 
2598.00, 
2599.00, 
2600.00, 
