"1cP5 - RawData"
"Wavelength nm.","T%"
200.00,0.000
201.00,0.002
202.00,0.001
203.00,0.003
204.00,0.003
205.00,0.001
206.00,0.001
207.00,-0.001
208.00,0.003
209.00,0.000
210.00,-0.001
211.00,0.002
212.00,0.001
213.00,0.000
214.00,0.003
215.00,-0.000
216.00,0.001
217.00,0.001
218.00,0.000
219.00,-0.000
220.00,0.000
221.00,0.001
222.00,0.000
223.00,0.001
224.00,0.001
225.00,-0.000
226.00,-0.002
227.00,0.002
228.00,0.000
229.00,0.000
230.00,0.001
231.00,0.001
232.00,0.002
233.00,-0.001
234.00,0.002
235.00,0.002
236.00,0.002
237.00,-0.001
238.00,0.002
239.00,0.002
240.00,0.000
241.00,0.000
242.00,-0.000
243.00,0.000
244.00,0.001
245.00,0.001
246.00,-0.000
247.00,0.002
248.00,0.002
249.00,0.000
250.00,0.002
251.00,0.001
252.00,-0.002
253.00,0.002
254.00,0.000
255.00,0.000
256.00,0.002
257.00,0.001
258.00,0.001
259.00,-0.001
260.00,0.002
261.00,0.000
262.00,0.001
263.00,0.000
264.00,-0.002
265.00,-0.000
266.00,0.001
267.00,0.001
268.00,0.000
269.00,-0.000
270.00,-0.000
271.00,0.000
272.00,0.001
273.00,0.002
274.00,0.000
275.00,0.002
276.00,0.002
277.00,0.000
278.00,0.000
279.00,-0.000
280.00,0.001
281.00,0.000
282.00,0.001
283.00,-0.001
284.00,0.000
285.00,0.001
286.00,-0.001
287.00,0.000
288.00,0.002
289.00,-0.000
290.00,-0.001
291.00,-0.002
292.00,-0.001
293.00,0.004
294.00,0.001
295.00,0.000
296.00,-0.000
297.00,0.000
298.00,-0.000
299.00,-0.000
300.00,0.001
301.00,0.001
302.00,0.001
303.00,-0.000
304.00,0.001
305.00,0.001
306.00,0.001
307.00,0.005
308.00,0.007
309.00,0.012
310.00,0.019
311.00,0.033
312.00,0.046
313.00,0.074
314.00,0.109
315.00,0.157
316.00,0.221
317.00,0.316
318.00,0.426
319.00,0.588
320.00,0.786
321.00,1.008
322.00,1.286
323.00,1.640
324.00,2.002
325.00,2.421
326.00,2.870
327.00,3.428
328.00,3.991
329.00,4.602
330.00,5.263
331.00,5.964
332.00,6.712
333.00,7.508
334.00,8.274
335.00,9.101
336.00,9.922
337.00,10.632
338.00,11.581
339.00,12.360
340.00,13.172
341.00,13.991
342.00,14.729
343.00,15.509
344.00,16.239
345.00,16.869
346.00,17.608
347.00,18.237
348.00,18.822
349.00,19.385
350.00,19.906
351.00,20.473
352.00,20.911
353.00,21.400
354.00,21.740
355.00,22.122
356.00,22.481
357.00,22.873
358.00,23.184
359.00,23.464
360.00,23.693
361.00,24.037
362.00,24.115
363.00,24.449
364.00,24.659
365.00,24.793
366.00,24.970
367.00,25.025
368.00,25.156
369.00,25.177
370.00,25.258
371.00,25.344
372.00,25.359
373.00,25.330
374.00,25.230
375.00,25.271
376.00,25.210
377.00,25.112
378.00,25.047
379.00,24.942
380.00,24.896
381.00,24.921
382.00,24.925
383.00,24.977
384.00,25.055
385.00,25.150
386.00,25.203
387.00,25.277
388.00,25.345
389.00,25.400
390.00,25.491
391.00,25.600
392.00,25.645
393.00,25.742
394.00,25.722
395.00,25.777
396.00,25.757
397.00,25.756
398.00,25.718
399.00,25.853
400.00,25.847
401.00,25.910
402.00,25.848
403.00,25.849
404.00,25.790
405.00,25.849
406.00,25.851
407.00,25.828
408.00,25.785
409.00,25.764
410.00,25.698
411.00,25.701
412.00,25.671
413.00,25.693
414.00,25.680
415.00,25.686
416.00,25.688
417.00,25.696
418.00,25.758
419.00,25.765
420.00,25.707
421.00,25.849
422.00,25.874
423.00,25.939
424.00,25.926
425.00,25.951
426.00,26.023
427.00,26.098
428.00,26.141
429.00,26.133
430.00,26.119
431.00,26.185
432.00,26.144
433.00,26.378
434.00,26.393
435.00,26.467
436.00,26.551
437.00,26.591
438.00,26.657
439.00,26.725
440.00,26.796
441.00,26.906
442.00,26.962
443.00,27.028
444.00,27.156
445.00,27.202
446.00,27.321
447.00,27.432
448.00,27.506
449.00,27.642
450.00,27.707
451.00,27.857
452.00,27.987
453.00,28.023
454.00,28.181
455.00,28.310
456.00,28.403
457.00,28.528
458.00,28.643
459.00,28.785
460.00,28.897
461.00,28.998
462.00,29.144
463.00,29.247
464.00,29.412
465.00,29.528
466.00,29.635
467.00,29.758
468.00,29.871
469.00,30.049
470.00,30.142
471.00,30.254
472.00,30.384
473.00,30.450
474.00,30.565
475.00,30.657
476.00,30.763
477.00,30.868
478.00,31.004
479.00,31.154
480.00,31.312
481.00,31.421
482.00,31.529
483.00,31.699
484.00,31.841
485.00,32.038
486.00,32.140
487.00,32.272
488.00,32.427
489.00,32.587
490.00,32.720
491.00,32.847
492.00,32.976
493.00,33.134
494.00,33.155
495.00,33.274
496.00,33.452
497.00,33.505
498.00,33.689
499.00,33.859
500.00,33.934
501.00,34.046
502.00,34.212
503.00,34.309
504.00,34.448
505.00,34.553
506.00,34.706
507.00,34.752
508.00,34.868
509.00,35.034
510.00,35.100
511.00,35.229
512.00,35.355
513.00,35.442
514.00,35.633
515.00,35.745
516.00,35.789
517.00,35.990
518.00,36.056
519.00,36.159
520.00,36.317
521.00,36.299
522.00,36.422
523.00,36.547
524.00,36.585
525.00,36.629
526.00,36.784
527.00,36.836
528.00,36.925
529.00,36.927
530.00,36.942
531.00,37.213
532.00,37.294
533.00,37.410
534.00,37.451
535.00,37.557
536.00,37.660
537.00,37.688
538.00,37.782
539.00,37.879
540.00,37.854
541.00,37.935
542.00,37.975
543.00,38.051
544.00,38.180
545.00,38.151
546.00,38.263
547.00,38.371
548.00,38.300
549.00,38.468
550.00,38.553
551.00,38.633
552.00,38.707
553.00,38.733
554.00,38.840
555.00,38.868
556.00,38.905
557.00,38.975
558.00,38.935
559.00,39.063
560.00,39.095
561.00,39.123
562.00,39.206
563.00,39.185
564.00,39.235
565.00,39.374
566.00,39.419
567.00,39.388
568.00,39.438
569.00,39.416
570.00,39.349
571.00,39.495
572.00,39.550
573.00,39.552
574.00,39.592
575.00,39.634
576.00,39.681
577.00,39.650
578.00,39.710
579.00,39.637
580.00,39.869
581.00,39.870
582.00,39.964
583.00,40.046
584.00,40.137
585.00,40.159
586.00,40.138
587.00,40.244
588.00,40.256
589.00,40.329
590.00,40.307
591.00,40.297
592.00,40.350
593.00,40.400
594.00,40.417
595.00,40.437
596.00,40.516
597.00,40.516
598.00,40.650
599.00,40.687
600.00,40.698
601.00,40.784
602.00,40.801
603.00,40.875
604.00,40.915
605.00,40.935
606.00,40.915
607.00,41.019
608.00,41.075
609.00,40.874
610.00,40.956
611.00,41.127
612.00,41.164
613.00,41.075
614.00,41.138
615.00,41.206
616.00,41.262
617.00,41.297
618.00,41.381
619.00,41.464
620.00,41.459
621.00,41.511
622.00,41.543
623.00,41.611
624.00,41.612
625.00,41.652
626.00,41.670
627.00,41.735
628.00,41.829
629.00,41.869
630.00,41.860
631.00,41.865
632.00,42.028
633.00,42.002
634.00,42.008
635.00,42.131
636.00,42.194
637.00,42.372
638.00,42.452
639.00,42.512
640.00,42.517
641.00,42.617
642.00,42.665
643.00,42.650
644.00,42.850
645.00,42.789
646.00,42.790
647.00,42.937
648.00,42.984
649.00,43.146
650.00,43.140
651.00,43.199
652.00,43.251
653.00,43.354
654.00,43.449
655.00,43.344
656.00,43.349
657.00,43.712
658.00,43.714
659.00,43.704
660.00,43.775
661.00,43.853
662.00,44.066
663.00,44.083
664.00,44.026
665.00,44.032
666.00,44.187
667.00,44.535
668.00,44.187
669.00,44.354
670.00,44.544
671.00,44.637
672.00,44.700
673.00,44.827
674.00,44.872
675.00,44.965
676.00,44.897
677.00,45.012
678.00,45.300
679.00,45.240
680.00,45.309
681.00,45.349
682.00,45.476
683.00,45.636
684.00,45.703
685.00,45.814
686.00,45.916
687.00,45.797
688.00,45.908
689.00,45.930
690.00,45.801
691.00,45.967
692.00,46.115
693.00,46.407
694.00,46.299
695.00,46.277
696.00,46.377
697.00,46.563
698.00,46.709
699.00,46.732
700.00,46.876
701.00,46.993
702.00,47.054
703.00,47.062
704.00,47.141
705.00,47.152
706.00,47.212
707.00,47.442
708.00,47.240
709.00,47.266
710.00,47.359
711.00,47.495
712.00,47.484
713.00,47.682
714.00,47.522
715.00,47.678
716.00,47.792
717.00,47.751
718.00,47.723
719.00,47.856
720.00,48.053
721.00,52.009
722.00,52.092
723.00,52.060
724.00,52.122
725.00,52.119
726.00,52.127
727.00,52.098
728.00,52.160
729.00,52.125
730.00,52.163
731.00,52.190
732.00,52.188
733.00,52.224
734.00,52.232
735.00,52.191
736.00,52.318
737.00,52.301
738.00,52.315
739.00,52.265
740.00,52.211
741.00,52.417
742.00,52.324
743.00,52.277
744.00,52.394
745.00,52.291
746.00,52.326
747.00,52.296
748.00,52.346
749.00,52.380
750.00,52.318
751.00,52.301
752.00,52.294
753.00,52.291
754.00,52.225
755.00,52.276
756.00,52.310
757.00,52.390
758.00,52.266
759.00,52.319
760.00,52.346
761.00,52.217
762.00,52.321
763.00,52.339
764.00,52.367
765.00,52.310
766.00,52.312
767.00,52.367
768.00,52.314
769.00,52.242
770.00,52.442
771.00,52.293
772.00,52.318
773.00,52.285
774.00,52.327
775.00,52.276
776.00,52.265
777.00,52.380
778.00,52.211
779.00,52.321
780.00,52.364
781.00,52.272
782.00,52.315
783.00,52.274
784.00,52.271
785.00,52.201
786.00,52.205
787.00,52.178
788.00,52.168
789.00,52.172
790.00,52.193
791.00,52.164
792.00,52.085
793.00,52.157
794.00,52.101
795.00,52.032
796.00,52.076
797.00,51.974
798.00,52.010
799.00,51.959
800.00,52.048
801.00,51.924
802.00,51.893
803.00,51.958
804.00,51.862
805.00,51.827
806.00,51.882
807.00,51.856
808.00,51.824
809.00,51.801
810.00,51.818
811.00,51.740
812.00,51.771
813.00,51.754
814.00,51.745
815.00,51.740
816.00,51.688
817.00,51.726
818.00,51.492
819.00,51.637
820.00,51.560
821.00,51.552
822.00,51.538
823.00,51.612
824.00,51.702
825.00,51.505
826.00,51.700
827.00,51.443
828.00,51.494
829.00,51.480
830.00,51.411
831.00,53.750
832.00,53.744
833.00,53.715
834.00,53.706
835.00,53.649
836.00,53.638
837.00,53.612
838.00,53.611
839.00,53.591
840.00,53.527
841.00,53.584
842.00,53.533
843.00,53.540
844.00,53.534
845.00,53.447
846.00,53.465
847.00,53.421
848.00,53.386
849.00,53.353
850.00,53.320
851.00,53.268
852.00,53.260
853.00,53.241
854.00,53.197
855.00,53.180
856.00,53.162
857.00,53.061
858.00,53.082
859.00,53.062
860.00,53.097
861.00,53.067
862.00,53.028
863.00,53.015
864.00,52.954
865.00,52.985
866.00,53.006
867.00,52.958
868.00,52.980
869.00,52.968
870.00,52.915
871.00,52.935
872.00,52.896
873.00,52.905
874.00,52.871
875.00,52.842
876.00,52.836
877.00,52.822
878.00,52.785
879.00,52.800
880.00,52.760
881.00,52.781
882.00,52.772
883.00,52.760
884.00,52.711
885.00,52.722
886.00,52.702
887.00,52.683
888.00,52.622
889.00,52.606
890.00,52.612
891.00,52.568
892.00,52.552
893.00,52.530
894.00,52.523
895.00,52.491
896.00,52.465
897.00,52.455
898.00,52.415
899.00,52.452
900.00,52.396
901.00,52.381
902.00,52.401
903.00,52.340
904.00,52.322
905.00,52.315
906.00,52.293
907.00,52.280
908.00,52.255
909.00,52.269
910.00,52.225
911.00,52.189
912.00,52.204
913.00,52.178
914.00,52.159
915.00,52.114
916.00,52.121
917.00,52.090
918.00,52.064
919.00,52.017
920.00,52.017
921.00,52.010
922.00,51.988
923.00,51.971
924.00,51.963
925.00,51.927
926.00,51.945
927.00,51.877
928.00,51.884
929.00,51.878
930.00,51.819
931.00,51.828
932.00,51.802
933.00,51.793
934.00,51.784
935.00,51.749
936.00,51.705
937.00,51.742
938.00,51.731
939.00,51.705
940.00,51.652
941.00,51.629
942.00,51.616
943.00,51.624
944.00,51.577
945.00,51.565
946.00,51.557
947.00,51.513
948.00,51.493
949.00,51.489
950.00,51.485
951.00,51.455
952.00,51.412
953.00,51.394
954.00,51.355
955.00,51.323
956.00,51.305
957.00,51.294
958.00,51.283
959.00,51.222
960.00,51.233
961.00,51.226
962.00,51.231
963.00,51.155
964.00,51.192
965.00,51.250
966.00,51.151
967.00,51.122
968.00,51.125
969.00,51.141
970.00,51.110
971.00,51.146
972.00,51.094
973.00,51.140
974.00,51.138
975.00,51.126
976.00,51.128
977.00,51.126
978.00,51.160
979.00,51.118
980.00,51.159
981.00,51.125
982.00,51.101
983.00,51.104
984.00,51.095
985.00,51.095
986.00,51.074
987.00,51.111
988.00,51.062
989.00,51.050
990.00,51.041
991.00,51.021
992.00,51.020
993.00,50.980
994.00,51.004
995.00,50.979
996.00,50.938
997.00,50.944
998.00,50.991
999.00,50.961
1000.00,50.901
1001.00,50.926
1002.00,50.890
1003.00,50.896
1004.00,50.875
1005.00,50.865
1006.00,50.883
1007.00,50.837
1008.00,50.848
1009.00,50.819
1010.00,50.821
1011.00,50.791
1012.00,50.770
1013.00,50.754
1014.00,50.727
1015.00,50.752
1016.00,50.704
1017.00,50.715
1018.00,50.690
1019.00,50.686
1020.00,50.656
1021.00,50.638
1022.00,50.633
1023.00,50.651
1024.00,50.594
1025.00,50.572
1026.00,50.569
1027.00,50.537
1028.00,50.561
1029.00,50.517
1030.00,50.492
1031.00,50.491
1032.00,50.464
1033.00,50.476
1034.00,50.435
1035.00,50.415
1036.00,50.377
1037.00,50.370
1038.00,50.355
1039.00,50.336
1040.00,50.314
1041.00,50.285
1042.00,50.311
1043.00,50.270
1044.00,50.303
1045.00,50.277
1046.00,50.285
1047.00,50.283
1048.00,50.308
1049.00,50.313
1050.00,50.323
1051.00,50.331
1052.00,50.347
1053.00,50.365
1054.00,50.360
1055.00,50.375
1056.00,50.378
1057.00,50.364
1058.00,50.366
1059.00,50.398
1060.00,50.384
1061.00,50.377
1062.00,50.348
1063.00,50.369
1064.00,50.353
1065.00,50.337
1066.00,50.321
1067.00,50.334
1068.00,50.340
1069.00,50.308
1070.00,50.295
1071.00,50.275
1072.00,50.298
1073.00,50.265
1074.00,50.260
1075.00,50.249
1076.00,50.252
1077.00,50.226
1078.00,50.220
1079.00,50.215
1080.00,50.224
1081.00,50.196
1082.00,50.205
1083.00,50.190
1084.00,50.185
1085.00,50.179
1086.00,50.169
1087.00,50.164
1088.00,50.146
1089.00,50.128
1090.00,50.132
1091.00,50.135
1092.00,50.126
1093.00,50.103
1094.00,50.098
1095.00,50.069
1096.00,50.068
1097.00,50.058
1098.00,50.048
1099.00,50.040
1100.00,50.044
1101.00,50.033
1102.00,50.022
1103.00,50.032
1104.00,50.047
1105.00,50.012
1106.00,49.994
1107.00,49.985
1108.00,49.986
1109.00,49.978
1110.00,49.968
1111.00,49.957
1112.00,49.945
1113.00,49.932
1114.00,49.933
1115.00,49.950
1116.00,49.943
1117.00,49.897
1118.00,49.921
1119.00,49.926
1120.00,49.899
1121.00,49.890
1122.00,49.908
1123.00,49.891
1124.00,49.879
1125.00,49.865
1126.00,49.865
1127.00,49.851
1128.00,49.833
1129.00,49.846
1130.00,49.833
1131.00,49.848
1132.00,49.810
1133.00,49.813
1134.00,49.842
1135.00,49.808
1136.00,49.813
1137.00,49.802
1138.00,49.814
1139.00,49.793
1140.00,49.795
1141.00,49.789
1142.00,49.772
1143.00,49.796
1144.00,49.783
1145.00,49.778
1146.00,49.779
1147.00,49.770
1148.00,49.759
1149.00,49.770
1150.00,49.770
1151.00,49.784
1152.00,49.773
1153.00,49.760
1154.00,49.739
1155.00,49.748
1156.00,49.739
1157.00,49.742
1158.00,49.734
1159.00,49.750
1160.00,49.725
1161.00,49.740
1162.00,49.731
1163.00,49.738
1164.00,49.740
1165.00,49.744
1166.00,49.731
1167.00,49.718
1168.00,49.723
1169.00,49.717
1170.00,49.750
1171.00,49.735
1172.00,49.712
1173.00,49.725
1174.00,49.734
1175.00,49.720
1176.00,49.727
1177.00,49.725
1178.00,49.729
1179.00,49.713
1180.00,49.742
1181.00,49.768
1182.00,49.723
1183.00,49.718
1184.00,49.704
1185.00,49.724
1186.00,49.700
1187.00,49.714
1188.00,49.698
1189.00,49.700
1190.00,49.691
1191.00,49.704
1192.00,49.723
1193.00,49.700
1194.00,49.712
1195.00,49.704
1196.00,49.723
1197.00,49.724
1198.00,49.718
1199.00,49.702
1200.00,49.713
1201.00,49.718
1202.00,49.714
1203.00,49.738
1204.00,49.730
1205.00,49.735
1206.00,49.725
1207.00,49.731
1208.00,49.704
1209.00,49.714
1210.00,49.733
1211.00,49.732
1212.00,49.725
1213.00,49.691
1214.00,49.728
1215.00,49.697
1216.00,49.704
1217.00,49.724
1218.00,49.717
1219.00,49.706
1220.00,49.696
1221.00,49.723
1222.00,49.708
1223.00,49.745
1224.00,49.744
1225.00,49.748
1226.00,49.717
1227.00,49.733
1228.00,49.769
1229.00,49.738
1230.00,49.766
1231.00,49.753
1232.00,49.783
1233.00,49.768
1234.00,49.791
1235.00,49.796
1236.00,49.807
1237.00,49.792
1238.00,49.796
1239.00,49.793
1240.00,49.786
1241.00,49.811
1242.00,49.800
1243.00,49.825
1244.00,49.793
1245.00,49.822
1246.00,49.833
1247.00,49.831
1248.00,49.825
1249.00,49.831
1250.00,49.835
1251.00,49.821
1252.00,49.827
1253.00,49.823
1254.00,49.845
1255.00,49.850
1256.00,49.844
1257.00,49.837
1258.00,49.881
1259.00,49.867
1260.00,49.889
1261.00,49.891
1262.00,49.899
1263.00,49.883
1264.00,49.895
1265.00,49.914
1266.00,49.897
1267.00,49.912
1268.00,49.922
1269.00,49.925
1270.00,49.954
1271.00,49.934
1272.00,49.955
1273.00,49.956
1274.00,49.956
1275.00,49.953
1276.00,49.966
1277.00,49.971
1278.00,49.986
1279.00,49.999
1280.00,49.989
1281.00,50.003
1282.00,50.009
1283.00,50.001
1284.00,50.008
1285.00,50.001
1286.00,50.012
1287.00,50.001
1288.00,50.038
1289.00,50.043
1290.00,50.062
1291.00,50.061
1292.00,50.046
1293.00,50.055
1294.00,50.070
1295.00,50.094
1296.00,50.084
1297.00,50.091
1298.00,50.112
1299.00,50.090
1300.00,50.104
1301.00,50.101
1302.00,50.137
1303.00,50.130
1304.00,50.118
1305.00,50.145
1306.00,50.130
1307.00,50.142
1308.00,50.155
1309.00,50.179
1310.00,50.168
1311.00,50.154
1312.00,50.168
1313.00,50.177
1314.00,50.211
1315.00,50.201
1316.00,50.223
1317.00,50.228
1318.00,50.227
1319.00,50.232
1320.00,50.233
1321.00,50.413
1322.00,50.411
1323.00,50.413
1324.00,50.412
1325.00,50.379
1326.00,50.402
1327.00,50.398
1328.00,50.394
1329.00,50.361
1330.00,50.395
1331.00,50.405
1332.00,50.417
1333.00,50.409
1334.00,50.461
1335.00,50.476
1336.00,50.497
1337.00,50.528
1338.00,50.595
1339.00,50.627
1340.00,50.695
1341.00,50.761
1342.00,50.822
1343.00,50.857
1344.00,50.916
1345.00,50.958
1346.00,50.986
1347.00,51.017
1348.00,51.040
1349.00,51.061
1350.00,51.059
1351.00,51.111
1352.00,51.092
1353.00,51.101
1354.00,51.110
1355.00,51.074
1356.00,51.175
1357.00,51.144
1358.00,51.126
1359.00,51.118
1360.00,51.141
1361.00,51.214
1362.00,51.044
1363.00,51.247
1364.00,51.305
1365.00,51.207
1366.00,51.289
1367.00,51.201
1368.00,51.149
1369.00,51.209
1370.00,51.173
1371.00,51.186
1372.00,51.170
1373.00,51.169
1374.00,51.204
1375.00,51.186
1376.00,51.179
1377.00,51.136
1378.00,51.172
1379.00,51.187
1380.00,51.219
1381.00,51.223
1382.00,51.224
1383.00,51.229
1384.00,51.177
1385.00,51.137
1386.00,51.186
1387.00,51.156
1388.00,51.169
1389.00,51.110
1390.00,51.153
1391.00,51.133
1392.00,51.175
1393.00,51.175
1394.00,51.236
1395.00,51.115
1396.00,51.135
1397.00,51.146
1398.00,51.214
1399.00,51.167
1400.00,51.201
1401.00,51.122
1402.00,51.592
1403.00,51.224
1404.00,51.188
1405.00,51.235
1406.00,51.223
1407.00,51.228
1408.00,51.262
1409.00,51.249
1410.00,51.271
1411.00,51.236
1412.00,51.311
1413.00,51.259
1414.00,51.297
1415.00,51.304
1416.00,51.324
1417.00,51.367
1418.00,51.350
1419.00,51.361
1420.00,51.383
1421.00,51.373
1422.00,51.451
1423.00,51.416
1424.00,51.444
1425.00,51.466
1426.00,51.460
1427.00,51.498
1428.00,51.483
1429.00,51.520
1430.00,51.517
1431.00,51.540
1432.00,51.548
1433.00,51.584
1434.00,51.560
1435.00,51.605
1436.00,51.615
1437.00,51.631
1438.00,51.639
1439.00,51.675
1440.00,51.680
1441.00,51.701
1442.00,51.717
1443.00,51.740
1444.00,51.779
1445.00,51.755
1446.00,51.787
1447.00,51.823
1448.00,51.849
1449.00,51.850
1450.00,51.870
1451.00,51.887
1452.00,51.904
1453.00,51.914
1454.00,51.934
1455.00,51.974
1456.00,51.972
1457.00,51.994
1458.00,51.989
1459.00,52.016
1460.00,52.037
1461.00,52.040
1462.00,52.071
1463.00,52.087
1464.00,52.109
1465.00,52.121
1466.00,52.137
1467.00,52.165
1468.00,52.195
1469.00,52.175
1470.00,52.201
1471.00,52.223
1472.00,52.206
1473.00,52.226
1474.00,52.257
1475.00,52.272
1476.00,52.298
1477.00,52.296
1478.00,52.314
1479.00,52.331
1480.00,52.332
1481.00,52.360
1482.00,52.374
1483.00,52.394
1484.00,52.412
1485.00,52.432
1486.00,52.443
1487.00,52.472
1488.00,52.480
1489.00,52.488
1490.00,52.506
1491.00,52.511
1492.00,52.515
1493.00,52.519
1494.00,52.534
1495.00,52.542
1496.00,52.558
1497.00,52.554
1498.00,52.551
1499.00,52.596
1500.00,52.613
1501.00, 
1502.00, 
1503.00, 
1504.00, 
1505.00, 
1506.00, 
1507.00, 
1508.00, 
1509.00, 
1510.00, 
1511.00, 
1512.00, 
1513.00, 
1514.00, 
1515.00, 
1516.00, 
1517.00, 
1518.00, 
1519.00, 
1520.00, 
1521.00, 
1522.00, 
1523.00, 
1524.00, 
1525.00, 
1526.00, 
1527.00, 
1528.00, 
1529.00, 
1530.00, 
1531.00, 
1532.00, 
1533.00, 
1534.00, 
1535.00, 
1536.00, 
1537.00, 
1538.00, 
1539.00, 
1540.00, 
1541.00, 
1542.00, 
1543.00, 
1544.00, 
1545.00, 
1546.00, 
1547.00, 
1548.00, 
1549.00, 
1550.00, 
1551.00, 
1552.00, 
1553.00, 
1554.00, 
1555.00, 
1556.00, 
1557.00, 
1558.00, 
1559.00, 
1560.00, 
1561.00, 
1562.00, 
1563.00, 
1564.00, 
1565.00, 
1566.00, 
1567.00, 
1568.00, 
1569.00, 
1570.00, 
1571.00, 
1572.00, 
1573.00, 
1574.00, 
1575.00, 
1576.00, 
1577.00, 
1578.00, 
1579.00, 
1580.00, 
1581.00, 
1582.00, 
1583.00, 
1584.00, 
1585.00, 
1586.00, 
1587.00, 
1588.00, 
1589.00, 
1590.00, 
1591.00, 
1592.00, 
1593.00, 
1594.00, 
1595.00, 
1596.00, 
1597.00, 
1598.00, 
1599.00, 
1600.00, 
1601.00, 
1602.00, 
1603.00, 
1604.00, 
1605.00, 
1606.00, 
1607.00, 
1608.00, 
1609.00, 
1610.00, 
1611.00, 
1612.00, 
1613.00, 
1614.00, 
1615.00, 
1616.00, 
1617.00, 
1618.00, 
1619.00, 
1620.00, 
1621.00, 
1622.00, 
1623.00, 
1624.00, 
1625.00, 
1626.00, 
1627.00, 
1628.00, 
1629.00, 
1630.00, 
1631.00, 
1632.00, 
1633.00, 
1634.00, 
1635.00, 
1636.00, 
1637.00, 
1638.00, 
1639.00, 
1640.00, 
1641.00, 
1642.00, 
1643.00, 
1644.00, 
1645.00, 
1646.00, 
1647.00, 
1648.00, 
1649.00, 
1650.00, 
1651.00, 
1652.00, 
1653.00, 
1654.00, 
1655.00, 
1656.00, 
1657.00, 
1658.00, 
1659.00, 
1660.00, 
1661.00, 
1662.00, 
1663.00, 
1664.00, 
1665.00, 
1666.00, 
1667.00, 
1668.00, 
1669.00, 
1670.00, 
1671.00, 
1672.00, 
1673.00, 
1674.00, 
1675.00, 
1676.00, 
1677.00, 
1678.00, 
1679.00, 
1680.00, 
1681.00, 
1682.00, 
1683.00, 
1684.00, 
1685.00, 
1686.00, 
1687.00, 
1688.00, 
1689.00, 
1690.00, 
1691.00, 
1692.00, 
1693.00, 
1694.00, 
1695.00, 
1696.00, 
1697.00, 
1698.00, 
1699.00, 
1700.00, 
1701.00, 
1702.00, 
1703.00, 
1704.00, 
1705.00, 
1706.00, 
1707.00, 
1708.00, 
1709.00, 
1710.00, 
1711.00, 
1712.00, 
1713.00, 
1714.00, 
1715.00, 
1716.00, 
1717.00, 
1718.00, 
1719.00, 
1720.00, 
1721.00, 
1722.00, 
1723.00, 
1724.00, 
1725.00, 
1726.00, 
1727.00, 
1728.00, 
1729.00, 
1730.00, 
1731.00, 
1732.00, 
1733.00, 
1734.00, 
1735.00, 
1736.00, 
1737.00, 
1738.00, 
1739.00, 
1740.00, 
1741.00, 
1742.00, 
1743.00, 
1744.00, 
1745.00, 
1746.00, 
1747.00, 
1748.00, 
1749.00, 
1750.00, 
1751.00, 
1752.00, 
1753.00, 
1754.00, 
1755.00, 
1756.00, 
1757.00, 
1758.00, 
1759.00, 
1760.00, 
1761.00, 
1762.00, 
1763.00, 
1764.00, 
1765.00, 
1766.00, 
1767.00, 
1768.00, 
1769.00, 
1770.00, 
1771.00, 
1772.00, 
1773.00, 
1774.00, 
1775.00, 
1776.00, 
1777.00, 
1778.00, 
1779.00, 
1780.00, 
1781.00, 
1782.00, 
1783.00, 
1784.00, 
1785.00, 
1786.00, 
1787.00, 
1788.00, 
1789.00, 
1790.00, 
1791.00, 
1792.00, 
1793.00, 
1794.00, 
1795.00, 
1796.00, 
1797.00, 
1798.00, 
1799.00, 
1800.00, 
1801.00, 
1802.00, 
1803.00, 
1804.00, 
1805.00, 
1806.00, 
1807.00, 
1808.00, 
1809.00, 
1810.00, 
1811.00, 
1812.00, 
1813.00, 
1814.00, 
1815.00, 
1816.00, 
1817.00, 
1818.00, 
1819.00, 
1820.00, 
1821.00, 
1822.00, 
1823.00, 
1824.00, 
1825.00, 
1826.00, 
1827.00, 
1828.00, 
1829.00, 
1830.00, 
1831.00, 
1832.00, 
1833.00, 
1834.00, 
1835.00, 
1836.00, 
1837.00, 
1838.00, 
1839.00, 
1840.00, 
1841.00, 
1842.00, 
1843.00, 
1844.00, 
1845.00, 
1846.00, 
1847.00, 
1848.00, 
1849.00, 
1850.00, 
1851.00, 
1852.00, 
1853.00, 
1854.00, 
1855.00, 
1856.00, 
1857.00, 
1858.00, 
1859.00, 
1860.00, 
1861.00, 
1862.00, 
1863.00, 
1864.00, 
1865.00, 
1866.00, 
1867.00, 
1868.00, 
1869.00, 
1870.00, 
1871.00, 
1872.00, 
1873.00, 
1874.00, 
1875.00, 
1876.00, 
1877.00, 
1878.00, 
1879.00, 
1880.00, 
1881.00, 
1882.00, 
1883.00, 
1884.00, 
1885.00, 
1886.00, 
1887.00, 
1888.00, 
1889.00, 
1890.00, 
1891.00, 
1892.00, 
1893.00, 
1894.00, 
1895.00, 
1896.00, 
1897.00, 
1898.00, 
1899.00, 
1900.00, 
1901.00, 
1902.00, 
1903.00, 
1904.00, 
1905.00, 
1906.00, 
1907.00, 
1908.00, 
1909.00, 
1910.00, 
1911.00, 
1912.00, 
1913.00, 
1914.00, 
1915.00, 
1916.00, 
1917.00, 
1918.00, 
1919.00, 
1920.00, 
1921.00, 
1922.00, 
1923.00, 
1924.00, 
1925.00, 
1926.00, 
1927.00, 
1928.00, 
1929.00, 
1930.00, 
1931.00, 
1932.00, 
1933.00, 
1934.00, 
1935.00, 
1936.00, 
1937.00, 
1938.00, 
1939.00, 
1940.00, 
1941.00, 
1942.00, 
1943.00, 
1944.00, 
1945.00, 
1946.00, 
1947.00, 
1948.00, 
1949.00, 
1950.00, 
1951.00, 
1952.00, 
1953.00, 
1954.00, 
1955.00, 
1956.00, 
1957.00, 
1958.00, 
1959.00, 
1960.00, 
1961.00, 
1962.00, 
1963.00, 
1964.00, 
1965.00, 
1966.00, 
1967.00, 
1968.00, 
1969.00, 
1970.00, 
1971.00, 
1972.00, 
1973.00, 
1974.00, 
1975.00, 
1976.00, 
1977.00, 
1978.00, 
1979.00, 
1980.00, 
1981.00, 
1982.00, 
1983.00, 
1984.00, 
1985.00, 
1986.00, 
1987.00, 
1988.00, 
1989.00, 
1990.00, 
1991.00, 
1992.00, 
1993.00, 
1994.00, 
1995.00, 
1996.00, 
1997.00, 
1998.00, 
1999.00, 
2000.00, 
2001.00, 
2002.00, 
2003.00, 
2004.00, 
2005.00, 
2006.00, 
2007.00, 
2008.00, 
2009.00, 
2010.00, 
2011.00, 
2012.00, 
2013.00, 
2014.00, 
2015.00, 
2016.00, 
2017.00, 
2018.00, 
2019.00, 
2020.00, 
2021.00, 
2022.00, 
2023.00, 
2024.00, 
2025.00, 
2026.00, 
2027.00, 
2028.00, 
2029.00, 
2030.00, 
2031.00, 
2032.00, 
2033.00, 
2034.00, 
2035.00, 
2036.00, 
2037.00, 
2038.00, 
2039.00, 
2040.00, 
2041.00, 
2042.00, 
2043.00, 
2044.00, 
2045.00, 
2046.00, 
2047.00, 
2048.00, 
2049.00, 
2050.00, 
2051.00, 
2052.00, 
2053.00, 
2054.00, 
2055.00, 
2056.00, 
2057.00, 
2058.00, 
2059.00, 
2060.00, 
2061.00, 
2062.00, 
2063.00, 
2064.00, 
2065.00, 
2066.00, 
2067.00, 
2068.00, 
2069.00, 
2070.00, 
2071.00, 
2072.00, 
2073.00, 
2074.00, 
2075.00, 
2076.00, 
2077.00, 
2078.00, 
2079.00, 
2080.00, 
2081.00, 
2082.00, 
2083.00, 
2084.00, 
2085.00, 
2086.00, 
2087.00, 
2088.00, 
2089.00, 
2090.00, 
2091.00, 
2092.00, 
2093.00, 
2094.00, 
2095.00, 
2096.00, 
2097.00, 
2098.00, 
2099.00, 
2100.00, 
2101.00, 
2102.00, 
2103.00, 
2104.00, 
2105.00, 
2106.00, 
2107.00, 
2108.00, 
2109.00, 
2110.00, 
2111.00, 
2112.00, 
2113.00, 
2114.00, 
2115.00, 
2116.00, 
2117.00, 
2118.00, 
2119.00, 
2120.00, 
2121.00, 
2122.00, 
2123.00, 
2124.00, 
2125.00, 
2126.00, 
2127.00, 
2128.00, 
2129.00, 
2130.00, 
2131.00, 
2132.00, 
2133.00, 
2134.00, 
2135.00, 
2136.00, 
2137.00, 
2138.00, 
2139.00, 
2140.00, 
2141.00, 
2142.00, 
2143.00, 
2144.00, 
2145.00, 
2146.00, 
2147.00, 
2148.00, 
2149.00, 
2150.00, 
2151.00, 
2152.00, 
2153.00, 
2154.00, 
2155.00, 
2156.00, 
2157.00, 
2158.00, 
2159.00, 
2160.00, 
2161.00, 
2162.00, 
2163.00, 
2164.00, 
2165.00, 
2166.00, 
2167.00, 
2168.00, 
2169.00, 
2170.00, 
2171.00, 
2172.00, 
2173.00, 
2174.00, 
2175.00, 
2176.00, 
2177.00, 
2178.00, 
2179.00, 
2180.00, 
2181.00, 
2182.00, 
2183.00, 
2184.00, 
2185.00, 
2186.00, 
2187.00, 
2188.00, 
2189.00, 
2190.00, 
2191.00, 
2192.00, 
2193.00, 
2194.00, 
2195.00, 
2196.00, 
2197.00, 
2198.00, 
2199.00, 
2200.00, 
2201.00, 
2202.00, 
2203.00, 
2204.00, 
2205.00, 
2206.00, 
2207.00, 
2208.00, 
2209.00, 
2210.00, 
2211.00, 
2212.00, 
2213.00, 
2214.00, 
2215.00, 
2216.00, 
2217.00, 
2218.00, 
2219.00, 
2220.00, 
2221.00, 
2222.00, 
2223.00, 
2224.00, 
2225.00, 
2226.00, 
2227.00, 
2228.00, 
2229.00, 
2230.00, 
2231.00, 
2232.00, 
2233.00, 
2234.00, 
2235.00, 
2236.00, 
2237.00, 
2238.00, 
2239.00, 
2240.00, 
2241.00, 
2242.00, 
2243.00, 
2244.00, 
2245.00, 
2246.00, 
2247.00, 
2248.00, 
2249.00, 
2250.00, 
2251.00, 
2252.00, 
2253.00, 
2254.00, 
2255.00, 
2256.00, 
2257.00, 
2258.00, 
2259.00, 
2260.00, 
2261.00, 
2262.00, 
2263.00, 
2264.00, 
2265.00, 
2266.00, 
2267.00, 
2268.00, 
2269.00, 
2270.00, 
2271.00, 
2272.00, 
2273.00, 
2274.00, 
2275.00, 
2276.00, 
2277.00, 
2278.00, 
2279.00, 
2280.00, 
2281.00, 
2282.00, 
2283.00, 
2284.00, 
2285.00, 
2286.00, 
2287.00, 
2288.00, 
2289.00, 
2290.00, 
2291.00, 
2292.00, 
2293.00, 
2294.00, 
2295.00, 
2296.00, 
2297.00, 
2298.00, 
2299.00, 
2300.00, 
2301.00, 
2302.00, 
2303.00, 
2304.00, 
2305.00, 
2306.00, 
2307.00, 
2308.00, 
2309.00, 
2310.00, 
2311.00, 
2312.00, 
2313.00, 
2314.00, 
2315.00, 
2316.00, 
2317.00, 
2318.00, 
2319.00, 
2320.00, 
2321.00, 
2322.00, 
2323.00, 
2324.00, 
2325.00, 
2326.00, 
2327.00, 
2328.00, 
2329.00, 
2330.00, 
2331.00, 
2332.00, 
2333.00, 
2334.00, 
2335.00, 
2336.00, 
2337.00, 
2338.00, 
2339.00, 
2340.00, 
2341.00, 
2342.00, 
2343.00, 
2344.00, 
2345.00, 
2346.00, 
2347.00, 
2348.00, 
2349.00, 
2350.00, 
2351.00, 
2352.00, 
2353.00, 
2354.00, 
2355.00, 
2356.00, 
2357.00, 
2358.00, 
2359.00, 
2360.00, 
2361.00, 
2362.00, 
2363.00, 
2364.00, 
2365.00, 
2366.00, 
2367.00, 
2368.00, 
2369.00, 
2370.00, 
2371.00, 
2372.00, 
2373.00, 
2374.00, 
2375.00, 
2376.00, 
2377.00, 
2378.00, 
2379.00, 
2380.00, 
2381.00, 
2382.00, 
2383.00, 
2384.00, 
2385.00, 
2386.00, 
2387.00, 
2388.00, 
2389.00, 
2390.00, 
2391.00, 
2392.00, 
2393.00, 
2394.00, 
2395.00, 
2396.00, 
2397.00, 
2398.00, 
2399.00, 
2400.00, 
2401.00, 
2402.00, 
2403.00, 
2404.00, 
2405.00, 
2406.00, 
2407.00, 
2408.00, 
2409.00, 
2410.00, 
2411.00, 
2412.00, 
2413.00, 
2414.00, 
2415.00, 
2416.00, 
2417.00, 
2418.00, 
2419.00, 
2420.00, 
2421.00, 
2422.00, 
2423.00, 
2424.00, 
2425.00, 
2426.00, 
2427.00, 
2428.00, 
2429.00, 
2430.00, 
2431.00, 
2432.00, 
2433.00, 
2434.00, 
2435.00, 
2436.00, 
2437.00, 
2438.00, 
2439.00, 
2440.00, 
2441.00, 
2442.00, 
2443.00, 
2444.00, 
2445.00, 
2446.00, 
2447.00, 
2448.00, 
2449.00, 
2450.00, 
2451.00, 
2452.00, 
2453.00, 
2454.00, 
2455.00, 
2456.00, 
2457.00, 
2458.00, 
2459.00, 
2460.00, 
2461.00, 
2462.00, 
2463.00, 
2464.00, 
2465.00, 
2466.00, 
2467.00, 
2468.00, 
2469.00, 
2470.00, 
2471.00, 
2472.00, 
2473.00, 
2474.00, 
2475.00, 
2476.00, 
2477.00, 
2478.00, 
2479.00, 
2480.00, 
2481.00, 
2482.00, 
2483.00, 
2484.00, 
2485.00, 
2486.00, 
2487.00, 
2488.00, 
2489.00, 
2490.00, 
2491.00, 
2492.00, 
2493.00, 
2494.00, 
2495.00, 
2496.00, 
2497.00, 
2498.00, 
2499.00, 
2500.00, 
2501.00, 
2502.00, 
2503.00, 
2504.00, 
2505.00, 
2506.00, 
2507.00, 
2508.00, 
2509.00, 
2510.00, 
2511.00, 
2512.00, 
2513.00, 
2514.00, 
2515.00, 
2516.00, 
2517.00, 
2518.00, 
2519.00, 
2520.00, 
2521.00, 
2522.00, 
2523.00, 
2524.00, 
2525.00, 
2526.00, 
2527.00, 
2528.00, 
2529.00, 
2530.00, 
2531.00, 
2532.00, 
2533.00, 
2534.00, 
2535.00, 
2536.00, 
2537.00, 
2538.00, 
2539.00, 
2540.00, 
2541.00, 
2542.00, 
2543.00, 
2544.00, 
2545.00, 
2546.00, 
2547.00, 
2548.00, 
2549.00, 
2550.00, 
2551.00, 
2552.00, 
2553.00, 
2554.00, 
2555.00, 
2556.00, 
2557.00, 
2558.00, 
2559.00, 
2560.00, 
2561.00, 
2562.00, 
2563.00, 
2564.00, 
2565.00, 
2566.00, 
2567.00, 
2568.00, 
2569.00, 
2570.00, 
2571.00, 
2572.00, 
2573.00, 
2574.00, 
2575.00, 
2576.00, 
2577.00, 
2578.00, 
2579.00, 
2580.00, 
2581.00, 
2582.00, 
2583.00, 
2584.00, 
2585.00, 
2586.00, 
2587.00, 
2588.00, 
2589.00, 
2590.00, 
2591.00, 
2592.00, 
2593.00, 
2594.00, 
2595.00, 
2596.00, 
2597.00, 
2598.00, 
2599.00, 
2600.00, 
