"2aP2 - RawData"
"Wavelength nm.","T%"
200.00,0.002
201.00,0.001
202.00,0.002
203.00,0.002
204.00,0.004
205.00,0.002
206.00,0.001
207.00,0.000
208.00,0.002
209.00,0.002
210.00,-0.001
211.00,0.003
212.00,0.001
213.00,0.002
214.00,0.001
215.00,0.002
216.00,0.001
217.00,-0.001
218.00,-0.003
219.00,-0.000
220.00,0.003
221.00,0.005
222.00,0.001
223.00,-0.001
224.00,0.001
225.00,0.002
226.00,0.004
227.00,0.002
228.00,0.002
229.00,0.002
230.00,0.000
231.00,0.003
232.00,0.003
233.00,0.003
234.00,-0.000
235.00,0.002
236.00,0.002
237.00,0.001
238.00,0.002
239.00,0.003
240.00,0.002
241.00,0.003
242.00,0.003
243.00,0.000
244.00,0.002
245.00,0.003
246.00,0.002
247.00,0.000
248.00,0.000
249.00,0.001
250.00,0.002
251.00,-0.001
252.00,0.001
253.00,0.001
254.00,0.001
255.00,0.001
256.00,0.004
257.00,0.001
258.00,0.001
259.00,0.002
260.00,-0.001
261.00,0.002
262.00,0.002
263.00,-0.001
264.00,0.000
265.00,0.002
266.00,-0.001
267.00,0.002
268.00,0.000
269.00,0.001
270.00,-0.001
271.00,0.001
272.00,0.000
273.00,0.001
274.00,0.001
275.00,0.001
276.00,0.003
277.00,0.000
278.00,-0.001
279.00,0.000
280.00,-0.000
281.00,-0.000
282.00,0.000
283.00,0.000
284.00,-0.000
285.00,0.001
286.00,0.003
287.00,-0.000
288.00,0.002
289.00,0.001
290.00,0.001
291.00,-0.001
292.00,0.002
293.00,0.001
294.00,0.001
295.00,0.001
296.00,0.001
297.00,0.001
298.00,0.001
299.00,0.001
300.00,0.002
301.00,0.003
302.00,0.005
303.00,0.008
304.00,0.012
305.00,0.021
306.00,0.030
307.00,0.046
308.00,0.074
309.00,0.106
310.00,0.147
311.00,0.197
312.00,0.277
313.00,0.375
314.00,0.487
315.00,0.631
316.00,0.807
317.00,1.029
318.00,1.265
319.00,1.561
320.00,1.884
321.00,2.266
322.00,2.667
323.00,3.140
324.00,3.629
325.00,4.142
326.00,4.669
327.00,5.278
328.00,5.885
329.00,6.477
330.00,7.192
331.00,7.849
332.00,8.510
333.00,9.250
334.00,9.909
335.00,10.611
336.00,11.305
337.00,11.993
338.00,12.655
339.00,13.318
340.00,13.953
341.00,14.572
342.00,15.147
343.00,15.760
344.00,16.305
345.00,16.784
346.00,17.335
347.00,17.789
348.00,18.263
349.00,18.650
350.00,19.079
351.00,19.448
352.00,19.751
353.00,20.123
354.00,20.397
355.00,20.697
356.00,20.896
357.00,21.150
358.00,21.424
359.00,21.655
360.00,21.864
361.00,22.083
362.00,22.246
363.00,22.383
364.00,22.543
365.00,22.628
366.00,22.757
367.00,22.797
368.00,22.906
369.00,22.911
370.00,22.986
371.00,23.037
372.00,23.060
373.00,23.063
374.00,23.038
375.00,23.074
376.00,23.024
377.00,22.989
378.00,22.942
379.00,22.872
380.00,22.884
381.00,22.819
382.00,22.888
383.00,22.873
384.00,22.903
385.00,22.941
386.00,22.939
387.00,23.036
388.00,23.076
389.00,23.111
390.00,23.147
391.00,23.210
392.00,23.240
393.00,23.272
394.00,23.263
395.00,23.284
396.00,23.260
397.00,23.286
398.00,23.286
399.00,23.290
400.00,23.328
401.00,23.316
402.00,23.314
403.00,23.318
404.00,23.321
405.00,23.300
406.00,23.319
407.00,23.306
408.00,23.276
409.00,23.266
410.00,23.210
411.00,23.251
412.00,23.239
413.00,23.214
414.00,23.209
415.00,23.235
416.00,23.268
417.00,23.257
418.00,23.310
419.00,23.340
420.00,23.332
421.00,23.427
422.00,23.485
423.00,23.544
424.00,23.560
425.00,23.594
426.00,23.669
427.00,23.712
428.00,23.759
429.00,23.814
430.00,23.793
431.00,23.863
432.00,23.913
433.00,24.011
434.00,24.075
435.00,24.138
436.00,24.224
437.00,24.283
438.00,24.333
439.00,24.420
440.00,24.536
441.00,24.585
442.00,24.687
443.00,24.751
444.00,24.860
445.00,24.942
446.00,25.078
447.00,25.178
448.00,25.244
449.00,25.358
450.00,25.448
451.00,25.568
452.00,25.694
453.00,25.763
454.00,25.922
455.00,26.029
456.00,26.114
457.00,26.245
458.00,26.355
459.00,26.515
460.00,26.621
461.00,26.740
462.00,26.862
463.00,26.977
464.00,27.178
465.00,27.247
466.00,27.393
467.00,27.524
468.00,27.639
469.00,27.757
470.00,27.895
471.00,28.019
472.00,28.158
473.00,28.223
474.00,28.356
475.00,28.453
476.00,28.560
477.00,28.694
478.00,28.834
479.00,28.958
480.00,29.125
481.00,29.232
482.00,29.431
483.00,29.531
484.00,29.727
485.00,29.929
486.00,30.002
487.00,30.148
488.00,30.322
489.00,30.393
490.00,30.611
491.00,30.691
492.00,30.920
493.00,31.048
494.00,31.106
495.00,31.260
496.00,31.394
497.00,31.514
498.00,31.676
499.00,31.835
500.00,31.903
501.00,32.041
502.00,32.151
503.00,32.308
504.00,32.400
505.00,32.536
506.00,32.681
507.00,32.809
508.00,32.913
509.00,33.075
510.00,33.171
511.00,33.302
512.00,33.469
513.00,33.585
514.00,33.679
515.00,33.834
516.00,33.897
517.00,34.024
518.00,34.138
519.00,34.227
520.00,34.279
521.00,34.344
522.00,34.416
523.00,34.531
524.00,34.664
525.00,34.697
526.00,34.803
527.00,34.873
528.00,34.943
529.00,35.041
530.00,35.101
531.00,35.315
532.00,35.418
533.00,35.543
534.00,35.607
535.00,35.703
536.00,35.776
537.00,35.837
538.00,35.924
539.00,35.959
540.00,36.027
541.00,36.121
542.00,36.153
543.00,36.207
544.00,36.332
545.00,36.375
546.00,36.430
547.00,36.554
548.00,36.572
549.00,36.631
550.00,36.742
551.00,36.838
552.00,36.881
553.00,36.895
554.00,36.974
555.00,37.059
556.00,37.132
557.00,37.191
558.00,37.155
559.00,37.283
560.00,37.316
561.00,37.367
562.00,37.449
563.00,37.485
564.00,37.597
565.00,37.647
566.00,37.592
567.00,37.639
568.00,37.689
569.00,37.688
570.00,37.665
571.00,37.760
572.00,37.782
573.00,37.786
574.00,37.907
575.00,37.912
576.00,37.895
577.00,37.976
578.00,38.058
579.00,38.078
580.00,38.162
581.00,38.222
582.00,38.327
583.00,38.354
584.00,38.467
585.00,38.561
586.00,38.603
587.00,38.605
588.00,38.630
589.00,38.679
590.00,38.754
591.00,38.743
592.00,38.734
593.00,38.830
594.00,38.878
595.00,38.908
596.00,38.974
597.00,39.020
598.00,39.128
599.00,39.124
600.00,39.194
601.00,39.254
602.00,39.251
603.00,39.328
604.00,39.280
605.00,39.305
606.00,39.397
607.00,39.528
608.00,39.583
609.00,39.565
610.00,39.643
611.00,39.648
612.00,39.713
613.00,39.691
614.00,39.790
615.00,39.872
616.00,39.946
617.00,39.907
618.00,40.018
619.00,40.028
620.00,40.088
621.00,40.157
622.00,40.184
623.00,40.262
624.00,40.299
625.00,40.461
626.00,40.472
627.00,40.466
628.00,40.560
629.00,40.663
630.00,40.665
631.00,40.670
632.00,40.836
633.00,40.902
634.00,40.965
635.00,41.073
636.00,41.186
637.00,41.210
638.00,41.292
639.00,41.418
640.00,41.433
641.00,41.533
642.00,41.571
643.00,41.591
644.00,41.742
645.00,41.684
646.00,41.795
647.00,41.970
648.00,41.977
649.00,42.030
650.00,42.093
651.00,42.217
652.00,42.153
653.00,42.272
654.00,42.368
655.00,42.336
656.00,42.561
657.00,42.435
658.00,42.479
659.00,42.906
660.00,42.895
661.00,42.963
662.00,43.134
663.00,43.217
664.00,43.361
665.00,43.448
666.00,43.555
667.00,43.630
668.00,43.591
669.00,43.806
670.00,43.928
671.00,43.956
672.00,43.994
673.00,44.184
674.00,44.275
675.00,44.302
676.00,44.469
677.00,44.594
678.00,44.707
679.00,44.785
680.00,44.956
681.00,44.994
682.00,45.091
683.00,45.137
684.00,45.188
685.00,45.264
686.00,45.409
687.00,45.529
688.00,45.545
689.00,45.641
690.00,45.727
691.00,45.882
692.00,45.870
693.00,45.996
694.00,46.085
695.00,46.159
696.00,46.238
697.00,46.320
698.00,46.500
699.00,46.602
700.00,46.710
701.00,46.745
702.00,46.943
703.00,46.944
704.00,47.056
705.00,47.098
706.00,47.210
707.00,47.300
708.00,47.189
709.00,47.432
710.00,47.653
711.00,47.433
712.00,47.612
713.00,47.745
714.00,47.649
715.00,47.743
716.00,47.876
717.00,47.949
718.00,48.043
719.00,48.009
720.00,48.117
721.00,52.318
722.00,52.307
723.00,52.393
724.00,52.390
725.00,52.410
726.00,52.490
727.00,52.438
728.00,52.583
729.00,52.529
730.00,52.523
731.00,52.563
732.00,52.649
733.00,52.701
734.00,52.705
735.00,52.733
736.00,52.803
737.00,52.762
738.00,52.881
739.00,52.906
740.00,52.880
741.00,52.988
742.00,52.989
743.00,53.003
744.00,52.989
745.00,53.041
746.00,53.057
747.00,53.002
748.00,53.056
749.00,53.064
750.00,53.032
751.00,53.028
752.00,53.059
753.00,53.086
754.00,53.048
755.00,53.104
756.00,53.123
757.00,53.176
758.00,53.086
759.00,53.107
760.00,53.174
761.00,53.139
762.00,53.099
763.00,53.182
764.00,53.238
765.00,53.238
766.00,53.244
767.00,53.295
768.00,53.240
769.00,53.267
770.00,53.394
771.00,53.287
772.00,53.321
773.00,53.349
774.00,53.351
775.00,53.315
776.00,53.306
777.00,53.411
778.00,53.262
779.00,53.419
780.00,53.427
781.00,53.399
782.00,53.365
783.00,53.386
784.00,53.369
785.00,53.293
786.00,53.350
787.00,53.357
788.00,53.387
789.00,53.376
790.00,53.340
791.00,53.414
792.00,53.309
793.00,53.350
794.00,53.271
795.00,53.301
796.00,53.259
797.00,53.168
798.00,53.295
799.00,53.233
800.00,53.269
801.00,53.228
802.00,53.174
803.00,53.190
804.00,53.204
805.00,53.155
806.00,53.145
807.00,53.137
808.00,53.127
809.00,53.085
810.00,53.090
811.00,53.070
812.00,53.065
813.00,53.133
814.00,53.101
815.00,53.088
816.00,53.093
817.00,53.005
818.00,52.907
819.00,52.976
820.00,52.907
821.00,52.969
822.00,52.943
823.00,53.082
824.00,53.029
825.00,52.921
826.00,52.981
827.00,52.906
828.00,52.962
829.00,52.979
830.00,52.840
831.00,55.033
832.00,54.991
833.00,54.984
834.00,54.979
835.00,54.927
836.00,54.960
837.00,54.915
838.00,54.903
839.00,54.878
840.00,54.861
841.00,54.863
842.00,54.825
843.00,54.826
844.00,54.843
845.00,54.823
846.00,54.791
847.00,54.751
848.00,54.708
849.00,54.678
850.00,54.661
851.00,54.609
852.00,54.604
853.00,54.552
854.00,54.562
855.00,54.526
856.00,54.520
857.00,54.405
858.00,54.402
859.00,54.395
860.00,54.460
861.00,54.414
862.00,54.350
863.00,54.371
864.00,54.454
865.00,54.389
866.00,54.361
867.00,54.380
868.00,54.366
869.00,54.335
870.00,54.303
871.00,54.310
872.00,54.277
873.00,54.278
874.00,54.252
875.00,54.213
876.00,54.234
877.00,54.203
878.00,54.200
879.00,54.194
880.00,54.161
881.00,54.163
882.00,54.164
883.00,54.149
884.00,54.105
885.00,54.087
886.00,54.080
887.00,54.053
888.00,54.025
889.00,54.025
890.00,54.053
891.00,53.969
892.00,53.928
893.00,54.098
894.00,53.930
895.00,53.910
896.00,53.898
897.00,53.860
898.00,53.836
899.00,53.871
900.00,53.834
901.00,53.812
902.00,53.836
903.00,53.776
904.00,53.782
905.00,53.735
906.00,53.747
907.00,53.738
908.00,53.679
909.00,53.677
910.00,53.662
911.00,53.614
912.00,53.642
913.00,53.623
914.00,53.594
915.00,53.552
916.00,53.540
917.00,53.524
918.00,53.515
919.00,53.476
920.00,53.473
921.00,53.471
922.00,53.432
923.00,53.403
924.00,53.407
925.00,53.376
926.00,53.366
927.00,53.333
928.00,53.308
929.00,53.292
930.00,53.241
931.00,53.276
932.00,53.233
933.00,53.225
934.00,53.191
935.00,53.227
936.00,53.167
937.00,53.134
938.00,53.135
939.00,53.145
940.00,53.106
941.00,53.096
942.00,53.059
943.00,53.070
944.00,53.025
945.00,53.024
946.00,53.003
947.00,52.962
948.00,52.932
949.00,52.946
950.00,52.939
951.00,52.933
952.00,52.891
953.00,52.853
954.00,52.829
955.00,52.786
956.00,52.762
957.00,52.751
958.00,52.741
959.00,52.687
960.00,52.680
961.00,52.670
962.00,52.694
963.00,52.636
964.00,52.668
965.00,52.751
966.00,52.636
967.00,52.611
968.00,52.606
969.00,52.628
970.00,52.592
971.00,52.623
972.00,52.583
973.00,52.639
974.00,52.626
975.00,52.602
976.00,52.624
977.00,52.599
978.00,52.636
979.00,52.603
980.00,52.629
981.00,52.591
982.00,52.568
983.00,52.572
984.00,52.565
985.00,52.583
986.00,52.532
987.00,52.583
988.00,52.516
989.00,52.497
990.00,52.559
991.00,52.486
992.00,52.509
993.00,52.473
994.00,52.482
995.00,52.469
996.00,52.453
997.00,52.436
998.00,52.423
999.00,52.433
1000.00,52.370
1001.00,52.389
1002.00,52.340
1003.00,52.371
1004.00,52.340
1005.00,52.312
1006.00,52.358
1007.00,52.311
1008.00,52.323
1009.00,52.282
1010.00,52.279
1011.00,52.294
1012.00,52.234
1013.00,52.236
1014.00,52.201
1015.00,52.223
1016.00,52.169
1017.00,52.186
1018.00,52.159
1019.00,52.138
1020.00,52.151
1021.00,52.118
1022.00,52.092
1023.00,52.081
1024.00,52.056
1025.00,52.018
1026.00,52.049
1027.00,51.992
1028.00,52.022
1029.00,51.982
1030.00,51.950
1031.00,51.962
1032.00,51.930
1033.00,51.927
1034.00,51.893
1035.00,51.854
1036.00,51.816
1037.00,51.821
1038.00,51.810
1039.00,51.791
1040.00,51.784
1041.00,51.737
1042.00,51.752
1043.00,51.705
1044.00,51.725
1045.00,51.709
1046.00,51.717
1047.00,51.724
1048.00,51.734
1049.00,51.739
1050.00,51.775
1051.00,51.795
1052.00,51.804
1053.00,51.824
1054.00,51.804
1055.00,51.809
1056.00,51.816
1057.00,51.810
1058.00,51.786
1059.00,51.793
1060.00,51.802
1061.00,51.801
1062.00,51.786
1063.00,51.797
1064.00,51.788
1065.00,51.762
1066.00,51.755
1067.00,51.753
1068.00,51.754
1069.00,51.750
1070.00,51.746
1071.00,51.735
1072.00,51.759
1073.00,51.707
1074.00,51.689
1075.00,51.674
1076.00,51.678
1077.00,51.650
1078.00,51.634
1079.00,51.639
1080.00,51.658
1081.00,51.631
1082.00,51.614
1083.00,51.627
1084.00,51.641
1085.00,51.604
1086.00,51.612
1087.00,51.632
1088.00,51.556
1089.00,51.557
1090.00,51.580
1091.00,51.582
1092.00,51.541
1093.00,51.528
1094.00,51.543
1095.00,51.515
1096.00,51.490
1097.00,51.505
1098.00,51.500
1099.00,51.484
1100.00,51.502
1101.00,51.497
1102.00,51.441
1103.00,51.433
1104.00,51.425
1105.00,51.419
1106.00,51.398
1107.00,51.392
1108.00,51.404
1109.00,51.392
1110.00,51.366
1111.00,51.366
1112.00,51.365
1113.00,51.353
1114.00,51.341
1115.00,51.339
1116.00,51.342
1117.00,51.308
1118.00,51.285
1119.00,51.301
1120.00,51.289
1121.00,51.258
1122.00,51.265
1123.00,51.267
1124.00,51.257
1125.00,51.248
1126.00,51.260
1127.00,51.270
1128.00,51.239
1129.00,51.214
1130.00,51.210
1131.00,51.206
1132.00,51.178
1133.00,51.184
1134.00,51.177
1135.00,51.163
1136.00,51.171
1137.00,51.175
1138.00,51.193
1139.00,51.182
1140.00,51.169
1141.00,51.164
1142.00,51.154
1143.00,51.154
1144.00,51.127
1145.00,51.133
1146.00,51.127
1147.00,51.128
1148.00,51.140
1149.00,51.135
1150.00,51.134
1151.00,51.117
1152.00,51.110
1153.00,51.097
1154.00,51.081
1155.00,51.092
1156.00,51.071
1157.00,51.087
1158.00,51.071
1159.00,51.079
1160.00,51.074
1161.00,51.094
1162.00,51.076
1163.00,51.074
1164.00,51.066
1165.00,51.054
1166.00,51.053
1167.00,51.042
1168.00,51.059
1169.00,51.052
1170.00,51.059
1171.00,51.055
1172.00,51.051
1173.00,51.041
1174.00,51.053
1175.00,51.038
1176.00,51.030
1177.00,51.031
1178.00,51.045
1179.00,51.038
1180.00,51.029
1181.00,51.048
1182.00,51.046
1183.00,51.039
1184.00,51.020
1185.00,51.042
1186.00,51.013
1187.00,51.011
1188.00,51.011
1189.00,51.008
1190.00,51.006
1191.00,51.001
1192.00,51.013
1193.00,51.014
1194.00,51.020
1195.00,50.978
1196.00,51.010
1197.00,51.000
1198.00,50.998
1199.00,50.995
1200.00,51.004
1201.00,51.007
1202.00,50.995
1203.00,50.994
1204.00,51.008
1205.00,51.027
1206.00,50.992
1207.00,51.007
1208.00,50.976
1209.00,50.981
1210.00,50.989
1211.00,50.983
1212.00,51.016
1213.00,50.986
1214.00,51.006
1215.00,50.985
1216.00,51.005
1217.00,50.999
1218.00,50.993
1219.00,50.991
1220.00,50.963
1221.00,50.980
1222.00,50.971
1223.00,50.997
1224.00,50.988
1225.00,50.997
1226.00,50.986
1227.00,51.014
1228.00,51.037
1229.00,50.993
1230.00,51.021
1231.00,51.006
1232.00,51.040
1233.00,51.021
1234.00,51.045
1235.00,51.039
1236.00,51.028
1237.00,51.039
1238.00,51.044
1239.00,51.020
1240.00,51.022
1241.00,51.009
1242.00,51.012
1243.00,51.046
1244.00,50.986
1245.00,51.037
1246.00,51.052
1247.00,51.041
1248.00,51.048
1249.00,51.064
1250.00,51.045
1251.00,51.027
1252.00,51.028
1253.00,51.013
1254.00,51.047
1255.00,51.041
1256.00,51.036
1257.00,51.034
1258.00,51.064
1259.00,51.068
1260.00,51.098
1261.00,51.080
1262.00,51.089
1263.00,51.074
1264.00,51.075
1265.00,51.072
1266.00,51.058
1267.00,51.081
1268.00,51.094
1269.00,51.093
1270.00,51.132
1271.00,51.128
1272.00,51.119
1273.00,51.136
1274.00,51.135
1275.00,51.120
1276.00,51.112
1277.00,51.121
1278.00,51.157
1279.00,51.173
1280.00,51.159
1281.00,51.182
1282.00,51.189
1283.00,51.169
1284.00,51.174
1285.00,51.152
1286.00,51.157
1287.00,51.142
1288.00,51.155
1289.00,51.157
1290.00,51.197
1291.00,51.188
1292.00,51.208
1293.00,51.209
1294.00,51.201
1295.00,51.225
1296.00,51.211
1297.00,51.192
1298.00,51.221
1299.00,51.205
1300.00,51.231
1301.00,51.220
1302.00,51.252
1303.00,51.274
1304.00,51.269
1305.00,51.272
1306.00,51.268
1307.00,51.284
1308.00,51.264
1309.00,51.293
1310.00,51.285
1311.00,51.274
1312.00,51.295
1313.00,51.313
1314.00,51.341
1315.00,51.342
1316.00,51.339
1317.00,51.364
1318.00,51.358
1319.00,51.339
1320.00,51.361
1321.00,51.571
1322.00,51.466
1323.00,51.522
1324.00,51.487
1325.00,51.496
1326.00,51.500
1327.00,51.466
1328.00,51.481
1329.00,51.484
1330.00,51.462
1331.00,51.486
1332.00,51.485
1333.00,51.488
1334.00,51.513
1335.00,51.542
1336.00,51.566
1337.00,51.588
1338.00,51.630
1339.00,51.685
1340.00,51.761
1341.00,51.785
1342.00,51.860
1343.00,51.902
1344.00,51.948
1345.00,51.994
1346.00,52.045
1347.00,52.110
1348.00,52.073
1349.00,52.074
1350.00,52.083
1351.00,52.129
1352.00,52.117
1353.00,52.144
1354.00,52.145
1355.00,52.097
1356.00,52.208
1357.00,52.173
1358.00,52.190
1359.00,52.212
1360.00,52.205
1361.00,52.195
1362.00,52.089
1363.00,52.291
1364.00,52.275
1365.00,52.246
1366.00,52.275
1367.00,52.200
1368.00,52.192
1369.00,52.222
1370.00,52.162
1371.00,52.128
1372.00,52.164
1373.00,52.189
1374.00,52.185
1375.00,52.177
1376.00,52.158
1377.00,52.129
1378.00,52.118
1379.00,52.162
1380.00,52.169
1381.00,52.189
1382.00,52.187
1383.00,52.197
1384.00,52.185
1385.00,52.083
1386.00,52.189
1387.00,52.175
1388.00,52.133
1389.00,52.025
1390.00,52.187
1391.00,52.157
1392.00,52.200
1393.00,52.364
1394.00,52.205
1395.00,52.111
1396.00,52.109
1397.00,52.126
1398.00,52.294
1399.00,52.153
1400.00,52.156
1401.00,52.135
1402.00,52.637
1403.00,52.194
1404.00,52.163
1405.00,52.204
1406.00,52.219
1407.00,52.243
1408.00,52.192
1409.00,52.199
1410.00,52.249
1411.00,52.260
1412.00,52.275
1413.00,52.202
1414.00,52.264
1415.00,52.244
1416.00,52.272
1417.00,52.297
1418.00,52.295
1419.00,52.314
1420.00,52.352
1421.00,52.346
1422.00,52.396
1423.00,52.423
1424.00,52.377
1425.00,52.387
1426.00,52.366
1427.00,52.423
1428.00,52.410
1429.00,52.397
1430.00,52.445
1431.00,52.468
1432.00,52.465
1433.00,52.507
1434.00,52.495
1435.00,52.547
1436.00,52.544
1437.00,52.522
1438.00,52.531
1439.00,52.567
1440.00,52.545
1441.00,52.583
1442.00,52.600
1443.00,52.600
1444.00,52.664
1445.00,52.640
1446.00,52.652
1447.00,52.676
1448.00,52.687
1449.00,52.699
1450.00,52.716
1451.00,52.742
1452.00,52.759
1453.00,52.763
1454.00,52.802
1455.00,52.853
1456.00,52.828
1457.00,52.838
1458.00,52.855
1459.00,52.857
1460.00,52.879
1461.00,52.898
1462.00,52.918
1463.00,52.920
1464.00,52.928
1465.00,52.947
1466.00,52.966
1467.00,53.006
1468.00,53.029
1469.00,53.024
1470.00,53.027
1471.00,53.040
1472.00,53.053
1473.00,53.043
1474.00,53.062
1475.00,53.075
1476.00,53.092
1477.00,53.090
1478.00,53.117
1479.00,53.138
1480.00,53.149
1481.00,53.144
1482.00,53.170
1483.00,53.186
1484.00,53.177
1485.00,53.211
1486.00,53.201
1487.00,53.215
1488.00,53.236
1489.00,53.238
1490.00,53.258
1491.00,53.279
1492.00,53.290
1493.00,53.289
1494.00,53.326
1495.00,53.315
1496.00,53.330
1497.00,53.334
1498.00,53.336
1499.00,53.380
1500.00,53.388
1501.00, 
1502.00, 
1503.00, 
1504.00, 
1505.00, 
1506.00, 
1507.00, 
1508.00, 
1509.00, 
1510.00, 
1511.00, 
1512.00, 
1513.00, 
1514.00, 
1515.00, 
1516.00, 
1517.00, 
1518.00, 
1519.00, 
1520.00, 
1521.00, 
1522.00, 
1523.00, 
1524.00, 
1525.00, 
1526.00, 
1527.00, 
1528.00, 
1529.00, 
1530.00, 
1531.00, 
1532.00, 
1533.00, 
1534.00, 
1535.00, 
1536.00, 
1537.00, 
1538.00, 
1539.00, 
1540.00, 
1541.00, 
1542.00, 
1543.00, 
1544.00, 
1545.00, 
1546.00, 
1547.00, 
1548.00, 
1549.00, 
1550.00, 
1551.00, 
1552.00, 
1553.00, 
1554.00, 
1555.00, 
1556.00, 
1557.00, 
1558.00, 
1559.00, 
1560.00, 
1561.00, 
1562.00, 
1563.00, 
1564.00, 
1565.00, 
1566.00, 
1567.00, 
1568.00, 
1569.00, 
1570.00, 
1571.00, 
1572.00, 
1573.00, 
1574.00, 
1575.00, 
1576.00, 
1577.00, 
1578.00, 
1579.00, 
1580.00, 
1581.00, 
1582.00, 
1583.00, 
1584.00, 
1585.00, 
1586.00, 
1587.00, 
1588.00, 
1589.00, 
1590.00, 
1591.00, 
1592.00, 
1593.00, 
1594.00, 
1595.00, 
1596.00, 
1597.00, 
1598.00, 
1599.00, 
1600.00, 
1601.00, 
1602.00, 
1603.00, 
1604.00, 
1605.00, 
1606.00, 
1607.00, 
1608.00, 
1609.00, 
1610.00, 
1611.00, 
1612.00, 
1613.00, 
1614.00, 
1615.00, 
1616.00, 
1617.00, 
1618.00, 
1619.00, 
1620.00, 
1621.00, 
1622.00, 
1623.00, 
1624.00, 
1625.00, 
1626.00, 
1627.00, 
1628.00, 
1629.00, 
1630.00, 
1631.00, 
1632.00, 
1633.00, 
1634.00, 
1635.00, 
1636.00, 
1637.00, 
1638.00, 
1639.00, 
1640.00, 
1641.00, 
1642.00, 
1643.00, 
1644.00, 
1645.00, 
1646.00, 
1647.00, 
1648.00, 
1649.00, 
1650.00, 
1651.00, 
1652.00, 
1653.00, 
1654.00, 
1655.00, 
1656.00, 
1657.00, 
1658.00, 
1659.00, 
1660.00, 
1661.00, 
1662.00, 
1663.00, 
1664.00, 
1665.00, 
1666.00, 
1667.00, 
1668.00, 
1669.00, 
1670.00, 
1671.00, 
1672.00, 
1673.00, 
1674.00, 
1675.00, 
1676.00, 
1677.00, 
1678.00, 
1679.00, 
1680.00, 
1681.00, 
1682.00, 
1683.00, 
1684.00, 
1685.00, 
1686.00, 
1687.00, 
1688.00, 
1689.00, 
1690.00, 
1691.00, 
1692.00, 
1693.00, 
1694.00, 
1695.00, 
1696.00, 
1697.00, 
1698.00, 
1699.00, 
1700.00, 
1701.00, 
1702.00, 
1703.00, 
1704.00, 
1705.00, 
1706.00, 
1707.00, 
1708.00, 
1709.00, 
1710.00, 
1711.00, 
1712.00, 
1713.00, 
1714.00, 
1715.00, 
1716.00, 
1717.00, 
1718.00, 
1719.00, 
1720.00, 
1721.00, 
1722.00, 
1723.00, 
1724.00, 
1725.00, 
1726.00, 
1727.00, 
1728.00, 
1729.00, 
1730.00, 
1731.00, 
1732.00, 
1733.00, 
1734.00, 
1735.00, 
1736.00, 
1737.00, 
1738.00, 
1739.00, 
1740.00, 
1741.00, 
1742.00, 
1743.00, 
1744.00, 
1745.00, 
1746.00, 
1747.00, 
1748.00, 
1749.00, 
1750.00, 
1751.00, 
1752.00, 
1753.00, 
1754.00, 
1755.00, 
1756.00, 
1757.00, 
1758.00, 
1759.00, 
1760.00, 
1761.00, 
1762.00, 
1763.00, 
1764.00, 
1765.00, 
1766.00, 
1767.00, 
1768.00, 
1769.00, 
1770.00, 
1771.00, 
1772.00, 
1773.00, 
1774.00, 
1775.00, 
1776.00, 
1777.00, 
1778.00, 
1779.00, 
1780.00, 
1781.00, 
1782.00, 
1783.00, 
1784.00, 
1785.00, 
1786.00, 
1787.00, 
1788.00, 
1789.00, 
1790.00, 
1791.00, 
1792.00, 
1793.00, 
1794.00, 
1795.00, 
1796.00, 
1797.00, 
1798.00, 
1799.00, 
1800.00, 
1801.00, 
1802.00, 
1803.00, 
1804.00, 
1805.00, 
1806.00, 
1807.00, 
1808.00, 
1809.00, 
1810.00, 
1811.00, 
1812.00, 
1813.00, 
1814.00, 
1815.00, 
1816.00, 
1817.00, 
1818.00, 
1819.00, 
1820.00, 
1821.00, 
1822.00, 
1823.00, 
1824.00, 
1825.00, 
1826.00, 
1827.00, 
1828.00, 
1829.00, 
1830.00, 
1831.00, 
1832.00, 
1833.00, 
1834.00, 
1835.00, 
1836.00, 
1837.00, 
1838.00, 
1839.00, 
1840.00, 
1841.00, 
1842.00, 
1843.00, 
1844.00, 
1845.00, 
1846.00, 
1847.00, 
1848.00, 
1849.00, 
1850.00, 
1851.00, 
1852.00, 
1853.00, 
1854.00, 
1855.00, 
1856.00, 
1857.00, 
1858.00, 
1859.00, 
1860.00, 
1861.00, 
1862.00, 
1863.00, 
1864.00, 
1865.00, 
1866.00, 
1867.00, 
1868.00, 
1869.00, 
1870.00, 
1871.00, 
1872.00, 
1873.00, 
1874.00, 
1875.00, 
1876.00, 
1877.00, 
1878.00, 
1879.00, 
1880.00, 
1881.00, 
1882.00, 
1883.00, 
1884.00, 
1885.00, 
1886.00, 
1887.00, 
1888.00, 
1889.00, 
1890.00, 
1891.00, 
1892.00, 
1893.00, 
1894.00, 
1895.00, 
1896.00, 
1897.00, 
1898.00, 
1899.00, 
1900.00, 
1901.00, 
1902.00, 
1903.00, 
1904.00, 
1905.00, 
1906.00, 
1907.00, 
1908.00, 
1909.00, 
1910.00, 
1911.00, 
1912.00, 
1913.00, 
1914.00, 
1915.00, 
1916.00, 
1917.00, 
1918.00, 
1919.00, 
1920.00, 
1921.00, 
1922.00, 
1923.00, 
1924.00, 
1925.00, 
1926.00, 
1927.00, 
1928.00, 
1929.00, 
1930.00, 
1931.00, 
1932.00, 
1933.00, 
1934.00, 
1935.00, 
1936.00, 
1937.00, 
1938.00, 
1939.00, 
1940.00, 
1941.00, 
1942.00, 
1943.00, 
1944.00, 
1945.00, 
1946.00, 
1947.00, 
1948.00, 
1949.00, 
1950.00, 
1951.00, 
1952.00, 
1953.00, 
1954.00, 
1955.00, 
1956.00, 
1957.00, 
1958.00, 
1959.00, 
1960.00, 
1961.00, 
1962.00, 
1963.00, 
1964.00, 
1965.00, 
1966.00, 
1967.00, 
1968.00, 
1969.00, 
1970.00, 
1971.00, 
1972.00, 
1973.00, 
1974.00, 
1975.00, 
1976.00, 
1977.00, 
1978.00, 
1979.00, 
1980.00, 
1981.00, 
1982.00, 
1983.00, 
1984.00, 
1985.00, 
1986.00, 
1987.00, 
1988.00, 
1989.00, 
1990.00, 
1991.00, 
1992.00, 
1993.00, 
1994.00, 
1995.00, 
1996.00, 
1997.00, 
1998.00, 
1999.00, 
2000.00, 
2001.00, 
2002.00, 
2003.00, 
2004.00, 
2005.00, 
2006.00, 
2007.00, 
2008.00, 
2009.00, 
2010.00, 
2011.00, 
2012.00, 
2013.00, 
2014.00, 
2015.00, 
2016.00, 
2017.00, 
2018.00, 
2019.00, 
2020.00, 
2021.00, 
2022.00, 
2023.00, 
2024.00, 
2025.00, 
2026.00, 
2027.00, 
2028.00, 
2029.00, 
2030.00, 
2031.00, 
2032.00, 
2033.00, 
2034.00, 
2035.00, 
2036.00, 
2037.00, 
2038.00, 
2039.00, 
2040.00, 
2041.00, 
2042.00, 
2043.00, 
2044.00, 
2045.00, 
2046.00, 
2047.00, 
2048.00, 
2049.00, 
2050.00, 
2051.00, 
2052.00, 
2053.00, 
2054.00, 
2055.00, 
2056.00, 
2057.00, 
2058.00, 
2059.00, 
2060.00, 
2061.00, 
2062.00, 
2063.00, 
2064.00, 
2065.00, 
2066.00, 
2067.00, 
2068.00, 
2069.00, 
2070.00, 
2071.00, 
2072.00, 
2073.00, 
2074.00, 
2075.00, 
2076.00, 
2077.00, 
2078.00, 
2079.00, 
2080.00, 
2081.00, 
2082.00, 
2083.00, 
2084.00, 
2085.00, 
2086.00, 
2087.00, 
2088.00, 
2089.00, 
2090.00, 
2091.00, 
2092.00, 
2093.00, 
2094.00, 
2095.00, 
2096.00, 
2097.00, 
2098.00, 
2099.00, 
2100.00, 
2101.00, 
2102.00, 
2103.00, 
2104.00, 
2105.00, 
2106.00, 
2107.00, 
2108.00, 
2109.00, 
2110.00, 
2111.00, 
2112.00, 
2113.00, 
2114.00, 
2115.00, 
2116.00, 
2117.00, 
2118.00, 
2119.00, 
2120.00, 
2121.00, 
2122.00, 
2123.00, 
2124.00, 
2125.00, 
2126.00, 
2127.00, 
2128.00, 
2129.00, 
2130.00, 
2131.00, 
2132.00, 
2133.00, 
2134.00, 
2135.00, 
2136.00, 
2137.00, 
2138.00, 
2139.00, 
2140.00, 
2141.00, 
2142.00, 
2143.00, 
2144.00, 
2145.00, 
2146.00, 
2147.00, 
2148.00, 
2149.00, 
2150.00, 
2151.00, 
2152.00, 
2153.00, 
2154.00, 
2155.00, 
2156.00, 
2157.00, 
2158.00, 
2159.00, 
2160.00, 
2161.00, 
2162.00, 
2163.00, 
2164.00, 
2165.00, 
2166.00, 
2167.00, 
2168.00, 
2169.00, 
2170.00, 
2171.00, 
2172.00, 
2173.00, 
2174.00, 
2175.00, 
2176.00, 
2177.00, 
2178.00, 
2179.00, 
2180.00, 
2181.00, 
2182.00, 
2183.00, 
2184.00, 
2185.00, 
2186.00, 
2187.00, 
2188.00, 
2189.00, 
2190.00, 
2191.00, 
2192.00, 
2193.00, 
2194.00, 
2195.00, 
2196.00, 
2197.00, 
2198.00, 
2199.00, 
2200.00, 
2201.00, 
2202.00, 
2203.00, 
2204.00, 
2205.00, 
2206.00, 
2207.00, 
2208.00, 
2209.00, 
2210.00, 
2211.00, 
2212.00, 
2213.00, 
2214.00, 
2215.00, 
2216.00, 
2217.00, 
2218.00, 
2219.00, 
2220.00, 
2221.00, 
2222.00, 
2223.00, 
2224.00, 
2225.00, 
2226.00, 
2227.00, 
2228.00, 
2229.00, 
2230.00, 
2231.00, 
2232.00, 
2233.00, 
2234.00, 
2235.00, 
2236.00, 
2237.00, 
2238.00, 
2239.00, 
2240.00, 
2241.00, 
2242.00, 
2243.00, 
2244.00, 
2245.00, 
2246.00, 
2247.00, 
2248.00, 
2249.00, 
2250.00, 
2251.00, 
2252.00, 
2253.00, 
2254.00, 
2255.00, 
2256.00, 
2257.00, 
2258.00, 
2259.00, 
2260.00, 
2261.00, 
2262.00, 
2263.00, 
2264.00, 
2265.00, 
2266.00, 
2267.00, 
2268.00, 
2269.00, 
2270.00, 
2271.00, 
2272.00, 
2273.00, 
2274.00, 
2275.00, 
2276.00, 
2277.00, 
2278.00, 
2279.00, 
2280.00, 
2281.00, 
2282.00, 
2283.00, 
2284.00, 
2285.00, 
2286.00, 
2287.00, 
2288.00, 
2289.00, 
2290.00, 
2291.00, 
2292.00, 
2293.00, 
2294.00, 
2295.00, 
2296.00, 
2297.00, 
2298.00, 
2299.00, 
2300.00, 
2301.00, 
2302.00, 
2303.00, 
2304.00, 
2305.00, 
2306.00, 
2307.00, 
2308.00, 
2309.00, 
2310.00, 
2311.00, 
2312.00, 
2313.00, 
2314.00, 
2315.00, 
2316.00, 
2317.00, 
2318.00, 
2319.00, 
2320.00, 
2321.00, 
2322.00, 
2323.00, 
2324.00, 
2325.00, 
2326.00, 
2327.00, 
2328.00, 
2329.00, 
2330.00, 
2331.00, 
2332.00, 
2333.00, 
2334.00, 
2335.00, 
2336.00, 
2337.00, 
2338.00, 
2339.00, 
2340.00, 
2341.00, 
2342.00, 
2343.00, 
2344.00, 
2345.00, 
2346.00, 
2347.00, 
2348.00, 
2349.00, 
2350.00, 
2351.00, 
2352.00, 
2353.00, 
2354.00, 
2355.00, 
2356.00, 
2357.00, 
2358.00, 
2359.00, 
2360.00, 
2361.00, 
2362.00, 
2363.00, 
2364.00, 
2365.00, 
2366.00, 
2367.00, 
2368.00, 
2369.00, 
2370.00, 
2371.00, 
2372.00, 
2373.00, 
2374.00, 
2375.00, 
2376.00, 
2377.00, 
2378.00, 
2379.00, 
2380.00, 
2381.00, 
2382.00, 
2383.00, 
2384.00, 
2385.00, 
2386.00, 
2387.00, 
2388.00, 
2389.00, 
2390.00, 
2391.00, 
2392.00, 
2393.00, 
2394.00, 
2395.00, 
2396.00, 
2397.00, 
2398.00, 
2399.00, 
2400.00, 
2401.00, 
2402.00, 
2403.00, 
2404.00, 
2405.00, 
2406.00, 
2407.00, 
2408.00, 
2409.00, 
2410.00, 
2411.00, 
2412.00, 
2413.00, 
2414.00, 
2415.00, 
2416.00, 
2417.00, 
2418.00, 
2419.00, 
2420.00, 
2421.00, 
2422.00, 
2423.00, 
2424.00, 
2425.00, 
2426.00, 
2427.00, 
2428.00, 
2429.00, 
2430.00, 
2431.00, 
2432.00, 
2433.00, 
2434.00, 
2435.00, 
2436.00, 
2437.00, 
2438.00, 
2439.00, 
2440.00, 
2441.00, 
2442.00, 
2443.00, 
2444.00, 
2445.00, 
2446.00, 
2447.00, 
2448.00, 
2449.00, 
2450.00, 
2451.00, 
2452.00, 
2453.00, 
2454.00, 
2455.00, 
2456.00, 
2457.00, 
2458.00, 
2459.00, 
2460.00, 
2461.00, 
2462.00, 
2463.00, 
2464.00, 
2465.00, 
2466.00, 
2467.00, 
2468.00, 
2469.00, 
2470.00, 
2471.00, 
2472.00, 
2473.00, 
2474.00, 
2475.00, 
2476.00, 
2477.00, 
2478.00, 
2479.00, 
2480.00, 
2481.00, 
2482.00, 
2483.00, 
2484.00, 
2485.00, 
2486.00, 
2487.00, 
2488.00, 
2489.00, 
2490.00, 
2491.00, 
2492.00, 
2493.00, 
2494.00, 
2495.00, 
2496.00, 
2497.00, 
2498.00, 
2499.00, 
2500.00, 
2501.00, 
2502.00, 
2503.00, 
2504.00, 
2505.00, 
2506.00, 
2507.00, 
2508.00, 
2509.00, 
2510.00, 
2511.00, 
2512.00, 
2513.00, 
2514.00, 
2515.00, 
2516.00, 
2517.00, 
2518.00, 
2519.00, 
2520.00, 
2521.00, 
2522.00, 
2523.00, 
2524.00, 
2525.00, 
2526.00, 
2527.00, 
2528.00, 
2529.00, 
2530.00, 
2531.00, 
2532.00, 
2533.00, 
2534.00, 
2535.00, 
2536.00, 
2537.00, 
2538.00, 
2539.00, 
2540.00, 
2541.00, 
2542.00, 
2543.00, 
2544.00, 
2545.00, 
2546.00, 
2547.00, 
2548.00, 
2549.00, 
2550.00, 
2551.00, 
2552.00, 
2553.00, 
2554.00, 
2555.00, 
2556.00, 
2557.00, 
2558.00, 
2559.00, 
2560.00, 
2561.00, 
2562.00, 
2563.00, 
2564.00, 
2565.00, 
2566.00, 
2567.00, 
2568.00, 
2569.00, 
2570.00, 
2571.00, 
2572.00, 
2573.00, 
2574.00, 
2575.00, 
2576.00, 
2577.00, 
2578.00, 
2579.00, 
2580.00, 
2581.00, 
2582.00, 
2583.00, 
2584.00, 
2585.00, 
2586.00, 
2587.00, 
2588.00, 
2589.00, 
2590.00, 
2591.00, 
2592.00, 
2593.00, 
2594.00, 
2595.00, 
2596.00, 
2597.00, 
2598.00, 
2599.00, 
2600.00, 
