"2cP3 - RawData"
"Wavelength nm.","T%"
200.00,0.001
201.00,0.002
202.00,0.004
203.00,0.003
204.00,-0.000
205.00,-0.001
206.00,0.002
207.00,0.002
208.00,0.000
209.00,0.002
210.00,0.004
211.00,-0.001
212.00,0.001
213.00,0.001
214.00,-0.000
215.00,0.002
216.00,0.005
217.00,-0.000
218.00,0.001
219.00,0.003
220.00,0.001
221.00,0.001
222.00,0.003
223.00,0.001
224.00,0.002
225.00,0.001
226.00,0.003
227.00,0.003
228.00,-0.000
229.00,0.003
230.00,0.003
231.00,-0.000
232.00,0.001
233.00,0.000
234.00,0.000
235.00,-0.000
236.00,0.002
237.00,0.001
238.00,0.001
239.00,0.000
240.00,0.000
241.00,0.002
242.00,0.002
243.00,-0.001
244.00,-0.000
245.00,0.001
246.00,0.001
247.00,0.000
248.00,0.001
249.00,-0.000
250.00,0.001
251.00,0.002
252.00,-0.001
253.00,-0.000
254.00,0.001
255.00,0.001
256.00,0.001
257.00,0.002
258.00,0.001
259.00,0.001
260.00,0.001
261.00,0.002
262.00,0.002
263.00,0.001
264.00,0.000
265.00,0.000
266.00,0.000
267.00,0.001
268.00,0.002
269.00,0.000
270.00,0.001
271.00,-0.000
272.00,0.001
273.00,0.001
274.00,0.000
275.00,0.000
276.00,0.001
277.00,0.002
278.00,0.001
279.00,0.001
280.00,0.001
281.00,0.000
282.00,-0.000
283.00,0.000
284.00,0.000
285.00,0.001
286.00,-0.000
287.00,-0.001
288.00,0.000
289.00,0.000
290.00,0.001
291.00,0.000
292.00,0.001
293.00,0.002
294.00,-0.001
295.00,0.000
296.00,-0.000
297.00,0.000
298.00,0.001
299.00,0.003
300.00,0.002
301.00,0.005
302.00,0.008
303.00,0.012
304.00,0.015
305.00,0.025
306.00,0.039
307.00,0.060
308.00,0.095
309.00,0.143
310.00,0.200
311.00,0.266
312.00,0.370
313.00,0.509
314.00,0.668
315.00,0.866
316.00,1.112
317.00,1.401
318.00,1.736
319.00,2.126
320.00,2.599
321.00,3.111
322.00,3.710
323.00,4.395
324.00,4.990
325.00,5.767
326.00,6.514
327.00,7.376
328.00,8.240
329.00,9.126
330.00,10.072
331.00,11.031
332.00,12.028
333.00,13.014
334.00,13.994
335.00,14.996
336.00,16.014
337.00,16.977
338.00,17.975
339.00,18.898
340.00,19.839
341.00,20.768
342.00,21.610
343.00,22.503
344.00,23.308
345.00,24.047
346.00,24.848
347.00,25.599
348.00,26.234
349.00,26.825
350.00,27.457
351.00,28.084
352.00,28.539
353.00,29.124
354.00,29.577
355.00,30.028
356.00,30.434
357.00,30.887
358.00,31.279
359.00,31.621
360.00,31.948
361.00,32.324
362.00,32.549
363.00,32.863
364.00,33.061
365.00,33.352
366.00,33.595
367.00,33.736
368.00,33.899
369.00,34.019
370.00,34.189
371.00,34.277
372.00,34.389
373.00,34.419
374.00,34.380
375.00,34.477
376.00,34.526
377.00,34.508
378.00,34.485
379.00,34.472
380.00,34.467
381.00,34.492
382.00,34.585
383.00,34.592
384.00,34.767
385.00,34.826
386.00,34.955
387.00,35.083
388.00,35.158
389.00,35.245
390.00,35.359
391.00,35.514
392.00,35.552
393.00,35.614
394.00,35.738
395.00,35.745
396.00,35.757
397.00,35.865
398.00,35.898
399.00,35.949
400.00,35.954
401.00,35.975
402.00,35.996
403.00,35.976
404.00,36.047
405.00,36.092
406.00,36.114
407.00,36.062
408.00,36.055
409.00,36.022
410.00,35.978
411.00,35.981
412.00,35.951
413.00,35.925
414.00,35.873
415.00,35.967
416.00,35.985
417.00,35.991
418.00,36.047
419.00,36.072
420.00,36.014
421.00,36.181
422.00,36.184
423.00,36.276
424.00,36.273
425.00,36.294
426.00,36.392
427.00,36.392
428.00,36.421
429.00,36.452
430.00,36.514
431.00,36.510
432.00,36.514
433.00,36.623
434.00,36.605
435.00,36.666
436.00,36.742
437.00,36.801
438.00,36.836
439.00,36.875
440.00,36.944
441.00,37.015
442.00,37.046
443.00,37.105
444.00,37.173
445.00,37.222
446.00,37.340
447.00,37.420
448.00,37.481
449.00,37.571
450.00,37.602
451.00,37.730
452.00,37.807
453.00,37.846
454.00,37.924
455.00,38.022
456.00,38.112
457.00,38.182
458.00,38.283
459.00,38.357
460.00,38.448
461.00,38.551
462.00,38.573
463.00,38.720
464.00,38.798
465.00,38.870
466.00,38.976
467.00,39.069
468.00,39.130
469.00,39.199
470.00,39.289
471.00,39.337
472.00,39.434
473.00,39.440
474.00,39.538
475.00,39.561
476.00,39.669
477.00,39.735
478.00,39.732
479.00,39.951
480.00,40.023
481.00,40.170
482.00,40.245
483.00,40.332
484.00,40.467
485.00,40.596
486.00,40.684
487.00,40.767
488.00,40.886
489.00,41.009
490.00,41.026
491.00,41.132
492.00,41.193
493.00,41.388
494.00,41.433
495.00,41.501
496.00,41.602
497.00,41.660
498.00,41.753
499.00,41.867
500.00,41.943
501.00,41.967
502.00,42.151
503.00,42.240
504.00,42.263
505.00,42.361
506.00,42.434
507.00,42.495
508.00,42.567
509.00,42.713
510.00,42.786
511.00,42.827
512.00,42.934
513.00,43.020
514.00,43.082
515.00,43.205
516.00,43.220
517.00,43.354
518.00,43.475
519.00,43.496
520.00,43.593
521.00,43.638
522.00,43.685
523.00,43.706
524.00,43.801
525.00,43.856
526.00,43.927
527.00,43.959
528.00,43.975
529.00,44.059
530.00,44.130
531.00,44.284
532.00,44.264
533.00,44.356
534.00,44.532
535.00,44.474
536.00,44.620
537.00,44.624
538.00,44.710
539.00,44.762
540.00,44.813
541.00,44.887
542.00,44.875
543.00,44.938
544.00,45.018
545.00,45.017
546.00,45.109
547.00,45.197
548.00,45.184
549.00,45.222
550.00,45.323
551.00,45.369
552.00,45.420
553.00,45.450
554.00,45.490
555.00,45.610
556.00,45.623
557.00,45.607
558.00,45.613
559.00,45.799
560.00,45.794
561.00,45.829
562.00,45.918
563.00,45.887
564.00,45.936
565.00,45.979
566.00,45.997
567.00,46.016
568.00,46.050
569.00,46.038
570.00,46.007
571.00,46.042
572.00,46.136
573.00,46.101
574.00,46.235
575.00,46.246
576.00,46.257
577.00,46.344
578.00,46.356
579.00,46.345
580.00,46.421
581.00,46.516
582.00,46.583
583.00,46.587
584.00,46.771
585.00,46.813
586.00,46.818
587.00,46.920
588.00,46.954
589.00,46.915
590.00,46.959
591.00,46.952
592.00,46.937
593.00,47.042
594.00,47.080
595.00,47.136
596.00,47.169
597.00,47.141
598.00,47.216
599.00,47.199
600.00,47.322
601.00,47.349
602.00,47.376
603.00,47.444
604.00,47.385
605.00,47.447
606.00,47.469
607.00,47.557
608.00,47.588
609.00,47.506
610.00,47.594
611.00,47.565
612.00,47.602
613.00,47.511
614.00,47.583
615.00,47.693
616.00,47.735
617.00,47.706
618.00,47.730
619.00,47.793
620.00,47.728
621.00,47.814
622.00,47.900
623.00,47.861
624.00,47.946
625.00,47.940
626.00,47.935
627.00,48.021
628.00,48.030
629.00,48.060
630.00,48.009
631.00,48.050
632.00,48.137
633.00,48.188
634.00,48.210
635.00,48.310
636.00,48.357
637.00,48.359
638.00,48.389
639.00,48.491
640.00,48.447
641.00,48.465
642.00,48.538
643.00,48.489
644.00,48.575
645.00,48.590
646.00,48.609
647.00,48.674
648.00,48.696
649.00,48.805
650.00,48.798
651.00,48.820
652.00,48.859
653.00,48.808
654.00,48.859
655.00,48.897
656.00,48.964
657.00,49.055
658.00,49.137
659.00,49.175
660.00,49.124
661.00,49.105
662.00,49.158
663.00,49.280
664.00,49.336
665.00,49.347
666.00,49.266
667.00,49.296
668.00,49.207
669.00,49.405
670.00,49.496
671.00,49.502
672.00,49.449
673.00,49.510
674.00,49.568
675.00,49.578
676.00,49.643
677.00,49.700
678.00,49.696
679.00,49.628
680.00,49.774
681.00,49.769
682.00,49.715
683.00,49.818
684.00,49.945
685.00,49.964
686.00,49.772
687.00,49.881
688.00,49.908
689.00,50.033
690.00,50.066
691.00,50.067
692.00,49.932
693.00,49.991
694.00,49.958
695.00,49.922
696.00,50.119
697.00,49.980
698.00,50.256
699.00,50.314
700.00,50.190
701.00,50.236
702.00,50.368
703.00,50.403
704.00,50.310
705.00,50.340
706.00,50.387
707.00,50.499
708.00,50.291
709.00,50.482
710.00,50.700
711.00,50.360
712.00,50.242
713.00,50.458
714.00,50.365
715.00,50.432
716.00,50.440
717.00,50.397
718.00,50.467
719.00,50.478
720.00,50.565
721.00,54.995
722.00,54.923
723.00,54.935
724.00,54.896
725.00,54.934
726.00,54.946
727.00,54.745
728.00,54.837
729.00,54.760
730.00,54.728
731.00,54.696
732.00,54.665
733.00,54.652
734.00,54.667
735.00,54.616
736.00,54.650
737.00,54.671
738.00,54.660
739.00,54.646
740.00,54.531
741.00,54.644
742.00,54.542
743.00,54.480
744.00,54.488
745.00,54.477
746.00,54.396
747.00,54.375
748.00,54.329
749.00,54.363
750.00,54.275
751.00,54.162
752.00,54.190
753.00,54.190
754.00,54.128
755.00,54.068
756.00,54.076
757.00,54.099
758.00,54.027
759.00,53.996
760.00,53.990
761.00,53.944
762.00,53.936
763.00,53.918
764.00,53.885
765.00,53.862
766.00,53.881
767.00,53.849
768.00,53.895
769.00,53.825
770.00,53.875
771.00,53.762
772.00,53.698
773.00,53.731
774.00,53.774
775.00,53.718
776.00,53.670
777.00,53.687
778.00,53.584
779.00,53.649
780.00,53.618
781.00,53.614
782.00,53.569
783.00,53.577
784.00,53.569
785.00,53.398
786.00,53.372
787.00,53.506
788.00,53.432
789.00,53.423
790.00,53.370
791.00,53.398
792.00,53.310
793.00,53.262
794.00,53.192
795.00,53.161
796.00,53.098
797.00,53.109
798.00,53.039
799.00,53.070
800.00,53.088
801.00,53.029
802.00,52.995
803.00,52.964
804.00,52.964
805.00,52.874
806.00,52.890
807.00,52.889
808.00,52.780
809.00,52.780
810.00,52.812
811.00,52.688
812.00,52.746
813.00,52.734
814.00,52.678
815.00,52.700
816.00,52.626
817.00,52.547
818.00,52.530
819.00,52.575
820.00,52.476
821.00,52.498
822.00,52.384
823.00,52.584
824.00,52.470
825.00,52.404
826.00,52.433
827.00,52.443
828.00,52.373
829.00,52.343
830.00,52.330
831.00,54.769
832.00,54.734
833.00,54.720
834.00,54.713
835.00,54.655
836.00,54.622
837.00,54.588
838.00,54.589
839.00,54.598
840.00,54.515
841.00,54.570
842.00,54.457
843.00,54.464
844.00,54.473
845.00,54.407
846.00,54.360
847.00,54.325
848.00,54.292
849.00,54.297
850.00,54.271
851.00,54.185
852.00,54.208
853.00,54.269
854.00,54.101
855.00,54.027
856.00,54.053
857.00,53.922
858.00,53.955
859.00,53.898
860.00,53.942
861.00,53.921
862.00,53.830
863.00,53.844
864.00,53.831
865.00,53.865
866.00,53.806
867.00,53.827
868.00,54.015
869.00,53.764
870.00,53.744
871.00,53.752
872.00,53.694
873.00,53.721
874.00,53.662
875.00,53.639
876.00,53.636
877.00,53.600
878.00,53.593
879.00,53.588
880.00,53.577
881.00,53.563
882.00,53.544
883.00,53.522
884.00,53.487
885.00,53.486
886.00,53.452
887.00,53.427
888.00,53.378
889.00,53.357
890.00,53.372
891.00,53.336
892.00,53.330
893.00,53.282
894.00,53.275
895.00,53.230
896.00,53.220
897.00,53.184
898.00,53.159
899.00,53.170
900.00,53.157
901.00,53.133
902.00,53.122
903.00,53.073
904.00,53.081
905.00,53.042
906.00,53.023
907.00,52.987
908.00,52.972
909.00,52.982
910.00,52.939
911.00,52.900
912.00,52.942
913.00,52.878
914.00,52.858
915.00,52.821
916.00,52.832
917.00,52.783
918.00,52.764
919.00,52.731
920.00,52.703
921.00,52.693
922.00,52.675
923.00,52.644
924.00,52.640
925.00,52.605
926.00,52.603
927.00,52.574
928.00,52.569
929.00,52.543
930.00,52.510
931.00,52.511
932.00,52.500
933.00,52.478
934.00,52.424
935.00,52.432
936.00,52.402
937.00,52.342
938.00,52.418
939.00,52.352
940.00,52.314
941.00,52.297
942.00,52.266
943.00,52.277
944.00,52.225
945.00,52.217
946.00,52.200
947.00,52.182
948.00,52.152
949.00,52.142
950.00,52.114
951.00,52.105
952.00,52.076
953.00,52.054
954.00,52.019
955.00,51.979
956.00,51.970
957.00,51.946
958.00,51.937
959.00,51.887
960.00,51.892
961.00,51.862
962.00,51.870
963.00,51.811
964.00,51.810
965.00,51.791
966.00,51.793
967.00,51.767
968.00,51.755
969.00,51.771
970.00,51.748
971.00,51.759
972.00,51.735
973.00,51.770
974.00,51.775
975.00,51.755
976.00,51.757
977.00,51.740
978.00,51.785
979.00,51.746
980.00,51.777
981.00,51.739
982.00,51.736
983.00,51.732
984.00,51.727
985.00,51.721
986.00,51.695
987.00,51.725
988.00,51.672
989.00,51.677
990.00,51.662
991.00,51.645
992.00,51.656
993.00,51.632
994.00,51.627
995.00,51.598
996.00,51.588
997.00,51.578
998.00,51.553
999.00,51.568
1000.00,51.586
1001.00,51.536
1002.00,51.505
1003.00,51.512
1004.00,51.495
1005.00,51.476
1006.00,51.482
1007.00,51.450
1008.00,51.443
1009.00,51.418
1010.00,51.412
1011.00,51.386
1012.00,51.374
1013.00,51.357
1014.00,51.330
1015.00,51.360
1016.00,51.304
1017.00,51.313
1018.00,51.277
1019.00,51.276
1020.00,51.261
1021.00,51.233
1022.00,51.226
1023.00,51.189
1024.00,51.195
1025.00,51.152
1026.00,51.156
1027.00,51.110
1028.00,51.140
1029.00,51.110
1030.00,51.083
1031.00,51.085
1032.00,51.063
1033.00,51.080
1034.00,51.045
1035.00,51.004
1036.00,50.970
1037.00,50.963
1038.00,50.942
1039.00,50.916
1040.00,50.908
1041.00,50.861
1042.00,50.869
1043.00,50.841
1044.00,50.876
1045.00,50.852
1046.00,50.835
1047.00,50.849
1048.00,50.865
1049.00,50.869
1050.00,50.894
1051.00,50.909
1052.00,50.916
1053.00,50.921
1054.00,50.922
1055.00,50.934
1056.00,50.938
1057.00,50.936
1058.00,50.909
1059.00,50.918
1060.00,50.930
1061.00,50.947
1062.00,50.887
1063.00,50.904
1064.00,50.889
1065.00,50.891
1066.00,50.879
1067.00,50.874
1068.00,50.874
1069.00,50.841
1070.00,50.821
1071.00,50.797
1072.00,50.819
1073.00,50.793
1074.00,50.779
1075.00,50.782
1076.00,50.775
1077.00,50.756
1078.00,50.743
1079.00,50.730
1080.00,50.757
1081.00,50.723
1082.00,50.716
1083.00,50.703
1084.00,50.712
1085.00,50.702
1086.00,50.692
1087.00,50.686
1088.00,50.653
1089.00,50.649
1090.00,50.644
1091.00,50.627
1092.00,50.628
1093.00,50.593
1094.00,50.604
1095.00,50.591
1096.00,50.591
1097.00,50.580
1098.00,50.579
1099.00,50.568
1100.00,50.550
1101.00,50.532
1102.00,50.516
1103.00,50.513
1104.00,50.504
1105.00,50.505
1106.00,50.511
1107.00,50.478
1108.00,50.485
1109.00,50.479
1110.00,50.475
1111.00,50.466
1112.00,50.446
1113.00,50.439
1114.00,50.435
1115.00,50.425
1116.00,50.417
1117.00,50.398
1118.00,50.394
1119.00,50.395
1120.00,50.404
1121.00,50.400
1122.00,50.424
1123.00,50.353
1124.00,50.344
1125.00,50.337
1126.00,50.335
1127.00,50.337
1128.00,50.323
1129.00,50.318
1130.00,50.311
1131.00,50.289
1132.00,50.325
1133.00,50.322
1134.00,50.340
1135.00,50.314
1136.00,50.264
1137.00,50.254
1138.00,50.269
1139.00,50.277
1140.00,50.263
1141.00,50.260
1142.00,50.251
1143.00,50.250
1144.00,50.238
1145.00,50.211
1146.00,50.209
1147.00,50.219
1148.00,50.186
1149.00,50.188
1150.00,50.195
1151.00,50.193
1152.00,50.195
1153.00,50.188
1154.00,50.175
1155.00,50.186
1156.00,50.163
1157.00,50.165
1158.00,50.162
1159.00,50.150
1160.00,50.143
1161.00,50.166
1162.00,50.158
1163.00,50.150
1164.00,50.130
1165.00,50.132
1166.00,50.150
1167.00,50.155
1168.00,50.143
1169.00,50.146
1170.00,50.141
1171.00,50.125
1172.00,50.133
1173.00,50.142
1174.00,50.152
1175.00,50.144
1176.00,50.150
1177.00,50.123
1178.00,50.125
1179.00,50.124
1180.00,50.135
1181.00,50.136
1182.00,50.130
1183.00,50.140
1184.00,50.107
1185.00,50.133
1186.00,50.109
1187.00,50.109
1188.00,50.100
1189.00,50.084
1190.00,50.066
1191.00,50.077
1192.00,50.094
1193.00,50.073
1194.00,50.089
1195.00,50.062
1196.00,50.093
1197.00,50.084
1198.00,50.076
1199.00,50.065
1200.00,50.063
1201.00,50.058
1202.00,50.071
1203.00,50.059
1204.00,50.055
1205.00,50.077
1206.00,50.068
1207.00,50.072
1208.00,50.049
1209.00,50.062
1210.00,50.059
1211.00,50.046
1212.00,50.059
1213.00,50.049
1214.00,50.055
1215.00,50.032
1216.00,50.059
1217.00,50.052
1218.00,50.046
1219.00,50.053
1220.00,50.056
1221.00,50.053
1222.00,50.028
1223.00,50.084
1224.00,50.050
1225.00,50.042
1226.00,50.035
1227.00,50.039
1228.00,50.074
1229.00,50.062
1230.00,50.098
1231.00,50.088
1232.00,50.104
1233.00,50.089
1234.00,50.095
1235.00,50.095
1236.00,50.085
1237.00,50.084
1238.00,50.098
1239.00,50.091
1240.00,50.080
1241.00,50.085
1242.00,50.105
1243.00,50.130
1244.00,50.097
1245.00,50.110
1246.00,50.135
1247.00,50.117
1248.00,50.111
1249.00,50.124
1250.00,50.128
1251.00,50.123
1252.00,50.118
1253.00,50.102
1254.00,50.126
1255.00,50.118
1256.00,50.095
1257.00,50.084
1258.00,50.140
1259.00,50.137
1260.00,50.159
1261.00,50.159
1262.00,50.154
1263.00,50.155
1264.00,50.158
1265.00,50.146
1266.00,50.139
1267.00,50.148
1268.00,50.162
1269.00,50.147
1270.00,50.181
1271.00,50.173
1272.00,50.173
1273.00,50.185
1274.00,50.193
1275.00,50.194
1276.00,50.185
1277.00,50.201
1278.00,50.215
1279.00,50.220
1280.00,50.215
1281.00,50.231
1282.00,50.241
1283.00,50.236
1284.00,50.237
1285.00,50.217
1286.00,50.224
1287.00,50.225
1288.00,50.210
1289.00,50.220
1290.00,50.265
1291.00,50.252
1292.00,50.249
1293.00,50.251
1294.00,50.268
1295.00,50.298
1296.00,50.284
1297.00,50.283
1298.00,50.302
1299.00,50.277
1300.00,50.281
1301.00,50.284
1302.00,50.293
1303.00,50.305
1304.00,50.300
1305.00,50.326
1306.00,50.330
1307.00,50.333
1308.00,50.340
1309.00,50.352
1310.00,50.342
1311.00,50.313
1312.00,50.336
1313.00,50.341
1314.00,50.369
1315.00,50.364
1316.00,50.369
1317.00,50.392
1318.00,50.374
1319.00,50.375
1320.00,50.401
1321.00,50.541
1322.00,50.548
1323.00,50.542
1324.00,50.517
1325.00,50.517
1326.00,50.534
1327.00,50.506
1328.00,50.515
1329.00,50.528
1330.00,50.533
1331.00,50.533
1332.00,50.518
1333.00,50.554
1334.00,50.614
1335.00,50.567
1336.00,50.605
1337.00,50.643
1338.00,50.677
1339.00,50.723
1340.00,50.809
1341.00,50.858
1342.00,50.932
1343.00,50.978
1344.00,51.018
1345.00,51.103
1346.00,51.134
1347.00,51.178
1348.00,51.177
1349.00,51.161
1350.00,51.172
1351.00,51.206
1352.00,51.198
1353.00,51.264
1354.00,51.204
1355.00,51.162
1356.00,51.246
1357.00,51.255
1358.00,51.224
1359.00,51.388
1360.00,51.581
1361.00,51.177
1362.00,51.193
1363.00,51.281
1364.00,51.289
1365.00,51.299
1366.00,51.334
1367.00,51.166
1368.00,51.224
1369.00,51.260
1370.00,51.234
1371.00,51.180
1372.00,51.206
1373.00,51.241
1374.00,51.239
1375.00,51.228
1376.00,51.221
1377.00,51.222
1378.00,51.274
1379.00,51.249
1380.00,51.260
1381.00,51.193
1382.00,51.196
1383.00,51.201
1384.00,51.178
1385.00,51.166
1386.00,51.219
1387.00,51.162
1388.00,51.185
1389.00,51.123
1390.00,51.225
1391.00,51.140
1392.00,51.196
1393.00,51.131
1394.00,51.190
1395.00,50.934
1396.00,51.270
1397.00,51.153
1398.00,51.363
1399.00,51.188
1400.00,51.144
1401.00,51.145
1402.00,51.639
1403.00,51.233
1404.00,51.197
1405.00,51.231
1406.00,51.224
1407.00,51.240
1408.00,51.252
1409.00,51.229
1410.00,51.292
1411.00,51.094
1412.00,51.276
1413.00,51.260
1414.00,51.274
1415.00,51.294
1416.00,51.311
1417.00,51.332
1418.00,51.317
1419.00,51.317
1420.00,51.356
1421.00,51.383
1422.00,51.389
1423.00,51.377
1424.00,51.397
1425.00,51.425
1426.00,51.384
1427.00,51.423
1428.00,51.428
1429.00,51.418
1430.00,51.457
1431.00,51.464
1432.00,51.484
1433.00,51.514
1434.00,51.487
1435.00,51.528
1436.00,51.555
1437.00,51.541
1438.00,51.555
1439.00,51.591
1440.00,51.588
1441.00,51.602
1442.00,51.607
1443.00,51.639
1444.00,51.678
1445.00,51.644
1446.00,51.655
1447.00,51.717
1448.00,51.725
1449.00,51.722
1450.00,51.724
1451.00,51.743
1452.00,51.767
1453.00,51.782
1454.00,51.794
1455.00,51.830
1456.00,51.841
1457.00,51.839
1458.00,51.855
1459.00,51.863
1460.00,51.879
1461.00,51.898
1462.00,51.911
1463.00,51.939
1464.00,51.945
1465.00,51.951
1466.00,51.957
1467.00,51.965
1468.00,52.009
1469.00,51.995
1470.00,52.000
1471.00,52.026
1472.00,52.037
1473.00,52.038
1474.00,52.076
1475.00,52.078
1476.00,52.095
1477.00,52.112
1478.00,52.106
1479.00,52.122
1480.00,52.138
1481.00,52.133
1482.00,52.150
1483.00,52.168
1484.00,52.197
1485.00,52.202
1486.00,52.198
1487.00,52.229
1488.00,52.237
1489.00,52.247
1490.00,52.253
1491.00,52.267
1492.00,52.262
1493.00,52.271
1494.00,52.304
1495.00,52.304
1496.00,52.307
1497.00,52.313
1498.00,52.314
1499.00,52.345
1500.00,52.365
1501.00, 
1502.00, 
1503.00, 
1504.00, 
1505.00, 
1506.00, 
1507.00, 
1508.00, 
1509.00, 
1510.00, 
1511.00, 
1512.00, 
1513.00, 
1514.00, 
1515.00, 
1516.00, 
1517.00, 
1518.00, 
1519.00, 
1520.00, 
1521.00, 
1522.00, 
1523.00, 
1524.00, 
1525.00, 
1526.00, 
1527.00, 
1528.00, 
1529.00, 
1530.00, 
1531.00, 
1532.00, 
1533.00, 
1534.00, 
1535.00, 
1536.00, 
1537.00, 
1538.00, 
1539.00, 
1540.00, 
1541.00, 
1542.00, 
1543.00, 
1544.00, 
1545.00, 
1546.00, 
1547.00, 
1548.00, 
1549.00, 
1550.00, 
1551.00, 
1552.00, 
1553.00, 
1554.00, 
1555.00, 
1556.00, 
1557.00, 
1558.00, 
1559.00, 
1560.00, 
1561.00, 
1562.00, 
1563.00, 
1564.00, 
1565.00, 
1566.00, 
1567.00, 
1568.00, 
1569.00, 
1570.00, 
1571.00, 
1572.00, 
1573.00, 
1574.00, 
1575.00, 
1576.00, 
1577.00, 
1578.00, 
1579.00, 
1580.00, 
1581.00, 
1582.00, 
1583.00, 
1584.00, 
1585.00, 
1586.00, 
1587.00, 
1588.00, 
1589.00, 
1590.00, 
1591.00, 
1592.00, 
1593.00, 
1594.00, 
1595.00, 
1596.00, 
1597.00, 
1598.00, 
1599.00, 
1600.00, 
1601.00, 
1602.00, 
1603.00, 
1604.00, 
1605.00, 
1606.00, 
1607.00, 
1608.00, 
1609.00, 
1610.00, 
1611.00, 
1612.00, 
1613.00, 
1614.00, 
1615.00, 
1616.00, 
1617.00, 
1618.00, 
1619.00, 
1620.00, 
1621.00, 
1622.00, 
1623.00, 
1624.00, 
1625.00, 
1626.00, 
1627.00, 
1628.00, 
1629.00, 
1630.00, 
1631.00, 
1632.00, 
1633.00, 
1634.00, 
1635.00, 
1636.00, 
1637.00, 
1638.00, 
1639.00, 
1640.00, 
1641.00, 
1642.00, 
1643.00, 
1644.00, 
1645.00, 
1646.00, 
1647.00, 
1648.00, 
1649.00, 
1650.00, 
1651.00, 
1652.00, 
1653.00, 
1654.00, 
1655.00, 
1656.00, 
1657.00, 
1658.00, 
1659.00, 
1660.00, 
1661.00, 
1662.00, 
1663.00, 
1664.00, 
1665.00, 
1666.00, 
1667.00, 
1668.00, 
1669.00, 
1670.00, 
1671.00, 
1672.00, 
1673.00, 
1674.00, 
1675.00, 
1676.00, 
1677.00, 
1678.00, 
1679.00, 
1680.00, 
1681.00, 
1682.00, 
1683.00, 
1684.00, 
1685.00, 
1686.00, 
1687.00, 
1688.00, 
1689.00, 
1690.00, 
1691.00, 
1692.00, 
1693.00, 
1694.00, 
1695.00, 
1696.00, 
1697.00, 
1698.00, 
1699.00, 
1700.00, 
1701.00, 
1702.00, 
1703.00, 
1704.00, 
1705.00, 
1706.00, 
1707.00, 
1708.00, 
1709.00, 
1710.00, 
1711.00, 
1712.00, 
1713.00, 
1714.00, 
1715.00, 
1716.00, 
1717.00, 
1718.00, 
1719.00, 
1720.00, 
1721.00, 
1722.00, 
1723.00, 
1724.00, 
1725.00, 
1726.00, 
1727.00, 
1728.00, 
1729.00, 
1730.00, 
1731.00, 
1732.00, 
1733.00, 
1734.00, 
1735.00, 
1736.00, 
1737.00, 
1738.00, 
1739.00, 
1740.00, 
1741.00, 
1742.00, 
1743.00, 
1744.00, 
1745.00, 
1746.00, 
1747.00, 
1748.00, 
1749.00, 
1750.00, 
1751.00, 
1752.00, 
1753.00, 
1754.00, 
1755.00, 
1756.00, 
1757.00, 
1758.00, 
1759.00, 
1760.00, 
1761.00, 
1762.00, 
1763.00, 
1764.00, 
1765.00, 
1766.00, 
1767.00, 
1768.00, 
1769.00, 
1770.00, 
1771.00, 
1772.00, 
1773.00, 
1774.00, 
1775.00, 
1776.00, 
1777.00, 
1778.00, 
1779.00, 
1780.00, 
1781.00, 
1782.00, 
1783.00, 
1784.00, 
1785.00, 
1786.00, 
1787.00, 
1788.00, 
1789.00, 
1790.00, 
1791.00, 
1792.00, 
1793.00, 
1794.00, 
1795.00, 
1796.00, 
1797.00, 
1798.00, 
1799.00, 
1800.00, 
1801.00, 
1802.00, 
1803.00, 
1804.00, 
1805.00, 
1806.00, 
1807.00, 
1808.00, 
1809.00, 
1810.00, 
1811.00, 
1812.00, 
1813.00, 
1814.00, 
1815.00, 
1816.00, 
1817.00, 
1818.00, 
1819.00, 
1820.00, 
1821.00, 
1822.00, 
1823.00, 
1824.00, 
1825.00, 
1826.00, 
1827.00, 
1828.00, 
1829.00, 
1830.00, 
1831.00, 
1832.00, 
1833.00, 
1834.00, 
1835.00, 
1836.00, 
1837.00, 
1838.00, 
1839.00, 
1840.00, 
1841.00, 
1842.00, 
1843.00, 
1844.00, 
1845.00, 
1846.00, 
1847.00, 
1848.00, 
1849.00, 
1850.00, 
1851.00, 
1852.00, 
1853.00, 
1854.00, 
1855.00, 
1856.00, 
1857.00, 
1858.00, 
1859.00, 
1860.00, 
1861.00, 
1862.00, 
1863.00, 
1864.00, 
1865.00, 
1866.00, 
1867.00, 
1868.00, 
1869.00, 
1870.00, 
1871.00, 
1872.00, 
1873.00, 
1874.00, 
1875.00, 
1876.00, 
1877.00, 
1878.00, 
1879.00, 
1880.00, 
1881.00, 
1882.00, 
1883.00, 
1884.00, 
1885.00, 
1886.00, 
1887.00, 
1888.00, 
1889.00, 
1890.00, 
1891.00, 
1892.00, 
1893.00, 
1894.00, 
1895.00, 
1896.00, 
1897.00, 
1898.00, 
1899.00, 
1900.00, 
1901.00, 
1902.00, 
1903.00, 
1904.00, 
1905.00, 
1906.00, 
1907.00, 
1908.00, 
1909.00, 
1910.00, 
1911.00, 
1912.00, 
1913.00, 
1914.00, 
1915.00, 
1916.00, 
1917.00, 
1918.00, 
1919.00, 
1920.00, 
1921.00, 
1922.00, 
1923.00, 
1924.00, 
1925.00, 
1926.00, 
1927.00, 
1928.00, 
1929.00, 
1930.00, 
1931.00, 
1932.00, 
1933.00, 
1934.00, 
1935.00, 
1936.00, 
1937.00, 
1938.00, 
1939.00, 
1940.00, 
1941.00, 
1942.00, 
1943.00, 
1944.00, 
1945.00, 
1946.00, 
1947.00, 
1948.00, 
1949.00, 
1950.00, 
1951.00, 
1952.00, 
1953.00, 
1954.00, 
1955.00, 
1956.00, 
1957.00, 
1958.00, 
1959.00, 
1960.00, 
1961.00, 
1962.00, 
1963.00, 
1964.00, 
1965.00, 
1966.00, 
1967.00, 
1968.00, 
1969.00, 
1970.00, 
1971.00, 
1972.00, 
1973.00, 
1974.00, 
1975.00, 
1976.00, 
1977.00, 
1978.00, 
1979.00, 
1980.00, 
1981.00, 
1982.00, 
1983.00, 
1984.00, 
1985.00, 
1986.00, 
1987.00, 
1988.00, 
1989.00, 
1990.00, 
1991.00, 
1992.00, 
1993.00, 
1994.00, 
1995.00, 
1996.00, 
1997.00, 
1998.00, 
1999.00, 
2000.00, 
2001.00, 
2002.00, 
2003.00, 
2004.00, 
2005.00, 
2006.00, 
2007.00, 
2008.00, 
2009.00, 
2010.00, 
2011.00, 
2012.00, 
2013.00, 
2014.00, 
2015.00, 
2016.00, 
2017.00, 
2018.00, 
2019.00, 
2020.00, 
2021.00, 
2022.00, 
2023.00, 
2024.00, 
2025.00, 
2026.00, 
2027.00, 
2028.00, 
2029.00, 
2030.00, 
2031.00, 
2032.00, 
2033.00, 
2034.00, 
2035.00, 
2036.00, 
2037.00, 
2038.00, 
2039.00, 
2040.00, 
2041.00, 
2042.00, 
2043.00, 
2044.00, 
2045.00, 
2046.00, 
2047.00, 
2048.00, 
2049.00, 
2050.00, 
2051.00, 
2052.00, 
2053.00, 
2054.00, 
2055.00, 
2056.00, 
2057.00, 
2058.00, 
2059.00, 
2060.00, 
2061.00, 
2062.00, 
2063.00, 
2064.00, 
2065.00, 
2066.00, 
2067.00, 
2068.00, 
2069.00, 
2070.00, 
2071.00, 
2072.00, 
2073.00, 
2074.00, 
2075.00, 
2076.00, 
2077.00, 
2078.00, 
2079.00, 
2080.00, 
2081.00, 
2082.00, 
2083.00, 
2084.00, 
2085.00, 
2086.00, 
2087.00, 
2088.00, 
2089.00, 
2090.00, 
2091.00, 
2092.00, 
2093.00, 
2094.00, 
2095.00, 
2096.00, 
2097.00, 
2098.00, 
2099.00, 
2100.00, 
2101.00, 
2102.00, 
2103.00, 
2104.00, 
2105.00, 
2106.00, 
2107.00, 
2108.00, 
2109.00, 
2110.00, 
2111.00, 
2112.00, 
2113.00, 
2114.00, 
2115.00, 
2116.00, 
2117.00, 
2118.00, 
2119.00, 
2120.00, 
2121.00, 
2122.00, 
2123.00, 
2124.00, 
2125.00, 
2126.00, 
2127.00, 
2128.00, 
2129.00, 
2130.00, 
2131.00, 
2132.00, 
2133.00, 
2134.00, 
2135.00, 
2136.00, 
2137.00, 
2138.00, 
2139.00, 
2140.00, 
2141.00, 
2142.00, 
2143.00, 
2144.00, 
2145.00, 
2146.00, 
2147.00, 
2148.00, 
2149.00, 
2150.00, 
2151.00, 
2152.00, 
2153.00, 
2154.00, 
2155.00, 
2156.00, 
2157.00, 
2158.00, 
2159.00, 
2160.00, 
2161.00, 
2162.00, 
2163.00, 
2164.00, 
2165.00, 
2166.00, 
2167.00, 
2168.00, 
2169.00, 
2170.00, 
2171.00, 
2172.00, 
2173.00, 
2174.00, 
2175.00, 
2176.00, 
2177.00, 
2178.00, 
2179.00, 
2180.00, 
2181.00, 
2182.00, 
2183.00, 
2184.00, 
2185.00, 
2186.00, 
2187.00, 
2188.00, 
2189.00, 
2190.00, 
2191.00, 
2192.00, 
2193.00, 
2194.00, 
2195.00, 
2196.00, 
2197.00, 
2198.00, 
2199.00, 
2200.00, 
2201.00, 
2202.00, 
2203.00, 
2204.00, 
2205.00, 
2206.00, 
2207.00, 
2208.00, 
2209.00, 
2210.00, 
2211.00, 
2212.00, 
2213.00, 
2214.00, 
2215.00, 
2216.00, 
2217.00, 
2218.00, 
2219.00, 
2220.00, 
2221.00, 
2222.00, 
2223.00, 
2224.00, 
2225.00, 
2226.00, 
2227.00, 
2228.00, 
2229.00, 
2230.00, 
2231.00, 
2232.00, 
2233.00, 
2234.00, 
2235.00, 
2236.00, 
2237.00, 
2238.00, 
2239.00, 
2240.00, 
2241.00, 
2242.00, 
2243.00, 
2244.00, 
2245.00, 
2246.00, 
2247.00, 
2248.00, 
2249.00, 
2250.00, 
2251.00, 
2252.00, 
2253.00, 
2254.00, 
2255.00, 
2256.00, 
2257.00, 
2258.00, 
2259.00, 
2260.00, 
2261.00, 
2262.00, 
2263.00, 
2264.00, 
2265.00, 
2266.00, 
2267.00, 
2268.00, 
2269.00, 
2270.00, 
2271.00, 
2272.00, 
2273.00, 
2274.00, 
2275.00, 
2276.00, 
2277.00, 
2278.00, 
2279.00, 
2280.00, 
2281.00, 
2282.00, 
2283.00, 
2284.00, 
2285.00, 
2286.00, 
2287.00, 
2288.00, 
2289.00, 
2290.00, 
2291.00, 
2292.00, 
2293.00, 
2294.00, 
2295.00, 
2296.00, 
2297.00, 
2298.00, 
2299.00, 
2300.00, 
2301.00, 
2302.00, 
2303.00, 
2304.00, 
2305.00, 
2306.00, 
2307.00, 
2308.00, 
2309.00, 
2310.00, 
2311.00, 
2312.00, 
2313.00, 
2314.00, 
2315.00, 
2316.00, 
2317.00, 
2318.00, 
2319.00, 
2320.00, 
2321.00, 
2322.00, 
2323.00, 
2324.00, 
2325.00, 
2326.00, 
2327.00, 
2328.00, 
2329.00, 
2330.00, 
2331.00, 
2332.00, 
2333.00, 
2334.00, 
2335.00, 
2336.00, 
2337.00, 
2338.00, 
2339.00, 
2340.00, 
2341.00, 
2342.00, 
2343.00, 
2344.00, 
2345.00, 
2346.00, 
2347.00, 
2348.00, 
2349.00, 
2350.00, 
2351.00, 
2352.00, 
2353.00, 
2354.00, 
2355.00, 
2356.00, 
2357.00, 
2358.00, 
2359.00, 
2360.00, 
2361.00, 
2362.00, 
2363.00, 
2364.00, 
2365.00, 
2366.00, 
2367.00, 
2368.00, 
2369.00, 
2370.00, 
2371.00, 
2372.00, 
2373.00, 
2374.00, 
2375.00, 
2376.00, 
2377.00, 
2378.00, 
2379.00, 
2380.00, 
2381.00, 
2382.00, 
2383.00, 
2384.00, 
2385.00, 
2386.00, 
2387.00, 
2388.00, 
2389.00, 
2390.00, 
2391.00, 
2392.00, 
2393.00, 
2394.00, 
2395.00, 
2396.00, 
2397.00, 
2398.00, 
2399.00, 
2400.00, 
2401.00, 
2402.00, 
2403.00, 
2404.00, 
2405.00, 
2406.00, 
2407.00, 
2408.00, 
2409.00, 
2410.00, 
2411.00, 
2412.00, 
2413.00, 
2414.00, 
2415.00, 
2416.00, 
2417.00, 
2418.00, 
2419.00, 
2420.00, 
2421.00, 
2422.00, 
2423.00, 
2424.00, 
2425.00, 
2426.00, 
2427.00, 
2428.00, 
2429.00, 
2430.00, 
2431.00, 
2432.00, 
2433.00, 
2434.00, 
2435.00, 
2436.00, 
2437.00, 
2438.00, 
2439.00, 
2440.00, 
2441.00, 
2442.00, 
2443.00, 
2444.00, 
2445.00, 
2446.00, 
2447.00, 
2448.00, 
2449.00, 
2450.00, 
2451.00, 
2452.00, 
2453.00, 
2454.00, 
2455.00, 
2456.00, 
2457.00, 
2458.00, 
2459.00, 
2460.00, 
2461.00, 
2462.00, 
2463.00, 
2464.00, 
2465.00, 
2466.00, 
2467.00, 
2468.00, 
2469.00, 
2470.00, 
2471.00, 
2472.00, 
2473.00, 
2474.00, 
2475.00, 
2476.00, 
2477.00, 
2478.00, 
2479.00, 
2480.00, 
2481.00, 
2482.00, 
2483.00, 
2484.00, 
2485.00, 
2486.00, 
2487.00, 
2488.00, 
2489.00, 
2490.00, 
2491.00, 
2492.00, 
2493.00, 
2494.00, 
2495.00, 
2496.00, 
2497.00, 
2498.00, 
2499.00, 
2500.00, 
2501.00, 
2502.00, 
2503.00, 
2504.00, 
2505.00, 
2506.00, 
2507.00, 
2508.00, 
2509.00, 
2510.00, 
2511.00, 
2512.00, 
2513.00, 
2514.00, 
2515.00, 
2516.00, 
2517.00, 
2518.00, 
2519.00, 
2520.00, 
2521.00, 
2522.00, 
2523.00, 
2524.00, 
2525.00, 
2526.00, 
2527.00, 
2528.00, 
2529.00, 
2530.00, 
2531.00, 
2532.00, 
2533.00, 
2534.00, 
2535.00, 
2536.00, 
2537.00, 
2538.00, 
2539.00, 
2540.00, 
2541.00, 
2542.00, 
2543.00, 
2544.00, 
2545.00, 
2546.00, 
2547.00, 
2548.00, 
2549.00, 
2550.00, 
2551.00, 
2552.00, 
2553.00, 
2554.00, 
2555.00, 
2556.00, 
2557.00, 
2558.00, 
2559.00, 
2560.00, 
2561.00, 
2562.00, 
2563.00, 
2564.00, 
2565.00, 
2566.00, 
2567.00, 
2568.00, 
2569.00, 
2570.00, 
2571.00, 
2572.00, 
2573.00, 
2574.00, 
2575.00, 
2576.00, 
2577.00, 
2578.00, 
2579.00, 
2580.00, 
2581.00, 
2582.00, 
2583.00, 
2584.00, 
2585.00, 
2586.00, 
2587.00, 
2588.00, 
2589.00, 
2590.00, 
2591.00, 
2592.00, 
2593.00, 
2594.00, 
2595.00, 
2596.00, 
2597.00, 
2598.00, 
2599.00, 
2600.00, 
