"1aP2 - RawData"
"Wavelength nm.","T%"
200.00,0.002
201.00,0.001
202.00,0.006
203.00,-0.002
204.00,0.000
205.00,0.004
206.00,0.003
207.00,0.001
208.00,0.002
209.00,-0.002
210.00,0.001
211.00,0.002
212.00,0.001
213.00,-0.000
214.00,0.002
215.00,0.001
216.00,0.000
217.00,0.003
218.00,0.002
219.00,-0.000
220.00,0.001
221.00,-0.003
222.00,-0.001
223.00,-0.001
224.00,-0.001
225.00,0.002
226.00,0.002
227.00,-0.001
228.00,-0.001
229.00,0.002
230.00,0.001
231.00,0.002
232.00,0.002
233.00,0.000
234.00,0.001
235.00,0.001
236.00,0.001
237.00,-0.001
238.00,0.000
239.00,0.001
240.00,-0.001
241.00,0.003
242.00,0.002
243.00,0.001
244.00,-0.001
245.00,-0.000
246.00,0.000
247.00,0.001
248.00,0.001
249.00,0.001
250.00,-0.000
251.00,0.001
252.00,0.000
253.00,-0.001
254.00,-0.002
255.00,0.003
256.00,0.001
257.00,-0.002
258.00,-0.001
259.00,0.002
260.00,-0.001
261.00,0.001
262.00,-0.001
263.00,0.001
264.00,0.001
265.00,-0.000
266.00,-0.001
267.00,0.001
268.00,0.002
269.00,-0.001
270.00,-0.000
271.00,0.000
272.00,0.000
273.00,0.001
274.00,-0.001
275.00,0.000
276.00,0.000
277.00,0.001
278.00,0.001
279.00,0.000
280.00,0.001
281.00,-0.000
282.00,0.001
283.00,0.001
284.00,0.001
285.00,0.001
286.00,-0.002
287.00,-0.001
288.00,0.000
289.00,0.001
290.00,-0.001
291.00,-0.000
292.00,0.001
293.00,-0.000
294.00,0.000
295.00,-0.000
296.00,-0.000
297.00,0.000
298.00,0.003
299.00,0.003
300.00,0.003
301.00,0.006
302.00,0.009
303.00,0.012
304.00,0.022
305.00,0.034
306.00,0.049
307.00,0.075
308.00,0.113
309.00,0.180
310.00,0.243
311.00,0.335
312.00,0.454
313.00,0.612
314.00,0.800
315.00,1.018
316.00,1.231
317.00,1.621
318.00,1.987
319.00,2.420
320.00,2.924
321.00,3.478
322.00,4.088
323.00,4.765
324.00,5.481
325.00,6.217
326.00,6.984
327.00,7.710
328.00,8.602
329.00,9.505
330.00,10.384
331.00,11.252
332.00,12.158
333.00,13.075
334.00,13.980
335.00,14.906
336.00,15.793
337.00,16.735
338.00,17.560
339.00,18.380
340.00,19.177
341.00,19.963
342.00,20.532
343.00,21.382
344.00,22.055
345.00,22.722
346.00,23.288
347.00,23.935
348.00,24.409
349.00,24.955
350.00,25.382
351.00,25.826
352.00,26.211
353.00,26.600
354.00,26.992
355.00,27.298
356.00,27.584
357.00,27.870
358.00,28.172
359.00,28.442
360.00,28.725
361.00,28.820
362.00,29.016
363.00,29.275
364.00,29.384
365.00,29.541
366.00,29.683
367.00,29.705
368.00,29.806
369.00,29.893
370.00,29.897
371.00,29.968
372.00,29.925
373.00,29.968
374.00,29.995
375.00,29.899
376.00,29.838
377.00,29.793
378.00,29.631
379.00,29.689
380.00,29.673
381.00,29.667
382.00,29.658
383.00,29.681
384.00,29.708
385.00,29.785
386.00,29.795
387.00,29.886
388.00,29.973
389.00,30.007
390.00,30.066
391.00,30.049
392.00,30.122
393.00,30.154
394.00,30.128
395.00,30.189
396.00,30.188
397.00,30.206
398.00,30.245
399.00,30.214
400.00,30.235
401.00,30.250
402.00,30.237
403.00,30.258
404.00,30.252
405.00,30.238
406.00,30.278
407.00,30.191
408.00,30.229
409.00,30.150
410.00,30.101
411.00,30.076
412.00,30.076
413.00,30.095
414.00,30.037
415.00,30.106
416.00,30.107
417.00,30.117
418.00,30.128
419.00,30.234
420.00,30.244
421.00,30.341
422.00,30.371
423.00,30.386
424.00,30.412
425.00,30.463
426.00,30.533
427.00,30.509
428.00,30.583
429.00,30.586
430.00,30.672
431.00,30.705
432.00,30.758
433.00,30.837
434.00,30.849
435.00,30.940
436.00,31.014
437.00,31.092
438.00,31.155
439.00,31.204
440.00,31.309
441.00,31.342
442.00,31.433
443.00,31.508
444.00,31.621
445.00,31.653
446.00,31.753
447.00,31.874
448.00,31.990
449.00,32.080
450.00,32.178
451.00,32.298
452.00,32.367
453.00,32.474
454.00,32.599
455.00,32.675
456.00,32.794
457.00,32.891
458.00,33.004
459.00,33.135
460.00,33.256
461.00,33.347
462.00,33.478
463.00,33.638
464.00,33.733
465.00,33.871
466.00,34.023
467.00,34.132
468.00,34.213
469.00,34.359
470.00,34.420
471.00,34.493
472.00,34.632
473.00,34.668
474.00,34.789
475.00,34.903
476.00,34.946
477.00,35.068
478.00,35.187
479.00,35.344
480.00,35.458
481.00,35.553
482.00,35.746
483.00,35.835
484.00,35.942
485.00,36.166
486.00,36.287
487.00,36.439
488.00,36.494
489.00,36.689
490.00,36.753
491.00,36.882
492.00,37.170
493.00,37.220
494.00,37.134
495.00,37.404
496.00,37.532
497.00,37.627
498.00,37.761
499.00,37.870
500.00,37.992
501.00,38.093
502.00,38.186
503.00,38.283
504.00,38.418
505.00,38.470
506.00,38.555
507.00,38.709
508.00,38.841
509.00,38.890
510.00,38.975
511.00,39.113
512.00,39.191
513.00,39.299
514.00,39.488
515.00,39.598
516.00,39.648
517.00,39.743
518.00,39.875
519.00,39.910
520.00,40.029
521.00,40.072
522.00,40.070
523.00,40.177
524.00,40.226
525.00,40.332
526.00,40.442
527.00,40.480
528.00,40.561
529.00,40.617
530.00,40.759
531.00,40.937
532.00,40.918
533.00,41.048
534.00,41.147
535.00,41.153
536.00,41.256
537.00,41.326
538.00,41.296
539.00,41.437
540.00,41.421
541.00,41.453
542.00,41.479
543.00,41.537
544.00,41.623
545.00,41.631
546.00,41.706
547.00,41.750
548.00,41.826
549.00,41.916
550.00,41.892
551.00,41.934
552.00,42.068
553.00,42.130
554.00,42.345
555.00,42.302
556.00,42.335
557.00,42.418
558.00,42.478
559.00,42.526
560.00,42.568
561.00,42.631
562.00,42.687
563.00,42.682
564.00,42.732
565.00,42.769
566.00,42.788
567.00,42.858
568.00,42.842
569.00,42.853
570.00,42.856
571.00,42.907
572.00,42.975
573.00,42.860
574.00,42.919
575.00,42.926
576.00,42.913
577.00,42.989
578.00,42.973
579.00,43.056
580.00,43.164
581.00,43.211
582.00,43.275
583.00,43.293
584.00,43.352
585.00,43.511
586.00,43.510
587.00,43.596
588.00,43.543
589.00,43.530
590.00,43.661
591.00,43.631
592.00,43.597
593.00,43.648
594.00,43.703
595.00,43.738
596.00,43.810
597.00,43.853
598.00,43.981
599.00,43.910
600.00,44.023
601.00,44.035
602.00,44.049
603.00,44.098
604.00,44.030
605.00,44.178
606.00,44.116
607.00,44.184
608.00,44.237
609.00,44.231
610.00,44.342
611.00,44.299
612.00,44.300
613.00,44.372
614.00,44.402
615.00,44.451
616.00,44.532
617.00,44.474
618.00,44.511
619.00,44.590
620.00,44.591
621.00,44.613
622.00,44.672
623.00,44.726
624.00,44.851
625.00,44.905
626.00,44.899
627.00,44.909
628.00,44.954
629.00,44.976
630.00,44.938
631.00,45.032
632.00,45.135
633.00,45.157
634.00,45.239
635.00,45.328
636.00,45.339
637.00,45.301
638.00,45.386
639.00,45.607
640.00,45.472
641.00,45.602
642.00,45.627
643.00,45.740
644.00,45.806
645.00,45.806
646.00,45.938
647.00,45.939
648.00,45.861
649.00,46.099
650.00,46.074
651.00,46.042
652.00,46.088
653.00,46.282
654.00,46.218
655.00,46.404
656.00,46.479
657.00,46.775
658.00,46.879
659.00,46.651
660.00,46.655
661.00,46.582
662.00,46.982
663.00,46.899
664.00,46.934
665.00,47.149
666.00,47.138
667.00,47.282
668.00,47.195
669.00,47.446
670.00,47.526
671.00,47.508
672.00,47.330
673.00,47.674
674.00,47.701
675.00,47.737
676.00,47.782
677.00,47.868
678.00,47.699
679.00,47.900
680.00,48.055
681.00,48.123
682.00,48.071
683.00,48.091
684.00,48.441
685.00,48.375
686.00,48.335
687.00,48.492
688.00,48.611
689.00,48.456
690.00,48.597
691.00,48.781
692.00,48.717
693.00,48.474
694.00,48.728
695.00,49.071
696.00,49.008
697.00,49.063
698.00,49.103
699.00,49.239
700.00,49.215
701.00,49.260
702.00,49.384
703.00,49.501
704.00,49.546
705.00,49.482
706.00,49.506
707.00,49.789
708.00,49.488
709.00,49.709
710.00,50.028
711.00,49.744
712.00,49.744
713.00,49.915
714.00,49.890
715.00,49.854
716.00,50.007
717.00,50.036
718.00,50.197
719.00,50.159
720.00,50.174
721.00,54.504
722.00,54.556
723.00,54.521
724.00,54.515
725.00,54.622
726.00,54.564
727.00,54.544
728.00,54.616
729.00,54.553
730.00,54.588
731.00,54.594
732.00,54.584
733.00,54.657
734.00,54.558
735.00,54.655
736.00,54.618
737.00,54.630
738.00,54.686
739.00,54.674
740.00,54.654
741.00,54.628
742.00,54.732
743.00,54.590
744.00,54.718
745.00,54.653
746.00,54.687
747.00,54.610
748.00,54.515
749.00,54.659
750.00,54.622
751.00,54.575
752.00,54.570
753.00,54.581
754.00,54.595
755.00,54.535
756.00,54.546
757.00,54.552
758.00,54.498
759.00,54.529
760.00,54.490
761.00,54.494
762.00,54.415
763.00,54.506
764.00,54.415
765.00,54.476
766.00,54.513
767.00,54.508
768.00,54.498
769.00,54.461
770.00,54.519
771.00,54.512
772.00,54.498
773.00,54.485
774.00,54.564
775.00,54.521
776.00,54.450
777.00,54.559
778.00,54.395
779.00,54.473
780.00,54.465
781.00,54.402
782.00,54.488
783.00,54.479
784.00,54.384
785.00,54.306
786.00,54.391
787.00,54.390
788.00,54.373
789.00,54.360
790.00,54.274
791.00,54.363
792.00,54.304
793.00,54.295
794.00,54.172
795.00,54.213
796.00,54.227
797.00,54.097
798.00,54.201
799.00,54.052
800.00,54.137
801.00,54.085
802.00,54.020
803.00,54.115
804.00,54.025
805.00,54.079
806.00,54.046
807.00,54.052
808.00,53.972
809.00,54.028
810.00,53.919
811.00,53.978
812.00,53.895
813.00,53.911
814.00,53.890
815.00,53.930
816.00,53.911
817.00,53.878
818.00,53.701
819.00,53.709
820.00,53.700
821.00,53.658
822.00,53.732
823.00,53.640
824.00,53.721
825.00,53.606
826.00,53.666
827.00,53.722
828.00,53.575
829.00,53.651
830.00,53.753
831.00,56.109
832.00,56.155
833.00,56.065
834.00,56.117
835.00,56.019
836.00,56.035
837.00,56.009
838.00,55.996
839.00,55.967
840.00,55.931
841.00,55.951
842.00,55.926
843.00,55.896
844.00,55.903
845.00,55.831
846.00,55.849
847.00,55.806
848.00,55.837
849.00,55.747
850.00,55.742
851.00,55.691
852.00,55.697
853.00,55.622
854.00,55.646
855.00,55.535
856.00,55.568
857.00,55.530
858.00,55.514
859.00,55.512
860.00,55.483
861.00,55.458
862.00,55.432
863.00,55.491
864.00,55.370
865.00,55.444
866.00,55.438
867.00,55.408
868.00,55.406
869.00,55.323
870.00,55.554
871.00,55.352
872.00,55.323
873.00,55.325
874.00,55.322
875.00,55.290
876.00,55.299
877.00,55.278
878.00,55.290
879.00,55.232
880.00,55.228
881.00,55.234
882.00,55.260
883.00,55.232
884.00,55.163
885.00,55.097
886.00,55.274
887.00,55.114
888.00,55.093
889.00,55.097
890.00,55.106
891.00,55.056
892.00,55.043
893.00,55.016
894.00,55.001
895.00,54.974
896.00,54.983
897.00,54.933
898.00,54.923
899.00,54.913
900.00,54.888
901.00,54.886
902.00,54.909
903.00,54.864
904.00,54.868
905.00,54.831
906.00,54.871
907.00,54.747
908.00,54.777
909.00,54.767
910.00,54.725
911.00,54.735
912.00,54.725
913.00,54.683
914.00,54.671
915.00,54.625
916.00,54.621
917.00,54.599
918.00,54.595
919.00,54.558
920.00,54.541
921.00,54.531
922.00,54.488
923.00,54.463
924.00,54.458
925.00,54.483
926.00,54.454
927.00,54.429
928.00,54.411
929.00,54.400
930.00,54.380
931.00,54.367
932.00,54.307
933.00,54.332
934.00,54.296
935.00,54.296
936.00,54.270
937.00,54.258
938.00,54.233
939.00,54.233
940.00,54.204
941.00,54.220
942.00,54.187
943.00,54.165
944.00,54.133
945.00,54.141
946.00,54.112
947.00,54.068
948.00,54.055
949.00,54.028
950.00,54.031
951.00,53.989
952.00,53.975
953.00,53.961
954.00,53.923
955.00,53.883
956.00,53.878
957.00,53.861
958.00,53.884
959.00,53.808
960.00,53.807
961.00,53.806
962.00,53.804
963.00,53.759
964.00,53.775
965.00,53.753
966.00,53.731
967.00,53.729
968.00,53.718
969.00,53.724
970.00,53.692
971.00,53.750
972.00,53.684
973.00,53.735
974.00,53.753
975.00,53.720
976.00,53.739
977.00,53.731
978.00,53.773
979.00,53.710
980.00,53.735
981.00,53.739
982.00,53.718
983.00,53.737
984.00,53.712
985.00,53.731
986.00,53.696
987.00,53.714
988.00,53.664
989.00,53.664
990.00,53.666
991.00,53.653
992.00,53.667
993.00,53.625
994.00,53.617
995.00,53.602
996.00,53.602
997.00,53.582
998.00,53.565
999.00,53.567
1000.00,53.528
1001.00,53.513
1002.00,53.540
1003.00,53.557
1004.00,53.503
1005.00,53.478
1006.00,53.505
1007.00,53.472
1008.00,53.471
1009.00,53.443
1010.00,53.439
1011.00,53.431
1012.00,53.397
1013.00,53.411
1014.00,53.379
1015.00,53.392
1016.00,53.363
1017.00,53.348
1018.00,53.348
1019.00,53.343
1020.00,53.303
1021.00,53.280
1022.00,53.283
1023.00,53.240
1024.00,53.257
1025.00,53.228
1026.00,53.223
1027.00,53.187
1028.00,53.181
1029.00,53.168
1030.00,53.140
1031.00,53.138
1032.00,53.098
1033.00,53.112
1034.00,53.082
1035.00,53.049
1036.00,53.029
1037.00,53.021
1038.00,52.999
1039.00,52.969
1040.00,52.967
1041.00,52.932
1042.00,52.927
1043.00,52.905
1044.00,52.944
1045.00,52.908
1046.00,52.910
1047.00,52.934
1048.00,52.948
1049.00,52.965
1050.00,52.952
1051.00,53.003
1052.00,53.013
1053.00,52.999
1054.00,52.997
1055.00,53.018
1056.00,53.022
1057.00,53.034
1058.00,53.019
1059.00,53.022
1060.00,53.022
1061.00,53.000
1062.00,52.999
1063.00,53.011
1064.00,52.994
1065.00,52.981
1066.00,52.990
1067.00,52.983
1068.00,53.015
1069.00,52.980
1070.00,52.972
1071.00,52.945
1072.00,52.960
1073.00,52.933
1074.00,52.937
1075.00,52.922
1076.00,52.938
1077.00,52.933
1078.00,52.900
1079.00,52.903
1080.00,52.905
1081.00,52.895
1082.00,52.907
1083.00,52.889
1084.00,52.885
1085.00,52.882
1086.00,52.853
1087.00,52.863
1088.00,52.869
1089.00,52.848
1090.00,52.843
1091.00,52.842
1092.00,52.829
1093.00,52.806
1094.00,52.783
1095.00,52.772
1096.00,52.760
1097.00,52.741
1098.00,52.753
1099.00,52.748
1100.00,52.739
1101.00,52.749
1102.00,52.729
1103.00,52.729
1104.00,52.712
1105.00,52.687
1106.00,52.671
1107.00,52.662
1108.00,52.652
1109.00,52.649
1110.00,52.664
1111.00,52.645
1112.00,52.636
1113.00,52.638
1114.00,52.635
1115.00,52.655
1116.00,52.640
1117.00,52.625
1118.00,52.630
1119.00,52.624
1120.00,52.619
1121.00,52.604
1122.00,52.586
1123.00,52.596
1124.00,52.576
1125.00,52.580
1126.00,52.576
1127.00,52.575
1128.00,52.567
1129.00,52.563
1130.00,52.533
1131.00,52.540
1132.00,52.535
1133.00,52.531
1134.00,52.512
1135.00,52.502
1136.00,52.521
1137.00,52.497
1138.00,52.514
1139.00,52.523
1140.00,52.506
1141.00,52.488
1142.00,52.473
1143.00,52.513
1144.00,52.472
1145.00,52.492
1146.00,52.491
1147.00,52.480
1148.00,52.478
1149.00,52.483
1150.00,52.498
1151.00,52.494
1152.00,52.470
1153.00,52.469
1154.00,52.466
1155.00,52.464
1156.00,52.452
1157.00,52.458
1158.00,52.450
1159.00,52.472
1160.00,52.455
1161.00,52.463
1162.00,52.468
1163.00,52.449
1164.00,52.446
1165.00,52.449
1166.00,52.458
1167.00,52.446
1168.00,52.471
1169.00,52.463
1170.00,52.466
1171.00,52.437
1172.00,52.446
1173.00,52.448
1174.00,52.450
1175.00,52.441
1176.00,52.460
1177.00,52.427
1178.00,52.431
1179.00,52.451
1180.00,52.445
1181.00,52.460
1182.00,52.433
1183.00,52.445
1184.00,52.434
1185.00,52.441
1186.00,52.424
1187.00,52.444
1188.00,52.428
1189.00,52.431
1190.00,52.437
1191.00,52.438
1192.00,52.460
1193.00,52.426
1194.00,52.436
1195.00,52.411
1196.00,52.430
1197.00,52.437
1198.00,52.427
1199.00,52.454
1200.00,52.480
1201.00,52.459
1202.00,52.428
1203.00,52.436
1204.00,52.417
1205.00,52.441
1206.00,52.436
1207.00,52.421
1208.00,52.408
1209.00,52.423
1210.00,52.423
1211.00,52.437
1212.00,52.461
1213.00,52.421
1214.00,52.452
1215.00,52.423
1216.00,52.433
1217.00,52.442
1218.00,52.423
1219.00,52.441
1220.00,52.432
1221.00,52.448
1222.00,52.423
1223.00,52.460
1224.00,52.444
1225.00,52.428
1226.00,52.427
1227.00,52.436
1228.00,52.466
1229.00,52.440
1230.00,52.486
1231.00,52.485
1232.00,52.492
1233.00,52.498
1234.00,52.500
1235.00,52.493
1236.00,52.484
1237.00,52.479
1238.00,52.487
1239.00,52.500
1240.00,52.475
1241.00,52.500
1242.00,52.510
1243.00,52.499
1244.00,52.486
1245.00,52.516
1246.00,52.511
1247.00,52.502
1248.00,52.498
1249.00,52.505
1250.00,52.513
1251.00,52.500
1252.00,52.517
1253.00,52.519
1254.00,52.525
1255.00,52.507
1256.00,52.511
1257.00,52.518
1258.00,52.551
1259.00,52.532
1260.00,52.577
1261.00,52.578
1262.00,52.569
1263.00,52.561
1264.00,52.575
1265.00,52.576
1266.00,52.577
1267.00,52.601
1268.00,52.599
1269.00,52.604
1270.00,52.615
1271.00,52.614
1272.00,52.632
1273.00,52.619
1274.00,52.618
1275.00,52.646
1276.00,52.642
1277.00,52.656
1278.00,52.677
1279.00,52.671
1280.00,52.651
1281.00,52.666
1282.00,52.675
1283.00,52.679
1284.00,52.676
1285.00,52.674
1286.00,52.704
1287.00,52.683
1288.00,52.705
1289.00,52.707
1290.00,52.742
1291.00,52.732
1292.00,52.719
1293.00,52.750
1294.00,52.745
1295.00,52.744
1296.00,52.753
1297.00,52.773
1298.00,52.778
1299.00,52.756
1300.00,52.785
1301.00,52.773
1302.00,52.804
1303.00,52.787
1304.00,52.776
1305.00,52.819
1306.00,52.776
1307.00,52.803
1308.00,52.820
1309.00,52.824
1310.00,52.827
1311.00,52.811
1312.00,52.832
1313.00,52.825
1314.00,52.846
1315.00,52.849
1316.00,52.853
1317.00,52.861
1318.00,52.872
1319.00,52.888
1320.00,52.879
1321.00,53.038
1322.00,53.036
1323.00,52.999
1324.00,52.996
1325.00,52.961
1326.00,53.000
1327.00,53.009
1328.00,52.981
1329.00,52.986
1330.00,53.011
1331.00,52.997
1332.00,53.007
1333.00,53.032
1334.00,53.047
1335.00,53.069
1336.00,53.089
1337.00,53.125
1338.00,53.190
1339.00,53.218
1340.00,53.285
1341.00,53.358
1342.00,53.412
1343.00,53.470
1344.00,53.506
1345.00,53.569
1346.00,53.597
1347.00,53.600
1348.00,53.629
1349.00,53.650
1350.00,53.671
1351.00,53.685
1352.00,53.681
1353.00,53.662
1354.00,53.693
1355.00,53.662
1356.00,53.706
1357.00,53.728
1358.00,53.745
1359.00,53.749
1360.00,53.774
1361.00,53.710
1362.00,53.699
1363.00,53.864
1364.00,53.765
1365.00,53.725
1366.00,53.813
1367.00,53.695
1368.00,53.767
1369.00,53.735
1370.00,53.722
1371.00,53.713
1372.00,53.686
1373.00,53.734
1374.00,53.790
1375.00,53.733
1376.00,53.745
1377.00,53.730
1378.00,53.750
1379.00,53.774
1380.00,53.789
1381.00,54.053
1382.00,53.764
1383.00,53.800
1384.00,53.746
1385.00,53.708
1386.00,53.714
1387.00,53.655
1388.00,53.702
1389.00,53.698
1390.00,53.672
1391.00,53.675
1392.00,53.753
1393.00,53.756
1394.00,53.758
1395.00,53.595
1396.00,53.863
1397.00,53.640
1398.00,53.788
1399.00,53.752
1400.00,53.730
1401.00,53.660
1402.00,53.861
1403.00,53.743
1404.00,53.730
1405.00,53.793
1406.00,53.744
1407.00,53.793
1408.00,53.857
1409.00,53.810
1410.00,53.815
1411.00,53.517
1412.00,53.909
1413.00,53.795
1414.00,53.725
1415.00,53.807
1416.00,53.827
1417.00,53.915
1418.00,53.845
1419.00,53.814
1420.00,53.861
1421.00,53.941
1422.00,53.900
1423.00,53.899
1424.00,53.882
1425.00,53.899
1426.00,53.920
1427.00,53.938
1428.00,53.936
1429.00,53.964
1430.00,53.956
1431.00,53.954
1432.00,53.998
1433.00,54.010
1434.00,53.991
1435.00,54.050
1436.00,54.042
1437.00,54.039
1438.00,54.048
1439.00,54.110
1440.00,54.135
1441.00,54.137
1442.00,54.160
1443.00,54.170
1444.00,54.262
1445.00,54.179
1446.00,54.180
1447.00,54.213
1448.00,54.238
1449.00,54.245
1450.00,54.259
1451.00,54.295
1452.00,54.281
1453.00,54.314
1454.00,54.337
1455.00,54.350
1456.00,54.372
1457.00,54.351
1458.00,54.396
1459.00,54.410
1460.00,54.413
1461.00,54.411
1462.00,54.464
1463.00,54.440
1464.00,54.477
1465.00,54.508
1466.00,54.483
1467.00,54.509
1468.00,54.559
1469.00,54.539
1470.00,54.551
1471.00,54.536
1472.00,54.569
1473.00,54.595
1474.00,54.610
1475.00,54.639
1476.00,54.647
1477.00,54.612
1478.00,54.643
1479.00,54.664
1480.00,54.664
1481.00,54.673
1482.00,54.692
1483.00,54.698
1484.00,54.732
1485.00,54.716
1486.00,54.742
1487.00,54.767
1488.00,54.765
1489.00,54.761
1490.00,54.770
1491.00,54.792
1492.00,54.821
1493.00,54.777
1494.00,54.834
1495.00,54.827
1496.00,54.829
1497.00,54.830
1498.00,54.823
1499.00,54.837
1500.00,54.863
1501.00, 
1502.00, 
1503.00, 
1504.00, 
1505.00, 
1506.00, 
1507.00, 
1508.00, 
1509.00, 
1510.00, 
1511.00, 
1512.00, 
1513.00, 
1514.00, 
1515.00, 
1516.00, 
1517.00, 
1518.00, 
1519.00, 
1520.00, 
1521.00, 
1522.00, 
1523.00, 
1524.00, 
1525.00, 
1526.00, 
1527.00, 
1528.00, 
1529.00, 
1530.00, 
1531.00, 
1532.00, 
1533.00, 
1534.00, 
1535.00, 
1536.00, 
1537.00, 
1538.00, 
1539.00, 
1540.00, 
1541.00, 
1542.00, 
1543.00, 
1544.00, 
1545.00, 
1546.00, 
1547.00, 
1548.00, 
1549.00, 
1550.00, 
1551.00, 
1552.00, 
1553.00, 
1554.00, 
1555.00, 
1556.00, 
1557.00, 
1558.00, 
1559.00, 
1560.00, 
1561.00, 
1562.00, 
1563.00, 
1564.00, 
1565.00, 
1566.00, 
1567.00, 
1568.00, 
1569.00, 
1570.00, 
1571.00, 
1572.00, 
1573.00, 
1574.00, 
1575.00, 
1576.00, 
1577.00, 
1578.00, 
1579.00, 
1580.00, 
1581.00, 
1582.00, 
1583.00, 
1584.00, 
1585.00, 
1586.00, 
1587.00, 
1588.00, 
1589.00, 
1590.00, 
1591.00, 
1592.00, 
1593.00, 
1594.00, 
1595.00, 
1596.00, 
1597.00, 
1598.00, 
1599.00, 
1600.00, 
1601.00, 
1602.00, 
1603.00, 
1604.00, 
1605.00, 
1606.00, 
1607.00, 
1608.00, 
1609.00, 
1610.00, 
1611.00, 
1612.00, 
1613.00, 
1614.00, 
1615.00, 
1616.00, 
1617.00, 
1618.00, 
1619.00, 
1620.00, 
1621.00, 
1622.00, 
1623.00, 
1624.00, 
1625.00, 
1626.00, 
1627.00, 
1628.00, 
1629.00, 
1630.00, 
1631.00, 
1632.00, 
1633.00, 
1634.00, 
1635.00, 
1636.00, 
1637.00, 
1638.00, 
1639.00, 
1640.00, 
1641.00, 
1642.00, 
1643.00, 
1644.00, 
1645.00, 
1646.00, 
1647.00, 
1648.00, 
1649.00, 
1650.00, 
1651.00, 
1652.00, 
1653.00, 
1654.00, 
1655.00, 
1656.00, 
1657.00, 
1658.00, 
1659.00, 
1660.00, 
1661.00, 
1662.00, 
1663.00, 
1664.00, 
1665.00, 
1666.00, 
1667.00, 
1668.00, 
1669.00, 
1670.00, 
1671.00, 
1672.00, 
1673.00, 
1674.00, 
1675.00, 
1676.00, 
1677.00, 
1678.00, 
1679.00, 
1680.00, 
1681.00, 
1682.00, 
1683.00, 
1684.00, 
1685.00, 
1686.00, 
1687.00, 
1688.00, 
1689.00, 
1690.00, 
1691.00, 
1692.00, 
1693.00, 
1694.00, 
1695.00, 
1696.00, 
1697.00, 
1698.00, 
1699.00, 
1700.00, 
1701.00, 
1702.00, 
1703.00, 
1704.00, 
1705.00, 
1706.00, 
1707.00, 
1708.00, 
1709.00, 
1710.00, 
1711.00, 
1712.00, 
1713.00, 
1714.00, 
1715.00, 
1716.00, 
1717.00, 
1718.00, 
1719.00, 
1720.00, 
1721.00, 
1722.00, 
1723.00, 
1724.00, 
1725.00, 
1726.00, 
1727.00, 
1728.00, 
1729.00, 
1730.00, 
1731.00, 
1732.00, 
1733.00, 
1734.00, 
1735.00, 
1736.00, 
1737.00, 
1738.00, 
1739.00, 
1740.00, 
1741.00, 
1742.00, 
1743.00, 
1744.00, 
1745.00, 
1746.00, 
1747.00, 
1748.00, 
1749.00, 
1750.00, 
1751.00, 
1752.00, 
1753.00, 
1754.00, 
1755.00, 
1756.00, 
1757.00, 
1758.00, 
1759.00, 
1760.00, 
1761.00, 
1762.00, 
1763.00, 
1764.00, 
1765.00, 
1766.00, 
1767.00, 
1768.00, 
1769.00, 
1770.00, 
1771.00, 
1772.00, 
1773.00, 
1774.00, 
1775.00, 
1776.00, 
1777.00, 
1778.00, 
1779.00, 
1780.00, 
1781.00, 
1782.00, 
1783.00, 
1784.00, 
1785.00, 
1786.00, 
1787.00, 
1788.00, 
1789.00, 
1790.00, 
1791.00, 
1792.00, 
1793.00, 
1794.00, 
1795.00, 
1796.00, 
1797.00, 
1798.00, 
1799.00, 
1800.00, 
1801.00, 
1802.00, 
1803.00, 
1804.00, 
1805.00, 
1806.00, 
1807.00, 
1808.00, 
1809.00, 
1810.00, 
1811.00, 
1812.00, 
1813.00, 
1814.00, 
1815.00, 
1816.00, 
1817.00, 
1818.00, 
1819.00, 
1820.00, 
1821.00, 
1822.00, 
1823.00, 
1824.00, 
1825.00, 
1826.00, 
1827.00, 
1828.00, 
1829.00, 
1830.00, 
1831.00, 
1832.00, 
1833.00, 
1834.00, 
1835.00, 
1836.00, 
1837.00, 
1838.00, 
1839.00, 
1840.00, 
1841.00, 
1842.00, 
1843.00, 
1844.00, 
1845.00, 
1846.00, 
1847.00, 
1848.00, 
1849.00, 
1850.00, 
1851.00, 
1852.00, 
1853.00, 
1854.00, 
1855.00, 
1856.00, 
1857.00, 
1858.00, 
1859.00, 
1860.00, 
1861.00, 
1862.00, 
1863.00, 
1864.00, 
1865.00, 
1866.00, 
1867.00, 
1868.00, 
1869.00, 
1870.00, 
1871.00, 
1872.00, 
1873.00, 
1874.00, 
1875.00, 
1876.00, 
1877.00, 
1878.00, 
1879.00, 
1880.00, 
1881.00, 
1882.00, 
1883.00, 
1884.00, 
1885.00, 
1886.00, 
1887.00, 
1888.00, 
1889.00, 
1890.00, 
1891.00, 
1892.00, 
1893.00, 
1894.00, 
1895.00, 
1896.00, 
1897.00, 
1898.00, 
1899.00, 
1900.00, 
1901.00, 
1902.00, 
1903.00, 
1904.00, 
1905.00, 
1906.00, 
1907.00, 
1908.00, 
1909.00, 
1910.00, 
1911.00, 
1912.00, 
1913.00, 
1914.00, 
1915.00, 
1916.00, 
1917.00, 
1918.00, 
1919.00, 
1920.00, 
1921.00, 
1922.00, 
1923.00, 
1924.00, 
1925.00, 
1926.00, 
1927.00, 
1928.00, 
1929.00, 
1930.00, 
1931.00, 
1932.00, 
1933.00, 
1934.00, 
1935.00, 
1936.00, 
1937.00, 
1938.00, 
1939.00, 
1940.00, 
1941.00, 
1942.00, 
1943.00, 
1944.00, 
1945.00, 
1946.00, 
1947.00, 
1948.00, 
1949.00, 
1950.00, 
1951.00, 
1952.00, 
1953.00, 
1954.00, 
1955.00, 
1956.00, 
1957.00, 
1958.00, 
1959.00, 
1960.00, 
1961.00, 
1962.00, 
1963.00, 
1964.00, 
1965.00, 
1966.00, 
1967.00, 
1968.00, 
1969.00, 
1970.00, 
1971.00, 
1972.00, 
1973.00, 
1974.00, 
1975.00, 
1976.00, 
1977.00, 
1978.00, 
1979.00, 
1980.00, 
1981.00, 
1982.00, 
1983.00, 
1984.00, 
1985.00, 
1986.00, 
1987.00, 
1988.00, 
1989.00, 
1990.00, 
1991.00, 
1992.00, 
1993.00, 
1994.00, 
1995.00, 
1996.00, 
1997.00, 
1998.00, 
1999.00, 
2000.00, 
2001.00, 
2002.00, 
2003.00, 
2004.00, 
2005.00, 
2006.00, 
2007.00, 
2008.00, 
2009.00, 
2010.00, 
2011.00, 
2012.00, 
2013.00, 
2014.00, 
2015.00, 
2016.00, 
2017.00, 
2018.00, 
2019.00, 
2020.00, 
2021.00, 
2022.00, 
2023.00, 
2024.00, 
2025.00, 
2026.00, 
2027.00, 
2028.00, 
2029.00, 
2030.00, 
2031.00, 
2032.00, 
2033.00, 
2034.00, 
2035.00, 
2036.00, 
2037.00, 
2038.00, 
2039.00, 
2040.00, 
2041.00, 
2042.00, 
2043.00, 
2044.00, 
2045.00, 
2046.00, 
2047.00, 
2048.00, 
2049.00, 
2050.00, 
2051.00, 
2052.00, 
2053.00, 
2054.00, 
2055.00, 
2056.00, 
2057.00, 
2058.00, 
2059.00, 
2060.00, 
2061.00, 
2062.00, 
2063.00, 
2064.00, 
2065.00, 
2066.00, 
2067.00, 
2068.00, 
2069.00, 
2070.00, 
2071.00, 
2072.00, 
2073.00, 
2074.00, 
2075.00, 
2076.00, 
2077.00, 
2078.00, 
2079.00, 
2080.00, 
2081.00, 
2082.00, 
2083.00, 
2084.00, 
2085.00, 
2086.00, 
2087.00, 
2088.00, 
2089.00, 
2090.00, 
2091.00, 
2092.00, 
2093.00, 
2094.00, 
2095.00, 
2096.00, 
2097.00, 
2098.00, 
2099.00, 
2100.00, 
2101.00, 
2102.00, 
2103.00, 
2104.00, 
2105.00, 
2106.00, 
2107.00, 
2108.00, 
2109.00, 
2110.00, 
2111.00, 
2112.00, 
2113.00, 
2114.00, 
2115.00, 
2116.00, 
2117.00, 
2118.00, 
2119.00, 
2120.00, 
2121.00, 
2122.00, 
2123.00, 
2124.00, 
2125.00, 
2126.00, 
2127.00, 
2128.00, 
2129.00, 
2130.00, 
2131.00, 
2132.00, 
2133.00, 
2134.00, 
2135.00, 
2136.00, 
2137.00, 
2138.00, 
2139.00, 
2140.00, 
2141.00, 
2142.00, 
2143.00, 
2144.00, 
2145.00, 
2146.00, 
2147.00, 
2148.00, 
2149.00, 
2150.00, 
2151.00, 
2152.00, 
2153.00, 
2154.00, 
2155.00, 
2156.00, 
2157.00, 
2158.00, 
2159.00, 
2160.00, 
2161.00, 
2162.00, 
2163.00, 
2164.00, 
2165.00, 
2166.00, 
2167.00, 
2168.00, 
2169.00, 
2170.00, 
2171.00, 
2172.00, 
2173.00, 
2174.00, 
2175.00, 
2176.00, 
2177.00, 
2178.00, 
2179.00, 
2180.00, 
2181.00, 
2182.00, 
2183.00, 
2184.00, 
2185.00, 
2186.00, 
2187.00, 
2188.00, 
2189.00, 
2190.00, 
2191.00, 
2192.00, 
2193.00, 
2194.00, 
2195.00, 
2196.00, 
2197.00, 
2198.00, 
2199.00, 
2200.00, 
2201.00, 
2202.00, 
2203.00, 
2204.00, 
2205.00, 
2206.00, 
2207.00, 
2208.00, 
2209.00, 
2210.00, 
2211.00, 
2212.00, 
2213.00, 
2214.00, 
2215.00, 
2216.00, 
2217.00, 
2218.00, 
2219.00, 
2220.00, 
2221.00, 
2222.00, 
2223.00, 
2224.00, 
2225.00, 
2226.00, 
2227.00, 
2228.00, 
2229.00, 
2230.00, 
2231.00, 
2232.00, 
2233.00, 
2234.00, 
2235.00, 
2236.00, 
2237.00, 
2238.00, 
2239.00, 
2240.00, 
2241.00, 
2242.00, 
2243.00, 
2244.00, 
2245.00, 
2246.00, 
2247.00, 
2248.00, 
2249.00, 
2250.00, 
2251.00, 
2252.00, 
2253.00, 
2254.00, 
2255.00, 
2256.00, 
2257.00, 
2258.00, 
2259.00, 
2260.00, 
2261.00, 
2262.00, 
2263.00, 
2264.00, 
2265.00, 
2266.00, 
2267.00, 
2268.00, 
2269.00, 
2270.00, 
2271.00, 
2272.00, 
2273.00, 
2274.00, 
2275.00, 
2276.00, 
2277.00, 
2278.00, 
2279.00, 
2280.00, 
2281.00, 
2282.00, 
2283.00, 
2284.00, 
2285.00, 
2286.00, 
2287.00, 
2288.00, 
2289.00, 
2290.00, 
2291.00, 
2292.00, 
2293.00, 
2294.00, 
2295.00, 
2296.00, 
2297.00, 
2298.00, 
2299.00, 
2300.00, 
2301.00, 
2302.00, 
2303.00, 
2304.00, 
2305.00, 
2306.00, 
2307.00, 
2308.00, 
2309.00, 
2310.00, 
2311.00, 
2312.00, 
2313.00, 
2314.00, 
2315.00, 
2316.00, 
2317.00, 
2318.00, 
2319.00, 
2320.00, 
2321.00, 
2322.00, 
2323.00, 
2324.00, 
2325.00, 
2326.00, 
2327.00, 
2328.00, 
2329.00, 
2330.00, 
2331.00, 
2332.00, 
2333.00, 
2334.00, 
2335.00, 
2336.00, 
2337.00, 
2338.00, 
2339.00, 
2340.00, 
2341.00, 
2342.00, 
2343.00, 
2344.00, 
2345.00, 
2346.00, 
2347.00, 
2348.00, 
2349.00, 
2350.00, 
2351.00, 
2352.00, 
2353.00, 
2354.00, 
2355.00, 
2356.00, 
2357.00, 
2358.00, 
2359.00, 
2360.00, 
2361.00, 
2362.00, 
2363.00, 
2364.00, 
2365.00, 
2366.00, 
2367.00, 
2368.00, 
2369.00, 
2370.00, 
2371.00, 
2372.00, 
2373.00, 
2374.00, 
2375.00, 
2376.00, 
2377.00, 
2378.00, 
2379.00, 
2380.00, 
2381.00, 
2382.00, 
2383.00, 
2384.00, 
2385.00, 
2386.00, 
2387.00, 
2388.00, 
2389.00, 
2390.00, 
2391.00, 
2392.00, 
2393.00, 
2394.00, 
2395.00, 
2396.00, 
2397.00, 
2398.00, 
2399.00, 
2400.00, 
2401.00, 
2402.00, 
2403.00, 
2404.00, 
2405.00, 
2406.00, 
2407.00, 
2408.00, 
2409.00, 
2410.00, 
2411.00, 
2412.00, 
2413.00, 
2414.00, 
2415.00, 
2416.00, 
2417.00, 
2418.00, 
2419.00, 
2420.00, 
2421.00, 
2422.00, 
2423.00, 
2424.00, 
2425.00, 
2426.00, 
2427.00, 
2428.00, 
2429.00, 
2430.00, 
2431.00, 
2432.00, 
2433.00, 
2434.00, 
2435.00, 
2436.00, 
2437.00, 
2438.00, 
2439.00, 
2440.00, 
2441.00, 
2442.00, 
2443.00, 
2444.00, 
2445.00, 
2446.00, 
2447.00, 
2448.00, 
2449.00, 
2450.00, 
2451.00, 
2452.00, 
2453.00, 
2454.00, 
2455.00, 
2456.00, 
2457.00, 
2458.00, 
2459.00, 
2460.00, 
2461.00, 
2462.00, 
2463.00, 
2464.00, 
2465.00, 
2466.00, 
2467.00, 
2468.00, 
2469.00, 
2470.00, 
2471.00, 
2472.00, 
2473.00, 
2474.00, 
2475.00, 
2476.00, 
2477.00, 
2478.00, 
2479.00, 
2480.00, 
2481.00, 
2482.00, 
2483.00, 
2484.00, 
2485.00, 
2486.00, 
2487.00, 
2488.00, 
2489.00, 
2490.00, 
2491.00, 
2492.00, 
2493.00, 
2494.00, 
2495.00, 
2496.00, 
2497.00, 
2498.00, 
2499.00, 
2500.00, 
2501.00, 
2502.00, 
2503.00, 
2504.00, 
2505.00, 
2506.00, 
2507.00, 
2508.00, 
2509.00, 
2510.00, 
2511.00, 
2512.00, 
2513.00, 
2514.00, 
2515.00, 
2516.00, 
2517.00, 
2518.00, 
2519.00, 
2520.00, 
2521.00, 
2522.00, 
2523.00, 
2524.00, 
2525.00, 
2526.00, 
2527.00, 
2528.00, 
2529.00, 
2530.00, 
2531.00, 
2532.00, 
2533.00, 
2534.00, 
2535.00, 
2536.00, 
2537.00, 
2538.00, 
2539.00, 
2540.00, 
2541.00, 
2542.00, 
2543.00, 
2544.00, 
2545.00, 
2546.00, 
2547.00, 
2548.00, 
2549.00, 
2550.00, 
2551.00, 
2552.00, 
2553.00, 
2554.00, 
2555.00, 
2556.00, 
2557.00, 
2558.00, 
2559.00, 
2560.00, 
2561.00, 
2562.00, 
2563.00, 
2564.00, 
2565.00, 
2566.00, 
2567.00, 
2568.00, 
2569.00, 
2570.00, 
2571.00, 
2572.00, 
2573.00, 
2574.00, 
2575.00, 
2576.00, 
2577.00, 
2578.00, 
2579.00, 
2580.00, 
2581.00, 
2582.00, 
2583.00, 
2584.00, 
2585.00, 
2586.00, 
2587.00, 
2588.00, 
2589.00, 
2590.00, 
2591.00, 
2592.00, 
2593.00, 
2594.00, 
2595.00, 
2596.00, 
2597.00, 
2598.00, 
2599.00, 
2600.00, 
