"1cP2 - RawData"
"Wavelength nm.","T%"
200.00,0.002
201.00,0.003
202.00,0.002
203.00,0.001
204.00,0.002
205.00,0.003
206.00,0.001
207.00,0.004
208.00,0.007
209.00,-0.001
210.00,0.001
211.00,0.001
212.00,0.003
213.00,-0.000
214.00,0.000
215.00,0.001
216.00,0.004
217.00,0.002
218.00,0.002
219.00,0.000
220.00,0.000
221.00,0.000
222.00,0.003
223.00,-0.000
224.00,0.001
225.00,-0.001
226.00,-0.001
227.00,0.001
228.00,0.001
229.00,0.001
230.00,-0.000
231.00,0.001
232.00,0.001
233.00,0.000
234.00,0.001
235.00,0.002
236.00,-0.002
237.00,0.001
238.00,-0.001
239.00,0.000
240.00,-0.000
241.00,-0.000
242.00,0.002
243.00,-0.000
244.00,-0.001
245.00,0.001
246.00,0.000
247.00,0.001
248.00,0.000
249.00,0.000
250.00,0.001
251.00,-0.001
252.00,0.001
253.00,0.000
254.00,0.002
255.00,0.002
256.00,-0.000
257.00,0.000
258.00,-0.000
259.00,0.000
260.00,-0.001
261.00,0.001
262.00,0.001
263.00,-0.001
264.00,0.001
265.00,0.002
266.00,0.001
267.00,0.002
268.00,0.003
269.00,0.001
270.00,0.001
271.00,-0.001
272.00,0.002
273.00,0.000
274.00,-0.000
275.00,0.001
276.00,-0.000
277.00,-0.000
278.00,0.000
279.00,-0.001
280.00,0.000
281.00,0.001
282.00,0.001
283.00,0.001
284.00,-0.000
285.00,-0.000
286.00,-0.001
287.00,0.001
288.00,0.001
289.00,0.001
290.00,-0.002
291.00,-0.000
292.00,0.000
293.00,0.001
294.00,0.002
295.00,-0.001
296.00,0.001
297.00,0.001
298.00,0.000
299.00,-0.000
300.00,-0.000
301.00,0.001
302.00,0.000
303.00,0.003
304.00,0.002
305.00,0.001
306.00,0.003
307.00,0.006
308.00,0.009
309.00,0.019
310.00,0.031
311.00,0.046
312.00,0.072
313.00,0.114
314.00,0.171
315.00,0.251
316.00,0.362
317.00,0.508
318.00,0.700
319.00,0.942
320.00,1.258
321.00,1.623
322.00,2.084
323.00,2.620
324.00,3.248
325.00,3.913
326.00,4.657
327.00,5.565
328.00,6.513
329.00,7.511
330.00,8.598
331.00,9.709
332.00,10.953
333.00,12.109
334.00,13.488
335.00,14.879
336.00,16.219
337.00,17.678
338.00,19.012
339.00,20.317
340.00,21.710
341.00,23.090
342.00,24.297
343.00,25.555
344.00,26.813
345.00,28.014
346.00,29.092
347.00,30.202
348.00,31.221
349.00,32.225
350.00,33.199
351.00,34.088
352.00,34.811
353.00,35.678
354.00,36.413
355.00,37.109
356.00,37.756
357.00,38.407
358.00,39.028
359.00,39.718
360.00,40.268
361.00,40.611
362.00,41.177
363.00,41.607
364.00,41.943
365.00,42.234
366.00,42.576
367.00,42.844
368.00,42.990
369.00,43.301
370.00,43.506
371.00,43.653
372.00,43.694
373.00,43.724
374.00,43.825
375.00,43.823
376.00,43.676
377.00,43.614
378.00,43.562
379.00,43.482
380.00,43.543
381.00,43.563
382.00,43.724
383.00,43.858
384.00,43.972
385.00,44.223
386.00,44.363
387.00,44.714
388.00,44.991
389.00,45.150
390.00,45.308
391.00,45.381
392.00,45.605
393.00,45.727
394.00,45.878
395.00,46.017
396.00,46.108
397.00,46.164
398.00,46.250
399.00,46.296
400.00,46.367
401.00,46.439
402.00,46.447
403.00,46.476
404.00,46.534
405.00,46.522
406.00,46.611
407.00,46.497
408.00,46.631
409.00,46.431
410.00,46.373
411.00,46.337
412.00,46.302
413.00,46.305
414.00,46.208
415.00,46.256
416.00,46.336
417.00,46.278
418.00,46.257
419.00,46.421
420.00,46.481
421.00,46.451
422.00,46.487
423.00,46.473
424.00,46.565
425.00,46.543
426.00,46.598
427.00,46.542
428.00,46.582
429.00,46.670
430.00,46.680
431.00,46.693
432.00,46.685
433.00,46.649
434.00,46.694
435.00,46.738
436.00,46.767
437.00,46.819
438.00,46.819
439.00,46.838
440.00,46.916
441.00,46.904
442.00,46.929
443.00,46.943
444.00,47.044
445.00,47.062
446.00,47.096
447.00,47.132
448.00,47.220
449.00,47.287
450.00,47.366
451.00,47.485
452.00,47.427
453.00,47.523
454.00,47.561
455.00,47.527
456.00,47.640
457.00,47.731
458.00,47.738
459.00,47.824
460.00,47.904
461.00,47.974
462.00,48.074
463.00,48.153
464.00,48.175
465.00,48.238
466.00,48.332
467.00,48.405
468.00,48.335
469.00,48.362
470.00,48.334
471.00,48.296
472.00,48.401
473.00,48.358
474.00,48.429
475.00,48.422
476.00,48.395
477.00,48.415
478.00,48.410
479.00,48.641
480.00,48.674
481.00,48.556
482.00,48.727
483.00,48.734
484.00,48.906
485.00,49.012
486.00,49.179
487.00,48.961
488.00,49.099
489.00,49.170
490.00,49.279
491.00,49.354
492.00,49.526
493.00,49.627
494.00,49.413
495.00,49.509
496.00,49.619
497.00,49.543
498.00,49.590
499.00,49.741
500.00,49.799
501.00,49.823
502.00,49.847
503.00,49.899
504.00,49.858
505.00,50.001
506.00,49.975
507.00,50.028
508.00,50.171
509.00,50.141
510.00,50.186
511.00,50.159
512.00,50.261
513.00,50.368
514.00,50.422
515.00,50.535
516.00,50.542
517.00,50.566
518.00,50.679
519.00,50.623
520.00,50.542
521.00,50.585
522.00,50.627
523.00,50.635
524.00,50.712
525.00,50.753
526.00,50.756
527.00,50.695
528.00,50.687
529.00,50.848
530.00,51.006
531.00,51.046
532.00,51.013
533.00,51.107
534.00,51.173
535.00,51.152
536.00,51.159
537.00,51.188
538.00,51.192
539.00,51.234
540.00,51.245
541.00,51.172
542.00,51.082
543.00,51.223
544.00,51.217
545.00,51.322
546.00,51.340
547.00,51.378
548.00,51.487
549.00,51.476
550.00,51.434
551.00,51.553
552.00,51.534
553.00,51.588
554.00,51.569
555.00,51.459
556.00,51.492
557.00,51.584
558.00,51.819
559.00,51.743
560.00,51.801
561.00,51.855
562.00,51.869
563.00,51.838
564.00,51.885
565.00,51.888
566.00,51.817
567.00,51.860
568.00,51.868
569.00,51.862
570.00,51.874
571.00,51.861
572.00,51.846
573.00,51.701
574.00,51.741
575.00,51.718
576.00,51.720
577.00,51.791
578.00,51.829
579.00,51.837
580.00,51.812
581.00,52.022
582.00,52.045
583.00,51.945
584.00,52.127
585.00,52.192
586.00,52.067
587.00,52.164
588.00,52.100
589.00,51.939
590.00,52.184
591.00,52.169
592.00,52.092
593.00,52.080
594.00,52.128
595.00,52.258
596.00,52.231
597.00,52.243
598.00,52.324
599.00,52.255
600.00,52.272
601.00,52.183
602.00,52.101
603.00,51.968
604.00,52.252
605.00,52.486
606.00,52.136
607.00,52.218
608.00,52.345
609.00,52.422
610.00,52.275
611.00,52.263
612.00,52.176
613.00,52.284
614.00,52.308
615.00,52.367
616.00,52.398
617.00,52.295
618.00,52.141
619.00,52.234
620.00,52.282
621.00,52.288
622.00,52.286
623.00,52.237
624.00,52.382
625.00,52.338
626.00,52.271
627.00,52.270
628.00,52.289
629.00,52.192
630.00,52.202
631.00,52.179
632.00,52.263
633.00,52.343
634.00,52.399
635.00,52.345
636.00,52.349
637.00,52.290
638.00,52.269
639.00,52.349
640.00,52.305
641.00,52.295
642.00,52.304
643.00,52.258
644.00,52.276
645.00,52.261
646.00,52.367
647.00,52.395
648.00,52.226
649.00,52.193
650.00,52.197
651.00,52.317
652.00,52.306
653.00,52.178
654.00,52.106
655.00,52.337
656.00,52.447
657.00,52.462
658.00,51.921
659.00,52.281
660.00,52.156
661.00,52.081
662.00,52.281
663.00,52.193
664.00,52.383
665.00,52.582
666.00,52.384
667.00,52.232
668.00,52.072
669.00,52.352
670.00,52.604
671.00,52.400
672.00,52.196
673.00,52.388
674.00,52.317
675.00,52.264
676.00,52.352
677.00,52.464
678.00,52.234
679.00,52.382
680.00,52.351
681.00,52.473
682.00,52.383
683.00,52.164
684.00,52.274
685.00,52.292
686.00,52.088
687.00,52.207
688.00,52.145
689.00,52.000
690.00,52.257
691.00,52.371
692.00,52.056
693.00,52.063
694.00,52.162
695.00,52.283
696.00,52.250
697.00,52.020
698.00,51.955
699.00,52.082
700.00,52.128
701.00,51.967
702.00,51.985
703.00,52.165
704.00,52.043
705.00,51.829
706.00,51.931
707.00,52.031
708.00,51.744
709.00,52.050
710.00,52.419
711.00,51.754
712.00,51.721
713.00,51.863
714.00,51.757
715.00,51.667
716.00,51.702
717.00,51.847
718.00,51.972
719.00,51.766
720.00,51.697
721.00,56.599
722.00,56.576
723.00,56.467
724.00,56.391
725.00,56.412
726.00,56.369
727.00,56.227
728.00,56.143
729.00,56.165
730.00,56.127
731.00,55.970
732.00,55.899
733.00,55.943
734.00,55.842
735.00,55.923
736.00,55.815
737.00,55.717
738.00,55.736
739.00,55.639
740.00,55.611
741.00,55.534
742.00,55.611
743.00,55.353
744.00,55.392
745.00,55.350
746.00,55.282
747.00,55.215
748.00,55.103
749.00,55.105
750.00,55.002
751.00,55.017
752.00,54.898
753.00,54.854
754.00,54.824
755.00,54.722
756.00,54.730
757.00,54.641
758.00,54.609
759.00,54.545
760.00,54.534
761.00,54.487
762.00,54.376
763.00,54.335
764.00,54.260
765.00,54.290
766.00,54.298
767.00,54.313
768.00,54.172
769.00,54.147
770.00,54.138
771.00,54.099
772.00,54.064
773.00,54.043
774.00,53.970
775.00,53.930
776.00,53.974
777.00,53.855
778.00,53.859
779.00,53.809
780.00,53.807
781.00,53.720
782.00,53.664
783.00,53.706
784.00,53.631
785.00,53.513
786.00,53.558
787.00,53.513
788.00,53.499
789.00,53.424
790.00,53.341
791.00,53.382
792.00,53.254
793.00,53.279
794.00,53.226
795.00,53.172
796.00,53.174
797.00,53.098
798.00,53.044
799.00,52.911
800.00,52.930
801.00,52.888
802.00,52.831
803.00,52.839
804.00,52.747
805.00,52.777
806.00,52.699
807.00,52.645
808.00,52.616
809.00,52.609
810.00,52.493
811.00,52.585
812.00,52.477
813.00,52.468
814.00,52.307
815.00,52.415
816.00,52.395
817.00,52.354
818.00,52.139
819.00,52.168
820.00,52.132
821.00,52.132
822.00,52.126
823.00,52.017
824.00,52.079
825.00,51.993
826.00,52.009
827.00,52.084
828.00,51.940
829.00,51.975
830.00,51.912
831.00,54.283
832.00,54.282
833.00,54.197
834.00,54.176
835.00,54.182
836.00,54.115
837.00,54.087
838.00,54.042
839.00,53.996
840.00,53.955
841.00,53.946
842.00,53.920
843.00,53.901
844.00,53.881
845.00,53.810
846.00,53.789
847.00,53.736
848.00,53.740
849.00,53.670
850.00,53.650
851.00,53.588
852.00,53.564
853.00,53.482
854.00,53.481
855.00,53.356
856.00,53.354
857.00,53.350
858.00,53.292
859.00,53.268
860.00,53.269
861.00,53.235
862.00,53.192
863.00,53.223
864.00,53.158
865.00,53.173
866.00,53.146
867.00,53.108
868.00,53.073
869.00,53.060
870.00,53.048
871.00,53.009
872.00,52.999
873.00,53.001
874.00,52.979
875.00,52.949
876.00,52.938
877.00,52.899
878.00,52.908
879.00,52.857
880.00,52.840
881.00,52.805
882.00,52.817
883.00,52.777
884.00,52.739
885.00,52.712
886.00,52.689
887.00,52.640
888.00,52.617
889.00,52.611
890.00,52.617
891.00,52.523
892.00,52.536
893.00,52.502
894.00,52.507
895.00,52.463
896.00,52.438
897.00,52.411
898.00,52.380
899.00,52.403
900.00,52.358
901.00,52.343
902.00,52.371
903.00,52.321
904.00,52.285
905.00,52.267
906.00,52.410
907.00,52.169
908.00,52.164
909.00,52.152
910.00,52.089
911.00,52.117
912.00,52.094
913.00,52.070
914.00,52.054
915.00,52.002
916.00,51.947
917.00,52.058
918.00,51.966
919.00,51.929
920.00,51.880
921.00,51.874
922.00,51.865
923.00,51.845
924.00,51.787
925.00,51.795
926.00,51.772
927.00,51.761
928.00,51.709
929.00,51.727
930.00,51.696
931.00,51.676
932.00,51.607
933.00,51.655
934.00,51.598
935.00,51.574
936.00,51.539
937.00,51.518
938.00,51.522
939.00,51.513
940.00,51.475
941.00,51.468
942.00,51.573
943.00,51.415
944.00,51.379
945.00,51.385
946.00,51.358
947.00,51.334
948.00,51.309
949.00,51.295
950.00,51.281
951.00,51.245
952.00,51.215
953.00,51.197
954.00,51.161
955.00,51.116
956.00,51.125
957.00,51.077
958.00,51.089
959.00,51.044
960.00,51.051
961.00,51.012
962.00,50.999
963.00,51.003
964.00,50.964
965.00,50.967
966.00,50.942
967.00,50.938
968.00,50.896
969.00,50.926
970.00,50.901
971.00,50.908
972.00,50.872
973.00,50.906
974.00,50.906
975.00,50.887
976.00,50.900
977.00,50.885
978.00,50.992
979.00,50.879
980.00,50.896
981.00,50.895
982.00,50.865
983.00,50.870
984.00,50.837
985.00,50.850
986.00,50.814
987.00,50.836
988.00,50.804
989.00,50.794
990.00,50.792
991.00,50.776
992.00,50.801
993.00,50.754
994.00,50.735
995.00,50.719
996.00,50.714
997.00,50.694
998.00,50.674
999.00,50.682
1000.00,50.640
1001.00,50.623
1002.00,50.637
1003.00,50.657
1004.00,50.602
1005.00,50.573
1006.00,50.621
1007.00,50.558
1008.00,50.552
1009.00,50.568
1010.00,50.528
1011.00,50.520
1012.00,50.483
1013.00,50.505
1014.00,50.474
1015.00,50.476
1016.00,50.442
1017.00,50.436
1018.00,50.427
1019.00,50.398
1020.00,50.364
1021.00,50.360
1022.00,50.347
1023.00,50.291
1024.00,50.343
1025.00,50.286
1026.00,50.270
1027.00,50.255
1028.00,50.238
1029.00,50.221
1030.00,50.191
1031.00,50.195
1032.00,50.141
1033.00,50.161
1034.00,50.128
1035.00,50.088
1036.00,50.107
1037.00,50.093
1038.00,50.057
1039.00,50.031
1040.00,50.025
1041.00,49.990
1042.00,49.984
1043.00,49.962
1044.00,50.005
1045.00,49.980
1046.00,49.963
1047.00,49.990
1048.00,49.999
1049.00,50.014
1050.00,49.999
1051.00,50.047
1052.00,50.046
1053.00,50.044
1054.00,50.044
1055.00,50.067
1056.00,50.070
1057.00,50.087
1058.00,50.052
1059.00,50.053
1060.00,50.074
1061.00,50.046
1062.00,50.034
1063.00,50.038
1064.00,50.030
1065.00,50.014
1066.00,50.001
1067.00,50.019
1068.00,50.019
1069.00,49.981
1070.00,49.995
1071.00,49.970
1072.00,49.989
1073.00,49.951
1074.00,49.949
1075.00,49.935
1076.00,49.939
1077.00,49.925
1078.00,49.898
1079.00,49.898
1080.00,49.908
1081.00,49.900
1082.00,49.902
1083.00,49.893
1084.00,49.877
1085.00,49.875
1086.00,49.858
1087.00,49.866
1088.00,49.849
1089.00,49.830
1090.00,49.822
1091.00,49.824
1092.00,49.819
1093.00,49.817
1094.00,49.804
1095.00,49.791
1096.00,49.777
1097.00,49.776
1098.00,49.773
1099.00,49.764
1100.00,49.755
1101.00,49.761
1102.00,49.750
1103.00,49.734
1104.00,49.722
1105.00,49.709
1106.00,49.684
1107.00,49.681
1108.00,49.675
1109.00,49.669
1110.00,49.664
1111.00,49.648
1112.00,49.648
1113.00,49.646
1114.00,49.643
1115.00,49.669
1116.00,49.645
1117.00,49.610
1118.00,49.607
1119.00,49.600
1120.00,49.598
1121.00,49.597
1122.00,49.577
1123.00,49.580
1124.00,49.558
1125.00,49.563
1126.00,49.568
1127.00,49.565
1128.00,49.561
1129.00,49.541
1130.00,49.522
1131.00,49.541
1132.00,49.537
1133.00,49.523
1134.00,49.507
1135.00,49.496
1136.00,49.510
1137.00,49.506
1138.00,49.498
1139.00,49.510
1140.00,49.504
1141.00,49.491
1142.00,49.490
1143.00,49.511
1144.00,49.470
1145.00,49.476
1146.00,49.477
1147.00,49.467
1148.00,49.462
1149.00,49.480
1150.00,49.481
1151.00,49.477
1152.00,49.458
1153.00,49.460
1154.00,49.449
1155.00,49.459
1156.00,49.468
1157.00,49.442
1158.00,49.439
1159.00,49.451
1160.00,49.441
1161.00,49.450
1162.00,49.451
1163.00,49.440
1164.00,49.445
1165.00,49.439
1166.00,49.443
1167.00,49.425
1168.00,49.444
1169.00,49.424
1170.00,49.429
1171.00,49.402
1172.00,49.411
1173.00,49.422
1174.00,49.429
1175.00,49.432
1176.00,49.443
1177.00,49.424
1178.00,49.434
1179.00,49.448
1180.00,49.414
1181.00,49.437
1182.00,49.415
1183.00,49.399
1184.00,49.402
1185.00,49.416
1186.00,49.416
1187.00,49.406
1188.00,49.402
1189.00,49.425
1190.00,49.402
1191.00,49.421
1192.00,49.459
1193.00,49.404
1194.00,49.410
1195.00,49.389
1196.00,49.413
1197.00,49.421
1198.00,49.412
1199.00,49.428
1200.00,49.433
1201.00,49.439
1202.00,49.420
1203.00,49.423
1204.00,49.429
1205.00,49.448
1206.00,49.441
1207.00,49.436
1208.00,49.410
1209.00,49.420
1210.00,49.418
1211.00,49.419
1212.00,49.447
1213.00,49.414
1214.00,49.437
1215.00,49.413
1216.00,49.417
1217.00,49.422
1218.00,49.405
1219.00,49.424
1220.00,49.422
1221.00,49.444
1222.00,49.423
1223.00,49.454
1224.00,49.449
1225.00,49.423
1226.00,49.423
1227.00,49.415
1228.00,49.454
1229.00,49.434
1230.00,49.471
1231.00,49.470
1232.00,49.490
1233.00,49.492
1234.00,49.492
1235.00,49.498
1236.00,49.489
1237.00,49.505
1238.00,49.513
1239.00,49.514
1240.00,49.486
1241.00,49.498
1242.00,49.512
1243.00,49.527
1244.00,49.497
1245.00,49.538
1246.00,49.547
1247.00,49.534
1248.00,49.535
1249.00,49.540
1250.00,49.556
1251.00,49.543
1252.00,49.568
1253.00,49.570
1254.00,49.574
1255.00,49.558
1256.00,49.539
1257.00,49.525
1258.00,49.575
1259.00,49.561
1260.00,49.591
1261.00,49.583
1262.00,49.576
1263.00,49.585
1264.00,49.609
1265.00,49.617
1266.00,49.613
1267.00,49.633
1268.00,49.641
1269.00,49.648
1270.00,49.660
1271.00,49.665
1272.00,49.673
1273.00,49.673
1274.00,49.679
1275.00,49.686
1276.00,49.670
1277.00,49.679
1278.00,49.714
1279.00,49.716
1280.00,49.694
1281.00,49.715
1282.00,49.738
1283.00,49.775
1284.00,49.720
1285.00,49.730
1286.00,49.754
1287.00,49.730
1288.00,49.727
1289.00,49.732
1290.00,49.766
1291.00,49.754
1292.00,49.761
1293.00,49.775
1294.00,49.788
1295.00,49.788
1296.00,49.790
1297.00,49.833
1298.00,49.847
1299.00,49.817
1300.00,49.836
1301.00,49.823
1302.00,49.847
1303.00,49.846
1304.00,49.844
1305.00,49.881
1306.00,49.865
1307.00,49.882
1308.00,49.902
1309.00,49.900
1310.00,49.904
1311.00,49.900
1312.00,49.909
1313.00,49.909
1314.00,49.939
1315.00,49.947
1316.00,49.939
1317.00,49.969
1318.00,49.985
1319.00,49.981
1320.00,49.980
1321.00,50.158
1322.00,50.150
1323.00,50.125
1324.00,50.119
1325.00,50.122
1326.00,50.146
1327.00,50.153
1328.00,50.132
1329.00,50.140
1330.00,50.152
1331.00,50.147
1332.00,50.166
1333.00,50.165
1334.00,50.165
1335.00,50.202
1336.00,50.222
1337.00,50.267
1338.00,50.329
1339.00,50.379
1340.00,50.426
1341.00,50.496
1342.00,50.566
1343.00,50.628
1344.00,50.667
1345.00,50.720
1346.00,50.754
1347.00,50.763
1348.00,50.782
1349.00,50.821
1350.00,50.819
1351.00,50.872
1352.00,50.877
1353.00,50.504
1354.00,50.894
1355.00,50.831
1356.00,50.896
1357.00,50.936
1358.00,50.933
1359.00,50.729
1360.00,50.961
1361.00,50.948
1362.00,50.892
1363.00,50.939
1364.00,50.997
1365.00,50.939
1366.00,50.937
1367.00,50.854
1368.00,50.940
1369.00,50.922
1370.00,50.938
1371.00,50.692
1372.00,50.859
1373.00,50.894
1374.00,50.957
1375.00,50.931
1376.00,50.943
1377.00,50.967
1378.00,51.028
1379.00,50.945
1380.00,50.941
1381.00,50.972
1382.00,50.944
1383.00,50.959
1384.00,50.893
1385.00,50.908
1386.00,50.943
1387.00,50.863
1388.00,50.894
1389.00,50.929
1390.00,50.906
1391.00,50.922
1392.00,50.950
1393.00,51.044
1394.00,50.956
1395.00,50.856
1396.00,50.841
1397.00,50.814
1398.00,51.027
1399.00,50.906
1400.00,50.867
1401.00,50.869
1402.00,51.034
1403.00,50.878
1404.00,50.917
1405.00,50.977
1406.00,50.962
1407.00,50.988
1408.00,50.987
1409.00,51.000
1410.00,51.005
1411.00,50.994
1412.00,51.075
1413.00,51.013
1414.00,51.004
1415.00,51.046
1416.00,51.071
1417.00,51.126
1418.00,51.078
1419.00,51.031
1420.00,51.107
1421.00,51.179
1422.00,51.169
1423.00,51.182
1424.00,51.168
1425.00,51.187
1426.00,51.198
1427.00,51.224
1428.00,51.218
1429.00,51.223
1430.00,51.249
1431.00,51.246
1432.00,51.296
1433.00,51.320
1434.00,51.302
1435.00,51.359
1436.00,51.367
1437.00,51.355
1438.00,51.358
1439.00,51.392
1440.00,51.429
1441.00,51.426
1442.00,51.441
1443.00,51.465
1444.00,51.564
1445.00,51.493
1446.00,51.508
1447.00,51.555
1448.00,51.613
1449.00,51.596
1450.00,51.577
1451.00,51.602
1452.00,51.618
1453.00,51.637
1454.00,51.661
1455.00,51.675
1456.00,51.697
1457.00,51.688
1458.00,51.735
1459.00,51.758
1460.00,51.777
1461.00,51.785
1462.00,51.827
1463.00,51.808
1464.00,51.847
1465.00,51.856
1466.00,51.847
1467.00,51.864
1468.00,51.926
1469.00,51.885
1470.00,51.912
1471.00,51.912
1472.00,51.920
1473.00,51.952
1474.00,51.992
1475.00,52.024
1476.00,52.050
1477.00,52.024
1478.00,52.054
1479.00,52.077
1480.00,52.100
1481.00,52.126
1482.00,52.129
1483.00,52.137
1484.00,52.158
1485.00,52.134
1486.00,52.175
1487.00,52.206
1488.00,52.206
1489.00,52.213
1490.00,52.228
1491.00,52.245
1492.00,52.293
1493.00,52.259
1494.00,52.306
1495.00,52.294
1496.00,52.306
1497.00,52.297
1498.00,52.302
1499.00,52.319
1500.00,52.350
1501.00, 
1502.00, 
1503.00, 
1504.00, 
1505.00, 
1506.00, 
1507.00, 
1508.00, 
1509.00, 
1510.00, 
1511.00, 
1512.00, 
1513.00, 
1514.00, 
1515.00, 
1516.00, 
1517.00, 
1518.00, 
1519.00, 
1520.00, 
1521.00, 
1522.00, 
1523.00, 
1524.00, 
1525.00, 
1526.00, 
1527.00, 
1528.00, 
1529.00, 
1530.00, 
1531.00, 
1532.00, 
1533.00, 
1534.00, 
1535.00, 
1536.00, 
1537.00, 
1538.00, 
1539.00, 
1540.00, 
1541.00, 
1542.00, 
1543.00, 
1544.00, 
1545.00, 
1546.00, 
1547.00, 
1548.00, 
1549.00, 
1550.00, 
1551.00, 
1552.00, 
1553.00, 
1554.00, 
1555.00, 
1556.00, 
1557.00, 
1558.00, 
1559.00, 
1560.00, 
1561.00, 
1562.00, 
1563.00, 
1564.00, 
1565.00, 
1566.00, 
1567.00, 
1568.00, 
1569.00, 
1570.00, 
1571.00, 
1572.00, 
1573.00, 
1574.00, 
1575.00, 
1576.00, 
1577.00, 
1578.00, 
1579.00, 
1580.00, 
1581.00, 
1582.00, 
1583.00, 
1584.00, 
1585.00, 
1586.00, 
1587.00, 
1588.00, 
1589.00, 
1590.00, 
1591.00, 
1592.00, 
1593.00, 
1594.00, 
1595.00, 
1596.00, 
1597.00, 
1598.00, 
1599.00, 
1600.00, 
1601.00, 
1602.00, 
1603.00, 
1604.00, 
1605.00, 
1606.00, 
1607.00, 
1608.00, 
1609.00, 
1610.00, 
1611.00, 
1612.00, 
1613.00, 
1614.00, 
1615.00, 
1616.00, 
1617.00, 
1618.00, 
1619.00, 
1620.00, 
1621.00, 
1622.00, 
1623.00, 
1624.00, 
1625.00, 
1626.00, 
1627.00, 
1628.00, 
1629.00, 
1630.00, 
1631.00, 
1632.00, 
1633.00, 
1634.00, 
1635.00, 
1636.00, 
1637.00, 
1638.00, 
1639.00, 
1640.00, 
1641.00, 
1642.00, 
1643.00, 
1644.00, 
1645.00, 
1646.00, 
1647.00, 
1648.00, 
1649.00, 
1650.00, 
1651.00, 
1652.00, 
1653.00, 
1654.00, 
1655.00, 
1656.00, 
1657.00, 
1658.00, 
1659.00, 
1660.00, 
1661.00, 
1662.00, 
1663.00, 
1664.00, 
1665.00, 
1666.00, 
1667.00, 
1668.00, 
1669.00, 
1670.00, 
1671.00, 
1672.00, 
1673.00, 
1674.00, 
1675.00, 
1676.00, 
1677.00, 
1678.00, 
1679.00, 
1680.00, 
1681.00, 
1682.00, 
1683.00, 
1684.00, 
1685.00, 
1686.00, 
1687.00, 
1688.00, 
1689.00, 
1690.00, 
1691.00, 
1692.00, 
1693.00, 
1694.00, 
1695.00, 
1696.00, 
1697.00, 
1698.00, 
1699.00, 
1700.00, 
1701.00, 
1702.00, 
1703.00, 
1704.00, 
1705.00, 
1706.00, 
1707.00, 
1708.00, 
1709.00, 
1710.00, 
1711.00, 
1712.00, 
1713.00, 
1714.00, 
1715.00, 
1716.00, 
1717.00, 
1718.00, 
1719.00, 
1720.00, 
1721.00, 
1722.00, 
1723.00, 
1724.00, 
1725.00, 
1726.00, 
1727.00, 
1728.00, 
1729.00, 
1730.00, 
1731.00, 
1732.00, 
1733.00, 
1734.00, 
1735.00, 
1736.00, 
1737.00, 
1738.00, 
1739.00, 
1740.00, 
1741.00, 
1742.00, 
1743.00, 
1744.00, 
1745.00, 
1746.00, 
1747.00, 
1748.00, 
1749.00, 
1750.00, 
1751.00, 
1752.00, 
1753.00, 
1754.00, 
1755.00, 
1756.00, 
1757.00, 
1758.00, 
1759.00, 
1760.00, 
1761.00, 
1762.00, 
1763.00, 
1764.00, 
1765.00, 
1766.00, 
1767.00, 
1768.00, 
1769.00, 
1770.00, 
1771.00, 
1772.00, 
1773.00, 
1774.00, 
1775.00, 
1776.00, 
1777.00, 
1778.00, 
1779.00, 
1780.00, 
1781.00, 
1782.00, 
1783.00, 
1784.00, 
1785.00, 
1786.00, 
1787.00, 
1788.00, 
1789.00, 
1790.00, 
1791.00, 
1792.00, 
1793.00, 
1794.00, 
1795.00, 
1796.00, 
1797.00, 
1798.00, 
1799.00, 
1800.00, 
1801.00, 
1802.00, 
1803.00, 
1804.00, 
1805.00, 
1806.00, 
1807.00, 
1808.00, 
1809.00, 
1810.00, 
1811.00, 
1812.00, 
1813.00, 
1814.00, 
1815.00, 
1816.00, 
1817.00, 
1818.00, 
1819.00, 
1820.00, 
1821.00, 
1822.00, 
1823.00, 
1824.00, 
1825.00, 
1826.00, 
1827.00, 
1828.00, 
1829.00, 
1830.00, 
1831.00, 
1832.00, 
1833.00, 
1834.00, 
1835.00, 
1836.00, 
1837.00, 
1838.00, 
1839.00, 
1840.00, 
1841.00, 
1842.00, 
1843.00, 
1844.00, 
1845.00, 
1846.00, 
1847.00, 
1848.00, 
1849.00, 
1850.00, 
1851.00, 
1852.00, 
1853.00, 
1854.00, 
1855.00, 
1856.00, 
1857.00, 
1858.00, 
1859.00, 
1860.00, 
1861.00, 
1862.00, 
1863.00, 
1864.00, 
1865.00, 
1866.00, 
1867.00, 
1868.00, 
1869.00, 
1870.00, 
1871.00, 
1872.00, 
1873.00, 
1874.00, 
1875.00, 
1876.00, 
1877.00, 
1878.00, 
1879.00, 
1880.00, 
1881.00, 
1882.00, 
1883.00, 
1884.00, 
1885.00, 
1886.00, 
1887.00, 
1888.00, 
1889.00, 
1890.00, 
1891.00, 
1892.00, 
1893.00, 
1894.00, 
1895.00, 
1896.00, 
1897.00, 
1898.00, 
1899.00, 
1900.00, 
1901.00, 
1902.00, 
1903.00, 
1904.00, 
1905.00, 
1906.00, 
1907.00, 
1908.00, 
1909.00, 
1910.00, 
1911.00, 
1912.00, 
1913.00, 
1914.00, 
1915.00, 
1916.00, 
1917.00, 
1918.00, 
1919.00, 
1920.00, 
1921.00, 
1922.00, 
1923.00, 
1924.00, 
1925.00, 
1926.00, 
1927.00, 
1928.00, 
1929.00, 
1930.00, 
1931.00, 
1932.00, 
1933.00, 
1934.00, 
1935.00, 
1936.00, 
1937.00, 
1938.00, 
1939.00, 
1940.00, 
1941.00, 
1942.00, 
1943.00, 
1944.00, 
1945.00, 
1946.00, 
1947.00, 
1948.00, 
1949.00, 
1950.00, 
1951.00, 
1952.00, 
1953.00, 
1954.00, 
1955.00, 
1956.00, 
1957.00, 
1958.00, 
1959.00, 
1960.00, 
1961.00, 
1962.00, 
1963.00, 
1964.00, 
1965.00, 
1966.00, 
1967.00, 
1968.00, 
1969.00, 
1970.00, 
1971.00, 
1972.00, 
1973.00, 
1974.00, 
1975.00, 
1976.00, 
1977.00, 
1978.00, 
1979.00, 
1980.00, 
1981.00, 
1982.00, 
1983.00, 
1984.00, 
1985.00, 
1986.00, 
1987.00, 
1988.00, 
1989.00, 
1990.00, 
1991.00, 
1992.00, 
1993.00, 
1994.00, 
1995.00, 
1996.00, 
1997.00, 
1998.00, 
1999.00, 
2000.00, 
2001.00, 
2002.00, 
2003.00, 
2004.00, 
2005.00, 
2006.00, 
2007.00, 
2008.00, 
2009.00, 
2010.00, 
2011.00, 
2012.00, 
2013.00, 
2014.00, 
2015.00, 
2016.00, 
2017.00, 
2018.00, 
2019.00, 
2020.00, 
2021.00, 
2022.00, 
2023.00, 
2024.00, 
2025.00, 
2026.00, 
2027.00, 
2028.00, 
2029.00, 
2030.00, 
2031.00, 
2032.00, 
2033.00, 
2034.00, 
2035.00, 
2036.00, 
2037.00, 
2038.00, 
2039.00, 
2040.00, 
2041.00, 
2042.00, 
2043.00, 
2044.00, 
2045.00, 
2046.00, 
2047.00, 
2048.00, 
2049.00, 
2050.00, 
2051.00, 
2052.00, 
2053.00, 
2054.00, 
2055.00, 
2056.00, 
2057.00, 
2058.00, 
2059.00, 
2060.00, 
2061.00, 
2062.00, 
2063.00, 
2064.00, 
2065.00, 
2066.00, 
2067.00, 
2068.00, 
2069.00, 
2070.00, 
2071.00, 
2072.00, 
2073.00, 
2074.00, 
2075.00, 
2076.00, 
2077.00, 
2078.00, 
2079.00, 
2080.00, 
2081.00, 
2082.00, 
2083.00, 
2084.00, 
2085.00, 
2086.00, 
2087.00, 
2088.00, 
2089.00, 
2090.00, 
2091.00, 
2092.00, 
2093.00, 
2094.00, 
2095.00, 
2096.00, 
2097.00, 
2098.00, 
2099.00, 
2100.00, 
2101.00, 
2102.00, 
2103.00, 
2104.00, 
2105.00, 
2106.00, 
2107.00, 
2108.00, 
2109.00, 
2110.00, 
2111.00, 
2112.00, 
2113.00, 
2114.00, 
2115.00, 
2116.00, 
2117.00, 
2118.00, 
2119.00, 
2120.00, 
2121.00, 
2122.00, 
2123.00, 
2124.00, 
2125.00, 
2126.00, 
2127.00, 
2128.00, 
2129.00, 
2130.00, 
2131.00, 
2132.00, 
2133.00, 
2134.00, 
2135.00, 
2136.00, 
2137.00, 
2138.00, 
2139.00, 
2140.00, 
2141.00, 
2142.00, 
2143.00, 
2144.00, 
2145.00, 
2146.00, 
2147.00, 
2148.00, 
2149.00, 
2150.00, 
2151.00, 
2152.00, 
2153.00, 
2154.00, 
2155.00, 
2156.00, 
2157.00, 
2158.00, 
2159.00, 
2160.00, 
2161.00, 
2162.00, 
2163.00, 
2164.00, 
2165.00, 
2166.00, 
2167.00, 
2168.00, 
2169.00, 
2170.00, 
2171.00, 
2172.00, 
2173.00, 
2174.00, 
2175.00, 
2176.00, 
2177.00, 
2178.00, 
2179.00, 
2180.00, 
2181.00, 
2182.00, 
2183.00, 
2184.00, 
2185.00, 
2186.00, 
2187.00, 
2188.00, 
2189.00, 
2190.00, 
2191.00, 
2192.00, 
2193.00, 
2194.00, 
2195.00, 
2196.00, 
2197.00, 
2198.00, 
2199.00, 
2200.00, 
2201.00, 
2202.00, 
2203.00, 
2204.00, 
2205.00, 
2206.00, 
2207.00, 
2208.00, 
2209.00, 
2210.00, 
2211.00, 
2212.00, 
2213.00, 
2214.00, 
2215.00, 
2216.00, 
2217.00, 
2218.00, 
2219.00, 
2220.00, 
2221.00, 
2222.00, 
2223.00, 
2224.00, 
2225.00, 
2226.00, 
2227.00, 
2228.00, 
2229.00, 
2230.00, 
2231.00, 
2232.00, 
2233.00, 
2234.00, 
2235.00, 
2236.00, 
2237.00, 
2238.00, 
2239.00, 
2240.00, 
2241.00, 
2242.00, 
2243.00, 
2244.00, 
2245.00, 
2246.00, 
2247.00, 
2248.00, 
2249.00, 
2250.00, 
2251.00, 
2252.00, 
2253.00, 
2254.00, 
2255.00, 
2256.00, 
2257.00, 
2258.00, 
2259.00, 
2260.00, 
2261.00, 
2262.00, 
2263.00, 
2264.00, 
2265.00, 
2266.00, 
2267.00, 
2268.00, 
2269.00, 
2270.00, 
2271.00, 
2272.00, 
2273.00, 
2274.00, 
2275.00, 
2276.00, 
2277.00, 
2278.00, 
2279.00, 
2280.00, 
2281.00, 
2282.00, 
2283.00, 
2284.00, 
2285.00, 
2286.00, 
2287.00, 
2288.00, 
2289.00, 
2290.00, 
2291.00, 
2292.00, 
2293.00, 
2294.00, 
2295.00, 
2296.00, 
2297.00, 
2298.00, 
2299.00, 
2300.00, 
2301.00, 
2302.00, 
2303.00, 
2304.00, 
2305.00, 
2306.00, 
2307.00, 
2308.00, 
2309.00, 
2310.00, 
2311.00, 
2312.00, 
2313.00, 
2314.00, 
2315.00, 
2316.00, 
2317.00, 
2318.00, 
2319.00, 
2320.00, 
2321.00, 
2322.00, 
2323.00, 
2324.00, 
2325.00, 
2326.00, 
2327.00, 
2328.00, 
2329.00, 
2330.00, 
2331.00, 
2332.00, 
2333.00, 
2334.00, 
2335.00, 
2336.00, 
2337.00, 
2338.00, 
2339.00, 
2340.00, 
2341.00, 
2342.00, 
2343.00, 
2344.00, 
2345.00, 
2346.00, 
2347.00, 
2348.00, 
2349.00, 
2350.00, 
2351.00, 
2352.00, 
2353.00, 
2354.00, 
2355.00, 
2356.00, 
2357.00, 
2358.00, 
2359.00, 
2360.00, 
2361.00, 
2362.00, 
2363.00, 
2364.00, 
2365.00, 
2366.00, 
2367.00, 
2368.00, 
2369.00, 
2370.00, 
2371.00, 
2372.00, 
2373.00, 
2374.00, 
2375.00, 
2376.00, 
2377.00, 
2378.00, 
2379.00, 
2380.00, 
2381.00, 
2382.00, 
2383.00, 
2384.00, 
2385.00, 
2386.00, 
2387.00, 
2388.00, 
2389.00, 
2390.00, 
2391.00, 
2392.00, 
2393.00, 
2394.00, 
2395.00, 
2396.00, 
2397.00, 
2398.00, 
2399.00, 
2400.00, 
2401.00, 
2402.00, 
2403.00, 
2404.00, 
2405.00, 
2406.00, 
2407.00, 
2408.00, 
2409.00, 
2410.00, 
2411.00, 
2412.00, 
2413.00, 
2414.00, 
2415.00, 
2416.00, 
2417.00, 
2418.00, 
2419.00, 
2420.00, 
2421.00, 
2422.00, 
2423.00, 
2424.00, 
2425.00, 
2426.00, 
2427.00, 
2428.00, 
2429.00, 
2430.00, 
2431.00, 
2432.00, 
2433.00, 
2434.00, 
2435.00, 
2436.00, 
2437.00, 
2438.00, 
2439.00, 
2440.00, 
2441.00, 
2442.00, 
2443.00, 
2444.00, 
2445.00, 
2446.00, 
2447.00, 
2448.00, 
2449.00, 
2450.00, 
2451.00, 
2452.00, 
2453.00, 
2454.00, 
2455.00, 
2456.00, 
2457.00, 
2458.00, 
2459.00, 
2460.00, 
2461.00, 
2462.00, 
2463.00, 
2464.00, 
2465.00, 
2466.00, 
2467.00, 
2468.00, 
2469.00, 
2470.00, 
2471.00, 
2472.00, 
2473.00, 
2474.00, 
2475.00, 
2476.00, 
2477.00, 
2478.00, 
2479.00, 
2480.00, 
2481.00, 
2482.00, 
2483.00, 
2484.00, 
2485.00, 
2486.00, 
2487.00, 
2488.00, 
2489.00, 
2490.00, 
2491.00, 
2492.00, 
2493.00, 
2494.00, 
2495.00, 
2496.00, 
2497.00, 
2498.00, 
2499.00, 
2500.00, 
2501.00, 
2502.00, 
2503.00, 
2504.00, 
2505.00, 
2506.00, 
2507.00, 
2508.00, 
2509.00, 
2510.00, 
2511.00, 
2512.00, 
2513.00, 
2514.00, 
2515.00, 
2516.00, 
2517.00, 
2518.00, 
2519.00, 
2520.00, 
2521.00, 
2522.00, 
2523.00, 
2524.00, 
2525.00, 
2526.00, 
2527.00, 
2528.00, 
2529.00, 
2530.00, 
2531.00, 
2532.00, 
2533.00, 
2534.00, 
2535.00, 
2536.00, 
2537.00, 
2538.00, 
2539.00, 
2540.00, 
2541.00, 
2542.00, 
2543.00, 
2544.00, 
2545.00, 
2546.00, 
2547.00, 
2548.00, 
2549.00, 
2550.00, 
2551.00, 
2552.00, 
2553.00, 
2554.00, 
2555.00, 
2556.00, 
2557.00, 
2558.00, 
2559.00, 
2560.00, 
2561.00, 
2562.00, 
2563.00, 
2564.00, 
2565.00, 
2566.00, 
2567.00, 
2568.00, 
2569.00, 
2570.00, 
2571.00, 
2572.00, 
2573.00, 
2574.00, 
2575.00, 
2576.00, 
2577.00, 
2578.00, 
2579.00, 
2580.00, 
2581.00, 
2582.00, 
2583.00, 
2584.00, 
2585.00, 
2586.00, 
2587.00, 
2588.00, 
2589.00, 
2590.00, 
2591.00, 
2592.00, 
2593.00, 
2594.00, 
2595.00, 
2596.00, 
2597.00, 
2598.00, 
2599.00, 
2600.00, 
