"1cP4 - RawData"
"Wavelength nm.","T%"
200.00,0.002
201.00,-0.000
202.00,0.000
203.00,-0.001
204.00,0.004
205.00,-0.002
206.00,0.003
207.00,0.002
208.00,0.003
209.00,0.000
210.00,0.002
211.00,0.003
212.00,-0.001
213.00,0.001
214.00,0.001
215.00,-0.002
216.00,0.001
217.00,0.002
218.00,-0.000
219.00,0.000
220.00,-0.001
221.00,0.003
222.00,-0.001
223.00,0.001
224.00,0.000
225.00,-0.000
226.00,0.001
227.00,-0.000
228.00,-0.002
229.00,0.001
230.00,-0.001
231.00,0.000
232.00,-0.000
233.00,-0.000
234.00,0.002
235.00,0.000
236.00,0.001
237.00,0.001
238.00,0.001
239.00,-0.002
240.00,0.001
241.00,0.001
242.00,0.002
243.00,-0.000
244.00,0.000
245.00,-0.001
246.00,0.002
247.00,0.000
248.00,0.001
249.00,0.001
250.00,0.001
251.00,0.000
252.00,0.001
253.00,-0.001
254.00,0.001
255.00,0.003
256.00,0.002
257.00,0.000
258.00,-0.000
259.00,-0.002
260.00,0.000
261.00,-0.000
262.00,0.002
263.00,0.000
264.00,-0.002
265.00,-0.001
266.00,0.001
267.00,0.001
268.00,0.001
269.00,0.001
270.00,-0.000
271.00,0.001
272.00,-0.001
273.00,0.000
274.00,0.000
275.00,0.001
276.00,0.001
277.00,0.001
278.00,0.001
279.00,0.000
280.00,0.001
281.00,0.000
282.00,0.001
283.00,-0.000
284.00,-0.001
285.00,-0.001
286.00,0.000
287.00,-0.001
288.00,0.002
289.00,-0.000
290.00,-0.001
291.00,-0.001
292.00,0.001
293.00,0.001
294.00,0.000
295.00,-0.001
296.00,0.000
297.00,-0.001
298.00,0.001
299.00,0.000
300.00,-0.001
301.00,0.002
302.00,-0.001
303.00,0.002
304.00,0.002
305.00,0.002
306.00,0.001
307.00,0.003
308.00,0.007
309.00,0.011
310.00,0.019
311.00,0.031
312.00,0.045
313.00,0.073
314.00,0.108
315.00,0.156
316.00,0.222
317.00,0.311
318.00,0.424
319.00,0.582
320.00,0.771
321.00,1.003
322.00,1.285
323.00,1.619
324.00,2.001
325.00,2.401
326.00,2.859
327.00,3.372
328.00,3.984
329.00,4.474
330.00,5.220
331.00,5.865
332.00,6.593
333.00,7.380
334.00,8.143
335.00,8.940
336.00,9.751
337.00,10.595
338.00,11.407
339.00,12.157
340.00,12.961
341.00,13.773
342.00,14.530
343.00,15.224
344.00,15.921
345.00,16.659
346.00,17.294
347.00,17.893
348.00,18.478
349.00,19.054
350.00,19.558
351.00,20.039
352.00,20.518
353.00,20.970
354.00,21.375
355.00,21.753
356.00,22.151
357.00,22.447
358.00,22.779
359.00,23.122
360.00,23.410
361.00,23.598
362.00,23.851
363.00,24.085
364.00,24.228
365.00,24.376
366.00,24.566
367.00,24.620
368.00,24.675
369.00,24.800
370.00,24.858
371.00,24.860
372.00,24.845
373.00,24.846
374.00,24.867
375.00,24.843
376.00,24.751
377.00,24.699
378.00,24.564
379.00,24.491
380.00,24.490
381.00,24.457
382.00,24.493
383.00,24.524
384.00,24.584
385.00,24.673
386.00,24.739
387.00,24.865
388.00,24.987
389.00,25.012
390.00,25.080
391.00,25.107
392.00,25.180
393.00,25.201
394.00,25.240
395.00,25.295
396.00,25.293
397.00,25.316
398.00,25.366
399.00,25.324
400.00,25.344
401.00,25.383
402.00,25.363
403.00,25.380
404.00,25.411
405.00,25.379
406.00,25.370
407.00,25.346
408.00,25.341
409.00,25.295
410.00,25.211
411.00,25.225
412.00,25.221
413.00,25.223
414.00,25.139
415.00,25.186
416.00,25.251
417.00,25.208
418.00,25.245
419.00,25.347
420.00,25.386
421.00,25.407
422.00,25.414
423.00,25.436
424.00,25.501
425.00,25.524
426.00,25.586
427.00,25.602
428.00,25.656
429.00,25.694
430.00,25.780
431.00,25.798
432.00,25.817
433.00,25.880
434.00,25.944
435.00,26.021
436.00,26.105
437.00,26.138
438.00,26.219
439.00,26.252
440.00,26.367
441.00,26.437
442.00,26.525
443.00,26.552
444.00,26.703
445.00,26.745
446.00,26.841
447.00,26.948
448.00,27.051
449.00,27.206
450.00,27.295
451.00,27.373
452.00,27.445
453.00,27.616
454.00,27.667
455.00,27.761
456.00,27.938
457.00,28.048
458.00,28.150
459.00,28.267
460.00,28.409
461.00,28.574
462.00,28.681
463.00,28.822
464.00,28.991
465.00,29.112
466.00,29.236
467.00,29.352
468.00,29.486
469.00,29.603
470.00,29.650
471.00,29.713
472.00,29.853
473.00,29.935
474.00,30.077
475.00,30.157
476.00,30.252
477.00,30.389
478.00,30.449
479.00,30.712
480.00,30.754
481.00,30.858
482.00,31.164
483.00,31.114
484.00,31.372
485.00,31.533
486.00,31.680
487.00,31.800
488.00,31.931
489.00,32.090
490.00,32.168
491.00,32.314
492.00,32.569
493.00,32.697
494.00,32.682
495.00,32.801
496.00,32.974
497.00,33.067
498.00,33.173
499.00,33.322
500.00,33.491
501.00,33.535
502.00,33.705
503.00,33.817
504.00,33.864
505.00,33.990
506.00,34.088
507.00,34.225
508.00,34.367
509.00,34.491
510.00,34.575
511.00,34.640
512.00,34.833
513.00,34.956
514.00,35.061
515.00,35.169
516.00,35.288
517.00,35.350
518.00,35.554
519.00,35.550
520.00,35.603
521.00,35.742
522.00,35.781
523.00,35.888
524.00,35.947
525.00,36.028
526.00,36.147
527.00,36.181
528.00,36.238
529.00,36.389
530.00,36.582
531.00,36.680
532.00,36.700
533.00,36.870
534.00,36.923
535.00,36.961
536.00,37.050
537.00,37.132
538.00,37.169
539.00,37.249
540.00,37.313
541.00,37.308
542.00,37.369
543.00,37.429
544.00,37.508
545.00,37.584
546.00,37.663
547.00,37.764
548.00,37.709
549.00,37.833
550.00,37.949
551.00,38.033
552.00,38.086
553.00,38.141
554.00,38.209
555.00,38.232
556.00,38.308
557.00,38.361
558.00,38.452
559.00,38.476
560.00,38.555
561.00,38.636
562.00,38.689
563.00,38.716
564.00,38.752
565.00,38.811
566.00,38.857
567.00,38.865
568.00,38.872
569.00,38.936
570.00,38.899
571.00,39.002
572.00,39.068
573.00,38.963
574.00,38.967
575.00,38.996
576.00,39.014
577.00,39.056
578.00,39.172
579.00,39.244
580.00,39.230
581.00,39.439
582.00,39.472
583.00,39.391
584.00,39.478
585.00,39.620
586.00,39.700
587.00,39.775
588.00,39.714
589.00,39.669
590.00,39.769
591.00,39.821
592.00,39.769
593.00,39.822
594.00,39.964
595.00,40.040
596.00,40.076
597.00,40.155
598.00,40.165
599.00,40.166
600.00,40.221
601.00,40.224
602.00,40.243
603.00,40.310
604.00,40.304
605.00,40.405
606.00,40.416
607.00,40.364
608.00,40.500
609.00,40.690
610.00,40.434
611.00,40.572
612.00,40.712
613.00,40.737
614.00,40.713
615.00,40.804
616.00,40.908
617.00,40.879
618.00,40.780
619.00,40.913
620.00,40.958
621.00,40.963
622.00,41.109
623.00,41.210
624.00,41.195
625.00,41.254
626.00,41.334
627.00,41.368
628.00,41.417
629.00,41.403
630.00,41.522
631.00,41.529
632.00,41.605
633.00,41.739
634.00,41.833
635.00,41.873
636.00,41.942
637.00,41.954
638.00,41.967
639.00,42.139
640.00,42.101
641.00,42.166
642.00,42.284
643.00,42.307
644.00,42.331
645.00,42.422
646.00,42.578
647.00,42.626
648.00,42.610
649.00,42.698
650.00,42.707
651.00,42.810
652.00,42.904
653.00,42.912
654.00,42.953
655.00,43.167
656.00,43.375
657.00,43.351
658.00,43.459
659.00,43.567
660.00,43.462
661.00,43.366
662.00,43.706
663.00,43.597
664.00,43.935
665.00,44.107
666.00,44.007
667.00,43.986
668.00,43.862
669.00,44.277
670.00,44.530
671.00,44.421
672.00,44.254
673.00,44.481
674.00,44.478
675.00,44.609
676.00,44.828
677.00,45.064
678.00,44.757
679.00,45.014
680.00,45.119
681.00,45.279
682.00,45.301
683.00,45.265
684.00,45.443
685.00,45.420
686.00,45.247
687.00,45.446
688.00,45.586
689.00,45.550
690.00,45.819
691.00,46.018
692.00,45.813
693.00,45.797
694.00,45.988
695.00,46.238
696.00,46.187
697.00,46.139
698.00,46.222
699.00,46.523
700.00,46.482
701.00,46.413
702.00,46.530
703.00,46.774
704.00,46.820
705.00,46.612
706.00,46.767
707.00,46.916
708.00,46.548
709.00,47.025
710.00,47.415
711.00,46.958
712.00,47.044
713.00,47.117
714.00,47.177
715.00,47.205
716.00,47.239
717.00,47.275
718.00,47.568
719.00,47.777
720.00,47.582
721.00,52.148
722.00,52.169
723.00,52.142
724.00,52.076
725.00,52.197
726.00,52.184
727.00,52.129
728.00,52.168
729.00,52.202
730.00,52.250
731.00,52.201
732.00,52.179
733.00,52.286
734.00,52.268
735.00,52.345
736.00,52.331
737.00,52.293
738.00,52.355
739.00,52.442
740.00,52.354
741.00,52.409
742.00,52.472
743.00,52.323
744.00,52.441
745.00,52.342
746.00,52.417
747.00,52.426
748.00,52.331
749.00,52.351
750.00,52.331
751.00,52.396
752.00,52.312
753.00,52.375
754.00,52.289
755.00,52.296
756.00,52.351
757.00,52.305
758.00,52.302
759.00,52.293
760.00,52.372
761.00,52.329
762.00,52.244
763.00,52.390
764.00,52.268
765.00,52.325
766.00,52.311
767.00,52.337
768.00,52.386
769.00,52.356
770.00,52.342
771.00,52.293
772.00,52.332
773.00,52.332
774.00,52.377
775.00,52.348
776.00,52.320
777.00,52.414
778.00,52.319
779.00,52.307
780.00,52.396
781.00,52.287
782.00,52.334
783.00,52.264
784.00,52.320
785.00,52.213
786.00,52.293
787.00,52.263
788.00,52.264
789.00,52.239
790.00,52.179
791.00,52.237
792.00,52.117
793.00,52.171
794.00,52.112
795.00,52.135
796.00,52.073
797.00,52.045
798.00,52.071
799.00,51.984
800.00,52.016
801.00,51.952
802.00,51.918
803.00,51.967
804.00,51.918
805.00,51.906
806.00,51.867
807.00,51.874
808.00,51.824
809.00,51.855
810.00,51.798
811.00,51.821
812.00,51.764
813.00,51.770
814.00,51.780
815.00,51.661
816.00,51.795
817.00,51.790
818.00,51.595
819.00,51.667
820.00,51.584
821.00,51.593
822.00,51.578
823.00,51.496
824.00,51.587
825.00,51.516
826.00,51.542
827.00,51.603
828.00,51.547
829.00,51.456
830.00,51.488
831.00,53.762
832.00,53.759
833.00,53.724
834.00,53.750
835.00,53.685
836.00,53.680
837.00,53.626
838.00,53.625
839.00,53.613
840.00,53.529
841.00,53.571
842.00,53.561
843.00,53.541
844.00,53.526
845.00,53.487
846.00,53.479
847.00,53.454
848.00,53.421
849.00,53.373
850.00,53.346
851.00,53.299
852.00,53.311
853.00,53.238
854.00,53.245
855.00,53.163
856.00,53.134
857.00,53.307
858.00,53.088
859.00,53.076
860.00,53.051
861.00,53.049
862.00,53.069
863.00,53.062
864.00,52.986
865.00,53.048
866.00,52.994
867.00,52.992
868.00,52.969
869.00,52.939
870.00,52.934
871.00,52.927
872.00,52.911
873.00,52.872
874.00,52.878
875.00,52.851
876.00,52.865
877.00,52.858
878.00,52.888
879.00,52.831
880.00,52.799
881.00,52.772
882.00,52.826
883.00,52.747
884.00,52.717
885.00,52.736
886.00,52.715
887.00,52.610
888.00,52.635
889.00,52.622
890.00,52.640
891.00,52.549
892.00,52.566
893.00,52.534
894.00,52.523
895.00,52.497
896.00,52.507
897.00,52.460
898.00,52.432
899.00,52.449
900.00,52.397
901.00,52.432
902.00,52.419
903.00,52.372
904.00,52.366
905.00,52.337
906.00,52.373
907.00,52.247
908.00,52.257
909.00,52.256
910.00,52.213
911.00,52.235
912.00,52.209
913.00,52.158
914.00,52.149
915.00,52.132
916.00,52.096
917.00,52.099
918.00,52.078
919.00,52.031
920.00,52.011
921.00,51.976
922.00,51.984
923.00,51.968
924.00,51.943
925.00,51.966
926.00,51.926
927.00,51.885
928.00,51.999
929.00,51.875
930.00,51.849
931.00,51.841
932.00,51.761
933.00,51.811
934.00,51.779
935.00,51.750
936.00,51.724
937.00,51.723
938.00,51.705
939.00,51.701
940.00,51.679
941.00,51.674
942.00,51.617
943.00,51.593
944.00,51.568
945.00,51.581
946.00,51.557
947.00,51.518
948.00,51.509
949.00,51.481
950.00,51.483
951.00,51.443
952.00,51.411
953.00,51.388
954.00,51.352
955.00,51.310
956.00,51.303
957.00,51.271
958.00,51.296
959.00,51.232
960.00,51.224
961.00,51.226
962.00,51.221
963.00,51.161
964.00,51.179
965.00,51.168
966.00,51.136
967.00,51.137
968.00,51.124
969.00,51.134
970.00,51.115
971.00,51.128
972.00,51.089
973.00,51.115
974.00,51.135
975.00,51.114
976.00,51.144
977.00,51.110
978.00,51.154
979.00,51.108
980.00,51.127
981.00,51.142
982.00,51.106
983.00,51.121
984.00,51.098
985.00,51.111
986.00,51.082
987.00,51.072
988.00,51.013
989.00,51.036
990.00,51.032
991.00,51.022
992.00,51.050
993.00,51.002
994.00,50.996
995.00,50.982
996.00,50.962
997.00,50.965
998.00,50.934
999.00,50.962
1000.00,50.928
1001.00,50.909
1002.00,50.920
1003.00,50.923
1004.00,50.893
1005.00,50.849
1006.00,50.892
1007.00,50.862
1008.00,50.852
1009.00,50.815
1010.00,50.803
1011.00,50.799
1012.00,50.761
1013.00,50.757
1014.00,50.750
1015.00,50.743
1016.00,50.688
1017.00,50.687
1018.00,50.678
1019.00,50.666
1020.00,50.639
1021.00,50.621
1022.00,50.626
1023.00,50.573
1024.00,50.588
1025.00,50.573
1026.00,50.556
1027.00,50.539
1028.00,50.528
1029.00,50.505
1030.00,50.484
1031.00,50.480
1032.00,50.439
1033.00,50.463
1034.00,50.423
1035.00,50.384
1036.00,50.367
1037.00,50.359
1038.00,50.355
1039.00,50.330
1040.00,50.315
1041.00,50.285
1042.00,50.280
1043.00,50.259
1044.00,50.297
1045.00,50.269
1046.00,50.249
1047.00,50.281
1048.00,50.283
1049.00,50.312
1050.00,50.313
1051.00,50.344
1052.00,50.344
1053.00,50.334
1054.00,50.328
1055.00,50.351
1056.00,50.353
1057.00,50.352
1058.00,50.336
1059.00,50.322
1060.00,50.349
1061.00,50.328
1062.00,50.307
1063.00,50.338
1064.00,50.339
1065.00,50.349
1066.00,50.325
1067.00,50.310
1068.00,50.337
1069.00,50.307
1070.00,50.290
1071.00,50.277
1072.00,50.294
1073.00,50.262
1074.00,50.271
1075.00,50.242
1076.00,50.241
1077.00,50.229
1078.00,50.196
1079.00,50.204
1080.00,50.219
1081.00,50.207
1082.00,50.216
1083.00,50.199
1084.00,50.187
1085.00,50.190
1086.00,50.160
1087.00,50.158
1088.00,50.142
1089.00,50.132
1090.00,50.143
1091.00,50.141
1092.00,50.122
1093.00,50.112
1094.00,50.093
1095.00,50.100
1096.00,50.117
1097.00,50.071
1098.00,50.072
1099.00,50.053
1100.00,50.047
1101.00,50.045
1102.00,50.039
1103.00,50.029
1104.00,50.014
1105.00,50.013
1106.00,49.982
1107.00,49.978
1108.00,49.981
1109.00,49.967
1110.00,49.973
1111.00,49.960
1112.00,49.940
1113.00,49.955
1114.00,49.937
1115.00,49.961
1116.00,49.943
1117.00,49.914
1118.00,49.910
1119.00,49.898
1120.00,49.884
1121.00,49.882
1122.00,49.865
1123.00,49.847
1124.00,49.861
1125.00,49.853
1126.00,49.868
1127.00,49.846
1128.00,49.827
1129.00,49.837
1130.00,49.818
1131.00,49.825
1132.00,49.828
1133.00,49.807
1134.00,49.783
1135.00,49.781
1136.00,49.790
1137.00,49.797
1138.00,49.799
1139.00,49.790
1140.00,49.793
1141.00,49.769
1142.00,49.766
1143.00,49.803
1144.00,49.750
1145.00,49.759
1146.00,49.765
1147.00,49.760
1148.00,49.755
1149.00,49.779
1150.00,49.773
1151.00,49.761
1152.00,49.755
1153.00,49.748
1154.00,49.746
1155.00,49.736
1156.00,49.734
1157.00,49.774
1158.00,49.729
1159.00,49.749
1160.00,49.729
1161.00,49.741
1162.00,49.751
1163.00,49.725
1164.00,49.733
1165.00,49.727
1166.00,49.731
1167.00,49.714
1168.00,49.733
1169.00,49.718
1170.00,49.710
1171.00,49.685
1172.00,49.701
1173.00,49.708
1174.00,49.711
1175.00,49.705
1176.00,49.725
1177.00,49.711
1178.00,49.712
1179.00,49.738
1180.00,49.720
1181.00,49.751
1182.00,49.738
1183.00,49.723
1184.00,49.728
1185.00,49.724
1186.00,49.721
1187.00,49.745
1188.00,49.719
1189.00,49.708
1190.00,49.708
1191.00,49.703
1192.00,49.738
1193.00,49.712
1194.00,49.707
1195.00,49.684
1196.00,49.693
1197.00,49.696
1198.00,49.697
1199.00,49.681
1200.00,49.717
1201.00,49.727
1202.00,49.697
1203.00,49.745
1204.00,49.701
1205.00,49.714
1206.00,49.714
1207.00,49.689
1208.00,49.689
1209.00,49.696
1210.00,49.702
1211.00,49.701
1212.00,49.722
1213.00,49.691
1214.00,49.721
1215.00,49.714
1216.00,49.702
1217.00,49.718
1218.00,49.726
1219.00,49.731
1220.00,49.720
1221.00,49.731
1222.00,49.714
1223.00,49.749
1224.00,49.739
1225.00,49.736
1226.00,49.727
1227.00,49.714
1228.00,49.734
1229.00,49.716
1230.00,49.751
1231.00,49.749
1232.00,49.774
1233.00,49.775
1234.00,49.780
1235.00,49.777
1236.00,49.780
1237.00,49.773
1238.00,49.775
1239.00,49.789
1240.00,49.745
1241.00,49.768
1242.00,49.778
1243.00,49.777
1244.00,49.769
1245.00,49.832
1246.00,49.831
1247.00,49.808
1248.00,49.808
1249.00,49.825
1250.00,49.846
1251.00,49.818
1252.00,49.842
1253.00,49.839
1254.00,49.856
1255.00,49.844
1256.00,49.836
1257.00,49.829
1258.00,49.884
1259.00,49.855
1260.00,49.884
1261.00,49.876
1262.00,49.861
1263.00,49.869
1264.00,49.886
1265.00,49.891
1266.00,49.881
1267.00,49.915
1268.00,49.910
1269.00,49.921
1270.00,49.930
1271.00,49.923
1272.00,49.936
1273.00,49.930
1274.00,49.950
1275.00,49.970
1276.00,49.952
1277.00,49.971
1278.00,49.999
1279.00,49.994
1280.00,49.987
1281.00,50.001
1282.00,50.004
1283.00,50.002
1284.00,49.993
1285.00,49.984
1286.00,50.016
1287.00,49.997
1288.00,50.008
1289.00,50.009
1290.00,50.042
1291.00,50.062
1292.00,50.048
1293.00,50.060
1294.00,50.087
1295.00,50.079
1296.00,50.083
1297.00,50.099
1298.00,50.109
1299.00,50.093
1300.00,50.107
1301.00,50.085
1302.00,50.126
1303.00,50.118
1304.00,50.094
1305.00,50.142
1306.00,50.144
1307.00,50.157
1308.00,50.185
1309.00,50.201
1310.00,50.188
1311.00,50.172
1312.00,50.179
1313.00,50.190
1314.00,50.207
1315.00,50.204
1316.00,50.214
1317.00,50.231
1318.00,50.240
1319.00,50.249
1320.00,50.236
1321.00,50.432
1322.00,50.437
1323.00,50.420
1324.00,50.410
1325.00,50.390
1326.00,50.405
1327.00,50.425
1328.00,50.397
1329.00,50.396
1330.00,50.421
1331.00,50.397
1332.00,50.400
1333.00,50.422
1334.00,50.424
1335.00,50.468
1336.00,50.469
1337.00,50.549
1338.00,50.606
1339.00,50.618
1340.00,50.677
1341.00,50.759
1342.00,50.805
1343.00,50.853
1344.00,50.906
1345.00,50.959
1346.00,50.996
1347.00,51.015
1348.00,51.032
1349.00,51.101
1350.00,51.061
1351.00,51.117
1352.00,51.131
1353.00,50.682
1354.00,51.119
1355.00,51.090
1356.00,51.087
1357.00,51.144
1358.00,51.201
1359.00,51.188
1360.00,51.212
1361.00,51.227
1362.00,51.164
1363.00,51.215
1364.00,51.279
1365.00,51.193
1366.00,51.261
1367.00,51.173
1368.00,51.178
1369.00,51.221
1370.00,51.154
1371.00,51.145
1372.00,51.154
1373.00,51.198
1374.00,51.225
1375.00,51.187
1376.00,51.183
1377.00,51.199
1378.00,51.248
1379.00,51.215
1380.00,51.223
1381.00,51.250
1382.00,51.157
1383.00,51.252
1384.00,51.155
1385.00,51.152
1386.00,51.200
1387.00,51.133
1388.00,51.178
1389.00,51.221
1390.00,51.141
1391.00,51.152
1392.00,51.206
1393.00,51.226
1394.00,51.205
1395.00,51.164
1396.00,51.146
1397.00,51.133
1398.00,51.233
1399.00,51.149
1400.00,51.141
1401.00,51.144
1402.00,51.286
1403.00,51.195
1404.00,51.213
1405.00,51.246
1406.00,51.223
1407.00,51.263
1408.00,51.298
1409.00,51.275
1410.00,51.283
1411.00,51.263
1412.00,51.400
1413.00,51.276
1414.00,51.247
1415.00,51.325
1416.00,51.331
1417.00,51.394
1418.00,51.354
1419.00,51.319
1420.00,51.375
1421.00,51.432
1422.00,51.410
1423.00,51.422
1424.00,51.406
1425.00,51.431
1426.00,51.459
1427.00,51.481
1428.00,51.453
1429.00,51.485
1430.00,51.481
1431.00,51.496
1432.00,51.560
1433.00,51.571
1434.00,51.566
1435.00,51.622
1436.00,51.622
1437.00,51.638
1438.00,51.642
1439.00,51.684
1440.00,51.714
1441.00,51.702
1442.00,51.714
1443.00,51.756
1444.00,51.846
1445.00,51.763
1446.00,51.772
1447.00,51.807
1448.00,51.858
1449.00,51.855
1450.00,51.860
1451.00,51.893
1452.00,51.894
1453.00,51.911
1454.00,51.943
1455.00,51.960
1456.00,51.968
1457.00,51.964
1458.00,51.997
1459.00,52.026
1460.00,52.040
1461.00,52.047
1462.00,52.098
1463.00,52.063
1464.00,52.096
1465.00,52.118
1466.00,52.099
1467.00,52.137
1468.00,52.200
1469.00,52.163
1470.00,52.202
1471.00,52.206
1472.00,52.221
1473.00,52.261
1474.00,52.278
1475.00,52.297
1476.00,52.319
1477.00,52.294
1478.00,52.327
1479.00,52.344
1480.00,52.342
1481.00,52.358
1482.00,52.379
1483.00,52.394
1484.00,52.440
1485.00,52.418
1486.00,52.453
1487.00,52.463
1488.00,52.464
1489.00,52.479
1490.00,52.513
1491.00,52.513
1492.00,52.551
1493.00,52.509
1494.00,52.556
1495.00,52.558
1496.00,52.565
1497.00,52.566
1498.00,52.595
1499.00,52.593
1500.00,52.630
1501.00, 
1502.00, 
1503.00, 
1504.00, 
1505.00, 
1506.00, 
1507.00, 
1508.00, 
1509.00, 
1510.00, 
1511.00, 
1512.00, 
1513.00, 
1514.00, 
1515.00, 
1516.00, 
1517.00, 
1518.00, 
1519.00, 
1520.00, 
1521.00, 
1522.00, 
1523.00, 
1524.00, 
1525.00, 
1526.00, 
1527.00, 
1528.00, 
1529.00, 
1530.00, 
1531.00, 
1532.00, 
1533.00, 
1534.00, 
1535.00, 
1536.00, 
1537.00, 
1538.00, 
1539.00, 
1540.00, 
1541.00, 
1542.00, 
1543.00, 
1544.00, 
1545.00, 
1546.00, 
1547.00, 
1548.00, 
1549.00, 
1550.00, 
1551.00, 
1552.00, 
1553.00, 
1554.00, 
1555.00, 
1556.00, 
1557.00, 
1558.00, 
1559.00, 
1560.00, 
1561.00, 
1562.00, 
1563.00, 
1564.00, 
1565.00, 
1566.00, 
1567.00, 
1568.00, 
1569.00, 
1570.00, 
1571.00, 
1572.00, 
1573.00, 
1574.00, 
1575.00, 
1576.00, 
1577.00, 
1578.00, 
1579.00, 
1580.00, 
1581.00, 
1582.00, 
1583.00, 
1584.00, 
1585.00, 
1586.00, 
1587.00, 
1588.00, 
1589.00, 
1590.00, 
1591.00, 
1592.00, 
1593.00, 
1594.00, 
1595.00, 
1596.00, 
1597.00, 
1598.00, 
1599.00, 
1600.00, 
1601.00, 
1602.00, 
1603.00, 
1604.00, 
1605.00, 
1606.00, 
1607.00, 
1608.00, 
1609.00, 
1610.00, 
1611.00, 
1612.00, 
1613.00, 
1614.00, 
1615.00, 
1616.00, 
1617.00, 
1618.00, 
1619.00, 
1620.00, 
1621.00, 
1622.00, 
1623.00, 
1624.00, 
1625.00, 
1626.00, 
1627.00, 
1628.00, 
1629.00, 
1630.00, 
1631.00, 
1632.00, 
1633.00, 
1634.00, 
1635.00, 
1636.00, 
1637.00, 
1638.00, 
1639.00, 
1640.00, 
1641.00, 
1642.00, 
1643.00, 
1644.00, 
1645.00, 
1646.00, 
1647.00, 
1648.00, 
1649.00, 
1650.00, 
1651.00, 
1652.00, 
1653.00, 
1654.00, 
1655.00, 
1656.00, 
1657.00, 
1658.00, 
1659.00, 
1660.00, 
1661.00, 
1662.00, 
1663.00, 
1664.00, 
1665.00, 
1666.00, 
1667.00, 
1668.00, 
1669.00, 
1670.00, 
1671.00, 
1672.00, 
1673.00, 
1674.00, 
1675.00, 
1676.00, 
1677.00, 
1678.00, 
1679.00, 
1680.00, 
1681.00, 
1682.00, 
1683.00, 
1684.00, 
1685.00, 
1686.00, 
1687.00, 
1688.00, 
1689.00, 
1690.00, 
1691.00, 
1692.00, 
1693.00, 
1694.00, 
1695.00, 
1696.00, 
1697.00, 
1698.00, 
1699.00, 
1700.00, 
1701.00, 
1702.00, 
1703.00, 
1704.00, 
1705.00, 
1706.00, 
1707.00, 
1708.00, 
1709.00, 
1710.00, 
1711.00, 
1712.00, 
1713.00, 
1714.00, 
1715.00, 
1716.00, 
1717.00, 
1718.00, 
1719.00, 
1720.00, 
1721.00, 
1722.00, 
1723.00, 
1724.00, 
1725.00, 
1726.00, 
1727.00, 
1728.00, 
1729.00, 
1730.00, 
1731.00, 
1732.00, 
1733.00, 
1734.00, 
1735.00, 
1736.00, 
1737.00, 
1738.00, 
1739.00, 
1740.00, 
1741.00, 
1742.00, 
1743.00, 
1744.00, 
1745.00, 
1746.00, 
1747.00, 
1748.00, 
1749.00, 
1750.00, 
1751.00, 
1752.00, 
1753.00, 
1754.00, 
1755.00, 
1756.00, 
1757.00, 
1758.00, 
1759.00, 
1760.00, 
1761.00, 
1762.00, 
1763.00, 
1764.00, 
1765.00, 
1766.00, 
1767.00, 
1768.00, 
1769.00, 
1770.00, 
1771.00, 
1772.00, 
1773.00, 
1774.00, 
1775.00, 
1776.00, 
1777.00, 
1778.00, 
1779.00, 
1780.00, 
1781.00, 
1782.00, 
1783.00, 
1784.00, 
1785.00, 
1786.00, 
1787.00, 
1788.00, 
1789.00, 
1790.00, 
1791.00, 
1792.00, 
1793.00, 
1794.00, 
1795.00, 
1796.00, 
1797.00, 
1798.00, 
1799.00, 
1800.00, 
1801.00, 
1802.00, 
1803.00, 
1804.00, 
1805.00, 
1806.00, 
1807.00, 
1808.00, 
1809.00, 
1810.00, 
1811.00, 
1812.00, 
1813.00, 
1814.00, 
1815.00, 
1816.00, 
1817.00, 
1818.00, 
1819.00, 
1820.00, 
1821.00, 
1822.00, 
1823.00, 
1824.00, 
1825.00, 
1826.00, 
1827.00, 
1828.00, 
1829.00, 
1830.00, 
1831.00, 
1832.00, 
1833.00, 
1834.00, 
1835.00, 
1836.00, 
1837.00, 
1838.00, 
1839.00, 
1840.00, 
1841.00, 
1842.00, 
1843.00, 
1844.00, 
1845.00, 
1846.00, 
1847.00, 
1848.00, 
1849.00, 
1850.00, 
1851.00, 
1852.00, 
1853.00, 
1854.00, 
1855.00, 
1856.00, 
1857.00, 
1858.00, 
1859.00, 
1860.00, 
1861.00, 
1862.00, 
1863.00, 
1864.00, 
1865.00, 
1866.00, 
1867.00, 
1868.00, 
1869.00, 
1870.00, 
1871.00, 
1872.00, 
1873.00, 
1874.00, 
1875.00, 
1876.00, 
1877.00, 
1878.00, 
1879.00, 
1880.00, 
1881.00, 
1882.00, 
1883.00, 
1884.00, 
1885.00, 
1886.00, 
1887.00, 
1888.00, 
1889.00, 
1890.00, 
1891.00, 
1892.00, 
1893.00, 
1894.00, 
1895.00, 
1896.00, 
1897.00, 
1898.00, 
1899.00, 
1900.00, 
1901.00, 
1902.00, 
1903.00, 
1904.00, 
1905.00, 
1906.00, 
1907.00, 
1908.00, 
1909.00, 
1910.00, 
1911.00, 
1912.00, 
1913.00, 
1914.00, 
1915.00, 
1916.00, 
1917.00, 
1918.00, 
1919.00, 
1920.00, 
1921.00, 
1922.00, 
1923.00, 
1924.00, 
1925.00, 
1926.00, 
1927.00, 
1928.00, 
1929.00, 
1930.00, 
1931.00, 
1932.00, 
1933.00, 
1934.00, 
1935.00, 
1936.00, 
1937.00, 
1938.00, 
1939.00, 
1940.00, 
1941.00, 
1942.00, 
1943.00, 
1944.00, 
1945.00, 
1946.00, 
1947.00, 
1948.00, 
1949.00, 
1950.00, 
1951.00, 
1952.00, 
1953.00, 
1954.00, 
1955.00, 
1956.00, 
1957.00, 
1958.00, 
1959.00, 
1960.00, 
1961.00, 
1962.00, 
1963.00, 
1964.00, 
1965.00, 
1966.00, 
1967.00, 
1968.00, 
1969.00, 
1970.00, 
1971.00, 
1972.00, 
1973.00, 
1974.00, 
1975.00, 
1976.00, 
1977.00, 
1978.00, 
1979.00, 
1980.00, 
1981.00, 
1982.00, 
1983.00, 
1984.00, 
1985.00, 
1986.00, 
1987.00, 
1988.00, 
1989.00, 
1990.00, 
1991.00, 
1992.00, 
1993.00, 
1994.00, 
1995.00, 
1996.00, 
1997.00, 
1998.00, 
1999.00, 
2000.00, 
2001.00, 
2002.00, 
2003.00, 
2004.00, 
2005.00, 
2006.00, 
2007.00, 
2008.00, 
2009.00, 
2010.00, 
2011.00, 
2012.00, 
2013.00, 
2014.00, 
2015.00, 
2016.00, 
2017.00, 
2018.00, 
2019.00, 
2020.00, 
2021.00, 
2022.00, 
2023.00, 
2024.00, 
2025.00, 
2026.00, 
2027.00, 
2028.00, 
2029.00, 
2030.00, 
2031.00, 
2032.00, 
2033.00, 
2034.00, 
2035.00, 
2036.00, 
2037.00, 
2038.00, 
2039.00, 
2040.00, 
2041.00, 
2042.00, 
2043.00, 
2044.00, 
2045.00, 
2046.00, 
2047.00, 
2048.00, 
2049.00, 
2050.00, 
2051.00, 
2052.00, 
2053.00, 
2054.00, 
2055.00, 
2056.00, 
2057.00, 
2058.00, 
2059.00, 
2060.00, 
2061.00, 
2062.00, 
2063.00, 
2064.00, 
2065.00, 
2066.00, 
2067.00, 
2068.00, 
2069.00, 
2070.00, 
2071.00, 
2072.00, 
2073.00, 
2074.00, 
2075.00, 
2076.00, 
2077.00, 
2078.00, 
2079.00, 
2080.00, 
2081.00, 
2082.00, 
2083.00, 
2084.00, 
2085.00, 
2086.00, 
2087.00, 
2088.00, 
2089.00, 
2090.00, 
2091.00, 
2092.00, 
2093.00, 
2094.00, 
2095.00, 
2096.00, 
2097.00, 
2098.00, 
2099.00, 
2100.00, 
2101.00, 
2102.00, 
2103.00, 
2104.00, 
2105.00, 
2106.00, 
2107.00, 
2108.00, 
2109.00, 
2110.00, 
2111.00, 
2112.00, 
2113.00, 
2114.00, 
2115.00, 
2116.00, 
2117.00, 
2118.00, 
2119.00, 
2120.00, 
2121.00, 
2122.00, 
2123.00, 
2124.00, 
2125.00, 
2126.00, 
2127.00, 
2128.00, 
2129.00, 
2130.00, 
2131.00, 
2132.00, 
2133.00, 
2134.00, 
2135.00, 
2136.00, 
2137.00, 
2138.00, 
2139.00, 
2140.00, 
2141.00, 
2142.00, 
2143.00, 
2144.00, 
2145.00, 
2146.00, 
2147.00, 
2148.00, 
2149.00, 
2150.00, 
2151.00, 
2152.00, 
2153.00, 
2154.00, 
2155.00, 
2156.00, 
2157.00, 
2158.00, 
2159.00, 
2160.00, 
2161.00, 
2162.00, 
2163.00, 
2164.00, 
2165.00, 
2166.00, 
2167.00, 
2168.00, 
2169.00, 
2170.00, 
2171.00, 
2172.00, 
2173.00, 
2174.00, 
2175.00, 
2176.00, 
2177.00, 
2178.00, 
2179.00, 
2180.00, 
2181.00, 
2182.00, 
2183.00, 
2184.00, 
2185.00, 
2186.00, 
2187.00, 
2188.00, 
2189.00, 
2190.00, 
2191.00, 
2192.00, 
2193.00, 
2194.00, 
2195.00, 
2196.00, 
2197.00, 
2198.00, 
2199.00, 
2200.00, 
2201.00, 
2202.00, 
2203.00, 
2204.00, 
2205.00, 
2206.00, 
2207.00, 
2208.00, 
2209.00, 
2210.00, 
2211.00, 
2212.00, 
2213.00, 
2214.00, 
2215.00, 
2216.00, 
2217.00, 
2218.00, 
2219.00, 
2220.00, 
2221.00, 
2222.00, 
2223.00, 
2224.00, 
2225.00, 
2226.00, 
2227.00, 
2228.00, 
2229.00, 
2230.00, 
2231.00, 
2232.00, 
2233.00, 
2234.00, 
2235.00, 
2236.00, 
2237.00, 
2238.00, 
2239.00, 
2240.00, 
2241.00, 
2242.00, 
2243.00, 
2244.00, 
2245.00, 
2246.00, 
2247.00, 
2248.00, 
2249.00, 
2250.00, 
2251.00, 
2252.00, 
2253.00, 
2254.00, 
2255.00, 
2256.00, 
2257.00, 
2258.00, 
2259.00, 
2260.00, 
2261.00, 
2262.00, 
2263.00, 
2264.00, 
2265.00, 
2266.00, 
2267.00, 
2268.00, 
2269.00, 
2270.00, 
2271.00, 
2272.00, 
2273.00, 
2274.00, 
2275.00, 
2276.00, 
2277.00, 
2278.00, 
2279.00, 
2280.00, 
2281.00, 
2282.00, 
2283.00, 
2284.00, 
2285.00, 
2286.00, 
2287.00, 
2288.00, 
2289.00, 
2290.00, 
2291.00, 
2292.00, 
2293.00, 
2294.00, 
2295.00, 
2296.00, 
2297.00, 
2298.00, 
2299.00, 
2300.00, 
2301.00, 
2302.00, 
2303.00, 
2304.00, 
2305.00, 
2306.00, 
2307.00, 
2308.00, 
2309.00, 
2310.00, 
2311.00, 
2312.00, 
2313.00, 
2314.00, 
2315.00, 
2316.00, 
2317.00, 
2318.00, 
2319.00, 
2320.00, 
2321.00, 
2322.00, 
2323.00, 
2324.00, 
2325.00, 
2326.00, 
2327.00, 
2328.00, 
2329.00, 
2330.00, 
2331.00, 
2332.00, 
2333.00, 
2334.00, 
2335.00, 
2336.00, 
2337.00, 
2338.00, 
2339.00, 
2340.00, 
2341.00, 
2342.00, 
2343.00, 
2344.00, 
2345.00, 
2346.00, 
2347.00, 
2348.00, 
2349.00, 
2350.00, 
2351.00, 
2352.00, 
2353.00, 
2354.00, 
2355.00, 
2356.00, 
2357.00, 
2358.00, 
2359.00, 
2360.00, 
2361.00, 
2362.00, 
2363.00, 
2364.00, 
2365.00, 
2366.00, 
2367.00, 
2368.00, 
2369.00, 
2370.00, 
2371.00, 
2372.00, 
2373.00, 
2374.00, 
2375.00, 
2376.00, 
2377.00, 
2378.00, 
2379.00, 
2380.00, 
2381.00, 
2382.00, 
2383.00, 
2384.00, 
2385.00, 
2386.00, 
2387.00, 
2388.00, 
2389.00, 
2390.00, 
2391.00, 
2392.00, 
2393.00, 
2394.00, 
2395.00, 
2396.00, 
2397.00, 
2398.00, 
2399.00, 
2400.00, 
2401.00, 
2402.00, 
2403.00, 
2404.00, 
2405.00, 
2406.00, 
2407.00, 
2408.00, 
2409.00, 
2410.00, 
2411.00, 
2412.00, 
2413.00, 
2414.00, 
2415.00, 
2416.00, 
2417.00, 
2418.00, 
2419.00, 
2420.00, 
2421.00, 
2422.00, 
2423.00, 
2424.00, 
2425.00, 
2426.00, 
2427.00, 
2428.00, 
2429.00, 
2430.00, 
2431.00, 
2432.00, 
2433.00, 
2434.00, 
2435.00, 
2436.00, 
2437.00, 
2438.00, 
2439.00, 
2440.00, 
2441.00, 
2442.00, 
2443.00, 
2444.00, 
2445.00, 
2446.00, 
2447.00, 
2448.00, 
2449.00, 
2450.00, 
2451.00, 
2452.00, 
2453.00, 
2454.00, 
2455.00, 
2456.00, 
2457.00, 
2458.00, 
2459.00, 
2460.00, 
2461.00, 
2462.00, 
2463.00, 
2464.00, 
2465.00, 
2466.00, 
2467.00, 
2468.00, 
2469.00, 
2470.00, 
2471.00, 
2472.00, 
2473.00, 
2474.00, 
2475.00, 
2476.00, 
2477.00, 
2478.00, 
2479.00, 
2480.00, 
2481.00, 
2482.00, 
2483.00, 
2484.00, 
2485.00, 
2486.00, 
2487.00, 
2488.00, 
2489.00, 
2490.00, 
2491.00, 
2492.00, 
2493.00, 
2494.00, 
2495.00, 
2496.00, 
2497.00, 
2498.00, 
2499.00, 
2500.00, 
2501.00, 
2502.00, 
2503.00, 
2504.00, 
2505.00, 
2506.00, 
2507.00, 
2508.00, 
2509.00, 
2510.00, 
2511.00, 
2512.00, 
2513.00, 
2514.00, 
2515.00, 
2516.00, 
2517.00, 
2518.00, 
2519.00, 
2520.00, 
2521.00, 
2522.00, 
2523.00, 
2524.00, 
2525.00, 
2526.00, 
2527.00, 
2528.00, 
2529.00, 
2530.00, 
2531.00, 
2532.00, 
2533.00, 
2534.00, 
2535.00, 
2536.00, 
2537.00, 
2538.00, 
2539.00, 
2540.00, 
2541.00, 
2542.00, 
2543.00, 
2544.00, 
2545.00, 
2546.00, 
2547.00, 
2548.00, 
2549.00, 
2550.00, 
2551.00, 
2552.00, 
2553.00, 
2554.00, 
2555.00, 
2556.00, 
2557.00, 
2558.00, 
2559.00, 
2560.00, 
2561.00, 
2562.00, 
2563.00, 
2564.00, 
2565.00, 
2566.00, 
2567.00, 
2568.00, 
2569.00, 
2570.00, 
2571.00, 
2572.00, 
2573.00, 
2574.00, 
2575.00, 
2576.00, 
2577.00, 
2578.00, 
2579.00, 
2580.00, 
2581.00, 
2582.00, 
2583.00, 
2584.00, 
2585.00, 
2586.00, 
2587.00, 
2588.00, 
2589.00, 
2590.00, 
2591.00, 
2592.00, 
2593.00, 
2594.00, 
2595.00, 
2596.00, 
2597.00, 
2598.00, 
2599.00, 
2600.00, 
