"1cP5 - RawData"
"Wavelength nm.","T%"
200.00,0.001
201.00,0.000
202.00,0.002
203.00,-0.001
204.00,-0.000
205.00,0.004
206.00,-0.001
207.00,-0.003
208.00,0.000
209.00,0.001
210.00,0.002
211.00,0.002
212.00,0.003
213.00,-0.001
214.00,0.001
215.00,0.000
216.00,0.000
217.00,-0.000
218.00,0.002
219.00,-0.000
220.00,0.000
221.00,0.000
222.00,0.002
223.00,0.002
224.00,0.001
225.00,0.000
226.00,-0.001
227.00,-0.001
228.00,-0.001
229.00,0.001
230.00,0.001
231.00,0.001
232.00,0.000
233.00,0.002
234.00,0.002
235.00,0.001
236.00,0.002
237.00,0.000
238.00,0.003
239.00,0.002
240.00,0.001
241.00,0.001
242.00,0.001
243.00,-0.000
244.00,0.001
245.00,-0.001
246.00,0.001
247.00,-0.000
248.00,0.001
249.00,0.001
250.00,0.001
251.00,0.001
252.00,0.002
253.00,0.002
254.00,-0.001
255.00,0.000
256.00,0.002
257.00,-0.000
258.00,0.001
259.00,-0.001
260.00,0.002
261.00,0.001
262.00,0.001
263.00,0.000
264.00,0.001
265.00,-0.002
266.00,-0.001
267.00,0.000
268.00,-0.001
269.00,0.001
270.00,0.001
271.00,-0.000
272.00,0.001
273.00,0.001
274.00,-0.001
275.00,0.002
276.00,-0.001
277.00,0.000
278.00,-0.001
279.00,0.000
280.00,-0.001
281.00,0.000
282.00,0.000
283.00,0.001
284.00,0.000
285.00,0.002
286.00,0.000
287.00,0.001
288.00,0.002
289.00,0.000
290.00,0.002
291.00,0.000
292.00,0.001
293.00,-0.000
294.00,0.001
295.00,0.001
296.00,0.000
297.00,0.001
298.00,-0.000
299.00,0.003
300.00,0.002
301.00,0.002
302.00,0.000
303.00,0.002
304.00,0.001
305.00,0.002
306.00,0.001
307.00,0.003
308.00,0.007
309.00,0.012
310.00,0.017
311.00,0.025
312.00,0.042
313.00,0.071
314.00,0.096
315.00,0.145
316.00,0.206
317.00,0.303
318.00,0.404
319.00,0.541
320.00,0.725
321.00,0.952
322.00,1.206
323.00,1.525
324.00,1.886
325.00,2.268
326.00,2.675
327.00,3.164
328.00,3.710
329.00,4.276
330.00,4.891
331.00,5.535
332.00,6.218
333.00,6.967
334.00,7.645
335.00,8.401
336.00,9.171
337.00,9.937
338.00,10.724
339.00,11.409
340.00,12.191
341.00,12.965
342.00,13.613
343.00,14.287
344.00,14.977
345.00,15.646
346.00,16.221
347.00,16.789
348.00,17.377
349.00,17.870
350.00,18.348
351.00,18.849
352.00,19.230
353.00,19.642
354.00,20.044
355.00,20.387
356.00,20.744
357.00,21.020
358.00,21.332
359.00,21.635
360.00,21.922
361.00,22.103
362.00,22.261
363.00,22.499
364.00,22.574
365.00,22.742
366.00,22.924
367.00,23.005
368.00,23.033
369.00,23.137
370.00,23.198
371.00,23.201
372.00,23.191
373.00,23.213
374.00,23.185
375.00,23.151
376.00,23.042
377.00,22.970
378.00,22.902
379.00,22.796
380.00,22.765
381.00,22.762
382.00,22.757
383.00,22.791
384.00,22.814
385.00,22.903
386.00,22.946
387.00,23.070
388.00,23.188
389.00,23.232
390.00,23.215
391.00,23.287
392.00,23.274
393.00,23.364
394.00,23.425
395.00,23.473
396.00,23.440
397.00,23.466
398.00,23.462
399.00,23.484
400.00,23.499
401.00,23.490
402.00,23.502
403.00,23.479
404.00,23.480
405.00,23.476
406.00,23.469
407.00,23.423
408.00,23.438
409.00,23.353
410.00,23.316
411.00,23.303
412.00,23.274
413.00,23.278
414.00,23.221
415.00,23.275
416.00,23.321
417.00,23.272
418.00,23.288
419.00,23.377
420.00,23.445
421.00,23.459
422.00,23.438
423.00,23.494
424.00,23.558
425.00,23.608
426.00,23.617
427.00,23.653
428.00,23.687
429.00,23.716
430.00,23.774
431.00,23.878
432.00,23.891
433.00,23.899
434.00,23.967
435.00,24.049
436.00,24.108
437.00,24.187
438.00,24.264
439.00,24.321
440.00,24.399
441.00,24.458
442.00,24.550
443.00,24.615
444.00,24.721
445.00,24.785
446.00,24.914
447.00,25.011
448.00,25.046
449.00,25.171
450.00,25.330
451.00,25.384
452.00,25.505
453.00,25.677
454.00,25.736
455.00,25.824
456.00,25.990
457.00,26.098
458.00,26.210
459.00,26.334
460.00,26.464
461.00,26.611
462.00,26.721
463.00,26.880
464.00,27.021
465.00,27.151
466.00,27.304
467.00,27.444
468.00,27.530
469.00,27.639
470.00,27.737
471.00,27.809
472.00,27.922
473.00,28.003
474.00,28.162
475.00,28.241
476.00,28.338
477.00,28.483
478.00,28.572
479.00,28.763
480.00,28.875
481.00,28.975
482.00,29.184
483.00,29.315
484.00,29.504
485.00,29.674
486.00,29.861
487.00,29.948
488.00,30.041
489.00,30.219
490.00,30.311
491.00,30.478
492.00,30.739
493.00,30.888
494.00,30.874
495.00,31.016
496.00,31.182
497.00,31.303
498.00,31.445
499.00,31.590
500.00,31.720
501.00,31.799
502.00,31.929
503.00,32.044
504.00,32.140
505.00,32.269
506.00,32.387
507.00,32.531
508.00,32.656
509.00,32.750
510.00,32.862
511.00,32.950
512.00,33.081
513.00,33.168
514.00,33.307
515.00,33.459
516.00,33.599
517.00,33.611
518.00,33.729
519.00,33.739
520.00,33.776
521.00,34.081
522.00,34.216
523.00,34.252
524.00,34.353
525.00,34.433
526.00,34.535
527.00,34.575
528.00,34.629
529.00,34.806
530.00,34.964
531.00,35.094
532.00,35.172
533.00,35.271
534.00,35.292
535.00,35.417
536.00,35.450
537.00,35.562
538.00,35.618
539.00,35.656
540.00,35.742
541.00,35.770
542.00,35.823
543.00,35.889
544.00,35.998
545.00,36.057
546.00,36.133
547.00,36.230
548.00,36.286
549.00,36.343
550.00,36.451
551.00,36.512
552.00,36.581
553.00,36.611
554.00,36.699
555.00,36.711
556.00,36.836
557.00,36.869
558.00,36.963
559.00,36.997
560.00,37.049
561.00,37.100
562.00,37.204
563.00,37.226
564.00,37.269
565.00,37.336
566.00,37.354
567.00,37.404
568.00,37.402
569.00,37.480
570.00,37.472
571.00,37.496
572.00,37.542
573.00,37.449
574.00,37.533
575.00,37.511
576.00,37.526
577.00,37.614
578.00,37.720
579.00,37.816
580.00,37.810
581.00,37.953
582.00,38.018
583.00,37.980
584.00,38.051
585.00,38.123
586.00,38.157
587.00,38.218
588.00,38.196
589.00,38.181
590.00,38.311
591.00,38.328
592.00,38.281
593.00,38.378
594.00,38.432
595.00,38.471
596.00,38.556
597.00,38.599
598.00,38.715
599.00,38.718
600.00,38.746
601.00,38.744
602.00,38.746
603.00,38.803
604.00,38.826
605.00,38.929
606.00,38.891
607.00,38.937
608.00,39.087
609.00,39.190
610.00,39.117
611.00,39.116
612.00,39.130
613.00,39.234
614.00,39.268
615.00,39.362
616.00,39.438
617.00,39.401
618.00,39.342
619.00,39.453
620.00,39.504
621.00,39.593
622.00,39.714
623.00,39.713
624.00,39.800
625.00,39.868
626.00,39.857
627.00,39.858
628.00,39.921
629.00,39.958
630.00,39.916
631.00,39.999
632.00,40.163
633.00,40.183
634.00,40.308
635.00,40.356
636.00,40.352
637.00,40.314
638.00,40.526
639.00,40.755
640.00,40.648
641.00,40.681
642.00,40.770
643.00,40.870
644.00,40.914
645.00,40.970
646.00,41.129
647.00,41.186
648.00,41.120
649.00,41.261
650.00,41.298
651.00,41.377
652.00,41.404
653.00,41.528
654.00,41.521
655.00,41.824
656.00,41.986
657.00,42.005
658.00,42.136
659.00,42.113
660.00,42.106
661.00,42.084
662.00,42.277
663.00,42.300
664.00,42.481
665.00,42.742
666.00,42.698
667.00,42.538
668.00,42.476
669.00,42.897
670.00,43.099
671.00,43.227
672.00,43.710
673.00,43.304
674.00,43.272
675.00,43.337
676.00,43.511
677.00,43.686
678.00,43.577
679.00,43.791
680.00,43.898
681.00,43.995
682.00,44.109
683.00,43.965
684.00,44.168
685.00,44.233
686.00,44.180
687.00,44.346
688.00,44.441
689.00,44.358
690.00,44.609
691.00,44.889
692.00,44.617
693.00,44.532
694.00,44.877
695.00,45.197
696.00,45.159
697.00,45.030
698.00,45.126
699.00,45.363
700.00,45.357
701.00,45.449
702.00,45.587
703.00,45.694
704.00,45.760
705.00,45.628
706.00,45.768
707.00,45.955
708.00,45.729
709.00,46.030
710.00,46.506
711.00,45.986
712.00,46.087
713.00,46.267
714.00,46.313
715.00,46.360
716.00,46.384
717.00,46.447
718.00,46.714
719.00,46.683
720.00,46.660
721.00,51.101
722.00,51.146
723.00,51.211
724.00,51.175
725.00,51.178
726.00,51.230
727.00,51.239
728.00,51.270
729.00,51.281
730.00,51.295
731.00,51.262
732.00,51.314
733.00,51.433
734.00,51.413
735.00,51.442
736.00,51.429
737.00,51.442
738.00,51.537
739.00,51.523
740.00,51.517
741.00,51.558
742.00,51.655
743.00,51.519
744.00,51.605
745.00,51.595
746.00,51.569
747.00,51.624
748.00,51.558
749.00,51.601
750.00,51.589
751.00,51.657
752.00,51.626
753.00,51.543
754.00,51.571
755.00,51.612
756.00,51.654
757.00,51.599
758.00,51.653
759.00,51.685
760.00,51.633
761.00,51.714
762.00,51.633
763.00,51.709
764.00,51.655
765.00,51.686
766.00,51.769
767.00,51.787
768.00,51.760
769.00,51.720
770.00,51.700
771.00,51.683
772.00,51.743
773.00,51.693
774.00,51.767
775.00,51.707
776.00,51.729
777.00,51.806
778.00,51.755
779.00,51.756
780.00,51.787
781.00,51.707
782.00,51.770
783.00,51.710
784.00,51.724
785.00,51.628
786.00,51.745
787.00,51.697
788.00,51.722
789.00,51.701
790.00,51.658
791.00,51.751
792.00,51.662
793.00,51.667
794.00,51.575
795.00,51.629
796.00,51.569
797.00,51.592
798.00,51.524
799.00,51.475
800.00,51.521
801.00,51.515
802.00,51.460
803.00,51.470
804.00,51.481
805.00,51.420
806.00,51.436
807.00,51.386
808.00,51.365
809.00,51.462
810.00,51.323
811.00,51.376
812.00,51.342
813.00,51.279
814.00,51.285
815.00,51.260
816.00,51.292
817.00,51.318
818.00,51.127
819.00,51.151
820.00,51.172
821.00,51.159
822.00,51.145
823.00,51.126
824.00,51.178
825.00,51.092
826.00,51.152
827.00,51.109
828.00,51.049
829.00,51.007
830.00,51.044
831.00,53.398
832.00,53.379
833.00,53.319
834.00,53.342
835.00,53.302
836.00,53.325
837.00,53.235
838.00,53.258
839.00,53.214
840.00,53.213
841.00,53.210
842.00,53.179
843.00,53.179
844.00,53.197
845.00,53.107
846.00,53.133
847.00,53.066
848.00,53.112
849.00,53.029
850.00,52.996
851.00,52.945
852.00,52.957
853.00,52.917
854.00,52.906
855.00,52.819
856.00,52.814
857.00,52.807
858.00,52.770
859.00,52.748
860.00,52.731
861.00,52.709
862.00,52.713
863.00,52.736
864.00,52.680
865.00,52.703
866.00,52.667
867.00,52.674
868.00,52.634
869.00,52.611
870.00,52.621
871.00,52.602
872.00,52.598
873.00,52.601
874.00,52.588
875.00,52.543
876.00,52.560
877.00,52.524
878.00,52.543
879.00,52.488
880.00,52.460
881.00,52.479
882.00,52.493
883.00,52.439
884.00,52.365
885.00,52.565
886.00,52.376
887.00,52.349
888.00,52.330
889.00,52.310
890.00,52.325
891.00,52.248
892.00,52.259
893.00,52.229
894.00,52.209
895.00,52.197
896.00,52.185
897.00,52.176
898.00,52.140
899.00,52.144
900.00,52.120
901.00,52.101
902.00,52.128
903.00,52.062
904.00,52.076
905.00,52.027
906.00,52.062
907.00,51.950
908.00,51.963
909.00,51.958
910.00,51.939
911.00,51.958
912.00,51.920
913.00,51.892
914.00,51.874
915.00,51.833
916.00,51.845
917.00,51.819
918.00,51.810
919.00,51.775
920.00,51.755
921.00,51.725
922.00,51.702
923.00,51.691
924.00,51.662
925.00,51.691
926.00,51.654
927.00,51.645
928.00,51.609
929.00,51.616
930.00,51.585
931.00,51.579
932.00,51.504
933.00,51.523
934.00,51.487
935.00,51.477
936.00,51.443
937.00,51.434
938.00,51.411
939.00,51.423
940.00,51.392
941.00,51.383
942.00,51.345
943.00,51.344
944.00,51.286
945.00,51.305
946.00,51.283
947.00,51.251
948.00,51.231
949.00,51.212
950.00,51.205
951.00,51.176
952.00,51.149
953.00,51.117
954.00,51.086
955.00,51.043
956.00,51.035
957.00,51.020
958.00,51.035
959.00,50.977
960.00,50.964
961.00,50.957
962.00,50.986
963.00,50.925
964.00,50.943
965.00,50.932
966.00,50.905
967.00,50.895
968.00,50.877
969.00,50.901
970.00,50.877
971.00,50.896
972.00,50.847
973.00,50.886
974.00,50.888
975.00,50.863
976.00,50.871
977.00,50.847
978.00,50.896
979.00,50.841
980.00,50.879
981.00,50.860
982.00,50.845
983.00,50.854
984.00,50.834
985.00,50.846
986.00,50.804
987.00,50.835
988.00,50.799
989.00,50.792
990.00,50.796
991.00,50.789
992.00,50.802
993.00,50.758
994.00,50.744
995.00,50.737
996.00,50.719
997.00,50.711
998.00,50.683
999.00,50.704
1000.00,50.663
1001.00,50.654
1002.00,50.661
1003.00,50.685
1004.00,50.617
1005.00,50.586
1006.00,50.614
1007.00,50.567
1008.00,50.575
1009.00,50.545
1010.00,50.535
1011.00,50.511
1012.00,50.478
1013.00,50.495
1014.00,50.451
1015.00,50.478
1016.00,50.445
1017.00,50.439
1018.00,50.442
1019.00,50.419
1020.00,50.393
1021.00,50.372
1022.00,50.385
1023.00,50.331
1024.00,50.340
1025.00,50.322
1026.00,50.318
1027.00,50.285
1028.00,50.281
1029.00,50.261
1030.00,50.228
1031.00,50.244
1032.00,50.203
1033.00,50.211
1034.00,50.177
1035.00,50.151
1036.00,50.132
1037.00,50.114
1038.00,50.096
1039.00,50.075
1040.00,50.065
1041.00,50.034
1042.00,50.028
1043.00,50.012
1044.00,50.054
1045.00,50.022
1046.00,50.019
1047.00,50.031
1048.00,50.044
1049.00,50.058
1050.00,50.040
1051.00,50.077
1052.00,50.076
1053.00,50.089
1054.00,50.092
1055.00,50.122
1056.00,50.124
1057.00,50.128
1058.00,50.107
1059.00,50.105
1060.00,50.112
1061.00,50.090
1062.00,50.080
1063.00,50.086
1064.00,50.073
1065.00,50.072
1066.00,50.065
1067.00,50.054
1068.00,50.081
1069.00,50.051
1070.00,50.030
1071.00,49.998
1072.00,50.007
1073.00,49.988
1074.00,49.985
1075.00,49.970
1076.00,50.010
1077.00,50.005
1078.00,49.954
1079.00,49.971
1080.00,49.963
1081.00,49.950
1082.00,49.949
1083.00,49.939
1084.00,49.918
1085.00,49.917
1086.00,49.910
1087.00,49.921
1088.00,49.903
1089.00,49.899
1090.00,49.904
1091.00,49.909
1092.00,49.901
1093.00,49.880
1094.00,49.852
1095.00,49.833
1096.00,49.818
1097.00,49.820
1098.00,49.807
1099.00,49.779
1100.00,49.791
1101.00,49.809
1102.00,49.778
1103.00,49.769
1104.00,49.771
1105.00,49.745
1106.00,49.737
1107.00,49.774
1108.00,49.745
1109.00,49.715
1110.00,49.713
1111.00,49.700
1112.00,49.688
1113.00,49.686
1114.00,49.680
1115.00,49.689
1116.00,49.672
1117.00,49.651
1118.00,49.644
1119.00,49.644
1120.00,49.643
1121.00,49.654
1122.00,49.622
1123.00,49.618
1124.00,49.613
1125.00,49.610
1126.00,49.616
1127.00,49.601
1128.00,49.579
1129.00,49.547
1130.00,49.546
1131.00,49.564
1132.00,49.565
1133.00,49.558
1134.00,49.525
1135.00,49.502
1136.00,49.535
1137.00,49.533
1138.00,49.536
1139.00,49.538
1140.00,49.536
1141.00,49.526
1142.00,49.522
1143.00,49.546
1144.00,49.502
1145.00,49.516
1146.00,49.507
1147.00,49.501
1148.00,49.495
1149.00,49.514
1150.00,49.520
1151.00,49.516
1152.00,49.500
1153.00,49.495
1154.00,49.481
1155.00,49.483
1156.00,49.477
1157.00,49.480
1158.00,49.480
1159.00,49.491
1160.00,49.477
1161.00,49.489
1162.00,49.481
1163.00,49.473
1164.00,49.479
1165.00,49.472
1166.00,49.479
1167.00,49.465
1168.00,49.483
1169.00,49.454
1170.00,49.451
1171.00,49.437
1172.00,49.444
1173.00,49.453
1174.00,49.457
1175.00,49.450
1176.00,49.464
1177.00,49.456
1178.00,49.458
1179.00,49.481
1180.00,49.459
1181.00,49.489
1182.00,49.481
1183.00,49.483
1184.00,49.485
1185.00,49.472
1186.00,49.464
1187.00,49.459
1188.00,49.457
1189.00,49.468
1190.00,49.462
1191.00,49.453
1192.00,49.479
1193.00,49.454
1194.00,49.462
1195.00,49.430
1196.00,49.472
1197.00,49.489
1198.00,49.471
1199.00,49.462
1200.00,49.477
1201.00,49.479
1202.00,49.444
1203.00,49.455
1204.00,49.446
1205.00,49.460
1206.00,49.456
1207.00,49.463
1208.00,49.461
1209.00,49.463
1210.00,49.467
1211.00,49.477
1212.00,49.487
1213.00,49.441
1214.00,49.482
1215.00,49.456
1216.00,49.444
1217.00,49.467
1218.00,49.458
1219.00,49.476
1220.00,49.466
1221.00,49.477
1222.00,49.464
1223.00,49.484
1224.00,49.478
1225.00,49.467
1226.00,49.465
1227.00,49.469
1228.00,49.492
1229.00,49.492
1230.00,49.521
1231.00,49.501
1232.00,49.517
1233.00,49.522
1234.00,49.531
1235.00,49.540
1236.00,49.527
1237.00,49.539
1238.00,49.536
1239.00,49.554
1240.00,49.534
1241.00,49.545
1242.00,49.572
1243.00,49.572
1244.00,49.563
1245.00,49.619
1246.00,49.604
1247.00,49.593
1248.00,49.596
1249.00,49.588
1250.00,49.608
1251.00,49.592
1252.00,49.605
1253.00,49.594
1254.00,49.602
1255.00,49.603
1256.00,49.576
1257.00,49.601
1258.00,49.642
1259.00,49.617
1260.00,49.660
1261.00,49.638
1262.00,49.630
1263.00,49.625
1264.00,49.635
1265.00,49.647
1266.00,49.640
1267.00,49.655
1268.00,49.666
1269.00,49.671
1270.00,49.679
1271.00,49.675
1272.00,49.692
1273.00,49.706
1274.00,49.716
1275.00,49.728
1276.00,49.715
1277.00,49.714
1278.00,49.732
1279.00,49.730
1280.00,49.723
1281.00,49.743
1282.00,49.756
1283.00,49.758
1284.00,49.765
1285.00,49.746
1286.00,49.760
1287.00,49.747
1288.00,49.760
1289.00,49.758
1290.00,49.798
1291.00,49.801
1292.00,49.800
1293.00,49.809
1294.00,49.816
1295.00,49.829
1296.00,49.840
1297.00,49.846
1298.00,49.863
1299.00,49.839
1300.00,49.857
1301.00,49.839
1302.00,49.880
1303.00,49.879
1304.00,49.871
1305.00,49.897
1306.00,49.898
1307.00,49.907
1308.00,49.911
1309.00,49.922
1310.00,49.932
1311.00,49.908
1312.00,49.912
1313.00,49.931
1314.00,49.966
1315.00,49.964
1316.00,49.963
1317.00,49.982
1318.00,49.991
1319.00,50.002
1320.00,50.013
1321.00,50.181
1322.00,50.165
1323.00,50.145
1324.00,50.143
1325.00,50.118
1326.00,50.141
1327.00,50.163
1328.00,50.143
1329.00,50.136
1330.00,50.165
1331.00,50.157
1332.00,50.166
1333.00,50.185
1334.00,50.185
1335.00,50.224
1336.00,50.237
1337.00,50.279
1338.00,50.341
1339.00,50.388
1340.00,50.442
1341.00,50.517
1342.00,50.570
1343.00,50.631
1344.00,50.663
1345.00,50.731
1346.00,50.769
1347.00,50.769
1348.00,50.794
1349.00,50.821
1350.00,50.841
1351.00,50.847
1352.00,50.872
1353.00,50.840
1354.00,50.900
1355.00,50.860
1356.00,50.873
1357.00,50.913
1358.00,50.933
1359.00,50.929
1360.00,50.949
1361.00,50.957
1362.00,50.866
1363.00,51.006
1364.00,51.111
1365.00,51.008
1366.00,50.981
1367.00,50.913
1368.00,50.919
1369.00,50.970
1370.00,50.923
1371.00,50.881
1372.00,50.912
1373.00,50.952
1374.00,50.955
1375.00,50.947
1376.00,50.926
1377.00,50.929
1378.00,50.899
1379.00,50.980
1380.00,51.000
1381.00,51.209
1382.00,51.044
1383.00,50.963
1384.00,50.917
1385.00,50.941
1386.00,50.941
1387.00,50.915
1388.00,50.929
1389.00,50.966
1390.00,50.891
1391.00,50.930
1392.00,50.938
1393.00,50.996
1394.00,50.958
1395.00,50.892
1396.00,50.876
1397.00,50.813
1398.00,50.990
1399.00,50.989
1400.00,50.940
1401.00,50.882
1402.00,51.058
1403.00,50.966
1404.00,50.934
1405.00,50.988
1406.00,50.955
1407.00,50.970
1408.00,51.026
1409.00,50.998
1410.00,51.030
1411.00,50.821
1412.00,51.136
1413.00,51.036
1414.00,50.913
1415.00,51.027
1416.00,51.064
1417.00,51.185
1418.00,51.105
1419.00,51.056
1420.00,51.122
1421.00,51.207
1422.00,51.140
1423.00,51.160
1424.00,51.163
1425.00,51.177
1426.00,51.235
1427.00,51.280
1428.00,51.223
1429.00,51.241
1430.00,51.236
1431.00,51.251
1432.00,51.293
1433.00,51.307
1434.00,51.308
1435.00,51.371
1436.00,51.386
1437.00,51.376
1438.00,51.382
1439.00,51.443
1440.00,51.499
1441.00,51.469
1442.00,51.503
1443.00,51.492
1444.00,51.571
1445.00,51.489
1446.00,51.508
1447.00,51.545
1448.00,51.602
1449.00,51.595
1450.00,51.587
1451.00,51.609
1452.00,51.625
1453.00,51.642
1454.00,51.670
1455.00,51.696
1456.00,51.710
1457.00,51.699
1458.00,51.721
1459.00,51.744
1460.00,51.769
1461.00,51.766
1462.00,51.818
1463.00,51.798
1464.00,51.847
1465.00,51.856
1466.00,51.851
1467.00,51.895
1468.00,51.947
1469.00,51.917
1470.00,51.957
1471.00,51.952
1472.00,51.976
1473.00,51.984
1474.00,52.012
1475.00,52.058
1476.00,52.061
1477.00,52.026
1478.00,52.059
1479.00,52.075
1480.00,52.069
1481.00,52.095
1482.00,52.114
1483.00,52.123
1484.00,52.159
1485.00,52.164
1486.00,52.193
1487.00,52.208
1488.00,52.222
1489.00,52.210
1490.00,52.228
1491.00,52.234
1492.00,52.279
1493.00,52.241
1494.00,52.300
1495.00,52.308
1496.00,52.306
1497.00,52.312
1498.00,52.314
1499.00,52.336
1500.00,52.359
1501.00, 
1502.00, 
1503.00, 
1504.00, 
1505.00, 
1506.00, 
1507.00, 
1508.00, 
1509.00, 
1510.00, 
1511.00, 
1512.00, 
1513.00, 
1514.00, 
1515.00, 
1516.00, 
1517.00, 
1518.00, 
1519.00, 
1520.00, 
1521.00, 
1522.00, 
1523.00, 
1524.00, 
1525.00, 
1526.00, 
1527.00, 
1528.00, 
1529.00, 
1530.00, 
1531.00, 
1532.00, 
1533.00, 
1534.00, 
1535.00, 
1536.00, 
1537.00, 
1538.00, 
1539.00, 
1540.00, 
1541.00, 
1542.00, 
1543.00, 
1544.00, 
1545.00, 
1546.00, 
1547.00, 
1548.00, 
1549.00, 
1550.00, 
1551.00, 
1552.00, 
1553.00, 
1554.00, 
1555.00, 
1556.00, 
1557.00, 
1558.00, 
1559.00, 
1560.00, 
1561.00, 
1562.00, 
1563.00, 
1564.00, 
1565.00, 
1566.00, 
1567.00, 
1568.00, 
1569.00, 
1570.00, 
1571.00, 
1572.00, 
1573.00, 
1574.00, 
1575.00, 
1576.00, 
1577.00, 
1578.00, 
1579.00, 
1580.00, 
1581.00, 
1582.00, 
1583.00, 
1584.00, 
1585.00, 
1586.00, 
1587.00, 
1588.00, 
1589.00, 
1590.00, 
1591.00, 
1592.00, 
1593.00, 
1594.00, 
1595.00, 
1596.00, 
1597.00, 
1598.00, 
1599.00, 
1600.00, 
1601.00, 
1602.00, 
1603.00, 
1604.00, 
1605.00, 
1606.00, 
1607.00, 
1608.00, 
1609.00, 
1610.00, 
1611.00, 
1612.00, 
1613.00, 
1614.00, 
1615.00, 
1616.00, 
1617.00, 
1618.00, 
1619.00, 
1620.00, 
1621.00, 
1622.00, 
1623.00, 
1624.00, 
1625.00, 
1626.00, 
1627.00, 
1628.00, 
1629.00, 
1630.00, 
1631.00, 
1632.00, 
1633.00, 
1634.00, 
1635.00, 
1636.00, 
1637.00, 
1638.00, 
1639.00, 
1640.00, 
1641.00, 
1642.00, 
1643.00, 
1644.00, 
1645.00, 
1646.00, 
1647.00, 
1648.00, 
1649.00, 
1650.00, 
1651.00, 
1652.00, 
1653.00, 
1654.00, 
1655.00, 
1656.00, 
1657.00, 
1658.00, 
1659.00, 
1660.00, 
1661.00, 
1662.00, 
1663.00, 
1664.00, 
1665.00, 
1666.00, 
1667.00, 
1668.00, 
1669.00, 
1670.00, 
1671.00, 
1672.00, 
1673.00, 
1674.00, 
1675.00, 
1676.00, 
1677.00, 
1678.00, 
1679.00, 
1680.00, 
1681.00, 
1682.00, 
1683.00, 
1684.00, 
1685.00, 
1686.00, 
1687.00, 
1688.00, 
1689.00, 
1690.00, 
1691.00, 
1692.00, 
1693.00, 
1694.00, 
1695.00, 
1696.00, 
1697.00, 
1698.00, 
1699.00, 
1700.00, 
1701.00, 
1702.00, 
1703.00, 
1704.00, 
1705.00, 
1706.00, 
1707.00, 
1708.00, 
1709.00, 
1710.00, 
1711.00, 
1712.00, 
1713.00, 
1714.00, 
1715.00, 
1716.00, 
1717.00, 
1718.00, 
1719.00, 
1720.00, 
1721.00, 
1722.00, 
1723.00, 
1724.00, 
1725.00, 
1726.00, 
1727.00, 
1728.00, 
1729.00, 
1730.00, 
1731.00, 
1732.00, 
1733.00, 
1734.00, 
1735.00, 
1736.00, 
1737.00, 
1738.00, 
1739.00, 
1740.00, 
1741.00, 
1742.00, 
1743.00, 
1744.00, 
1745.00, 
1746.00, 
1747.00, 
1748.00, 
1749.00, 
1750.00, 
1751.00, 
1752.00, 
1753.00, 
1754.00, 
1755.00, 
1756.00, 
1757.00, 
1758.00, 
1759.00, 
1760.00, 
1761.00, 
1762.00, 
1763.00, 
1764.00, 
1765.00, 
1766.00, 
1767.00, 
1768.00, 
1769.00, 
1770.00, 
1771.00, 
1772.00, 
1773.00, 
1774.00, 
1775.00, 
1776.00, 
1777.00, 
1778.00, 
1779.00, 
1780.00, 
1781.00, 
1782.00, 
1783.00, 
1784.00, 
1785.00, 
1786.00, 
1787.00, 
1788.00, 
1789.00, 
1790.00, 
1791.00, 
1792.00, 
1793.00, 
1794.00, 
1795.00, 
1796.00, 
1797.00, 
1798.00, 
1799.00, 
1800.00, 
1801.00, 
1802.00, 
1803.00, 
1804.00, 
1805.00, 
1806.00, 
1807.00, 
1808.00, 
1809.00, 
1810.00, 
1811.00, 
1812.00, 
1813.00, 
1814.00, 
1815.00, 
1816.00, 
1817.00, 
1818.00, 
1819.00, 
1820.00, 
1821.00, 
1822.00, 
1823.00, 
1824.00, 
1825.00, 
1826.00, 
1827.00, 
1828.00, 
1829.00, 
1830.00, 
1831.00, 
1832.00, 
1833.00, 
1834.00, 
1835.00, 
1836.00, 
1837.00, 
1838.00, 
1839.00, 
1840.00, 
1841.00, 
1842.00, 
1843.00, 
1844.00, 
1845.00, 
1846.00, 
1847.00, 
1848.00, 
1849.00, 
1850.00, 
1851.00, 
1852.00, 
1853.00, 
1854.00, 
1855.00, 
1856.00, 
1857.00, 
1858.00, 
1859.00, 
1860.00, 
1861.00, 
1862.00, 
1863.00, 
1864.00, 
1865.00, 
1866.00, 
1867.00, 
1868.00, 
1869.00, 
1870.00, 
1871.00, 
1872.00, 
1873.00, 
1874.00, 
1875.00, 
1876.00, 
1877.00, 
1878.00, 
1879.00, 
1880.00, 
1881.00, 
1882.00, 
1883.00, 
1884.00, 
1885.00, 
1886.00, 
1887.00, 
1888.00, 
1889.00, 
1890.00, 
1891.00, 
1892.00, 
1893.00, 
1894.00, 
1895.00, 
1896.00, 
1897.00, 
1898.00, 
1899.00, 
1900.00, 
1901.00, 
1902.00, 
1903.00, 
1904.00, 
1905.00, 
1906.00, 
1907.00, 
1908.00, 
1909.00, 
1910.00, 
1911.00, 
1912.00, 
1913.00, 
1914.00, 
1915.00, 
1916.00, 
1917.00, 
1918.00, 
1919.00, 
1920.00, 
1921.00, 
1922.00, 
1923.00, 
1924.00, 
1925.00, 
1926.00, 
1927.00, 
1928.00, 
1929.00, 
1930.00, 
1931.00, 
1932.00, 
1933.00, 
1934.00, 
1935.00, 
1936.00, 
1937.00, 
1938.00, 
1939.00, 
1940.00, 
1941.00, 
1942.00, 
1943.00, 
1944.00, 
1945.00, 
1946.00, 
1947.00, 
1948.00, 
1949.00, 
1950.00, 
1951.00, 
1952.00, 
1953.00, 
1954.00, 
1955.00, 
1956.00, 
1957.00, 
1958.00, 
1959.00, 
1960.00, 
1961.00, 
1962.00, 
1963.00, 
1964.00, 
1965.00, 
1966.00, 
1967.00, 
1968.00, 
1969.00, 
1970.00, 
1971.00, 
1972.00, 
1973.00, 
1974.00, 
1975.00, 
1976.00, 
1977.00, 
1978.00, 
1979.00, 
1980.00, 
1981.00, 
1982.00, 
1983.00, 
1984.00, 
1985.00, 
1986.00, 
1987.00, 
1988.00, 
1989.00, 
1990.00, 
1991.00, 
1992.00, 
1993.00, 
1994.00, 
1995.00, 
1996.00, 
1997.00, 
1998.00, 
1999.00, 
2000.00, 
2001.00, 
2002.00, 
2003.00, 
2004.00, 
2005.00, 
2006.00, 
2007.00, 
2008.00, 
2009.00, 
2010.00, 
2011.00, 
2012.00, 
2013.00, 
2014.00, 
2015.00, 
2016.00, 
2017.00, 
2018.00, 
2019.00, 
2020.00, 
2021.00, 
2022.00, 
2023.00, 
2024.00, 
2025.00, 
2026.00, 
2027.00, 
2028.00, 
2029.00, 
2030.00, 
2031.00, 
2032.00, 
2033.00, 
2034.00, 
2035.00, 
2036.00, 
2037.00, 
2038.00, 
2039.00, 
2040.00, 
2041.00, 
2042.00, 
2043.00, 
2044.00, 
2045.00, 
2046.00, 
2047.00, 
2048.00, 
2049.00, 
2050.00, 
2051.00, 
2052.00, 
2053.00, 
2054.00, 
2055.00, 
2056.00, 
2057.00, 
2058.00, 
2059.00, 
2060.00, 
2061.00, 
2062.00, 
2063.00, 
2064.00, 
2065.00, 
2066.00, 
2067.00, 
2068.00, 
2069.00, 
2070.00, 
2071.00, 
2072.00, 
2073.00, 
2074.00, 
2075.00, 
2076.00, 
2077.00, 
2078.00, 
2079.00, 
2080.00, 
2081.00, 
2082.00, 
2083.00, 
2084.00, 
2085.00, 
2086.00, 
2087.00, 
2088.00, 
2089.00, 
2090.00, 
2091.00, 
2092.00, 
2093.00, 
2094.00, 
2095.00, 
2096.00, 
2097.00, 
2098.00, 
2099.00, 
2100.00, 
2101.00, 
2102.00, 
2103.00, 
2104.00, 
2105.00, 
2106.00, 
2107.00, 
2108.00, 
2109.00, 
2110.00, 
2111.00, 
2112.00, 
2113.00, 
2114.00, 
2115.00, 
2116.00, 
2117.00, 
2118.00, 
2119.00, 
2120.00, 
2121.00, 
2122.00, 
2123.00, 
2124.00, 
2125.00, 
2126.00, 
2127.00, 
2128.00, 
2129.00, 
2130.00, 
2131.00, 
2132.00, 
2133.00, 
2134.00, 
2135.00, 
2136.00, 
2137.00, 
2138.00, 
2139.00, 
2140.00, 
2141.00, 
2142.00, 
2143.00, 
2144.00, 
2145.00, 
2146.00, 
2147.00, 
2148.00, 
2149.00, 
2150.00, 
2151.00, 
2152.00, 
2153.00, 
2154.00, 
2155.00, 
2156.00, 
2157.00, 
2158.00, 
2159.00, 
2160.00, 
2161.00, 
2162.00, 
2163.00, 
2164.00, 
2165.00, 
2166.00, 
2167.00, 
2168.00, 
2169.00, 
2170.00, 
2171.00, 
2172.00, 
2173.00, 
2174.00, 
2175.00, 
2176.00, 
2177.00, 
2178.00, 
2179.00, 
2180.00, 
2181.00, 
2182.00, 
2183.00, 
2184.00, 
2185.00, 
2186.00, 
2187.00, 
2188.00, 
2189.00, 
2190.00, 
2191.00, 
2192.00, 
2193.00, 
2194.00, 
2195.00, 
2196.00, 
2197.00, 
2198.00, 
2199.00, 
2200.00, 
2201.00, 
2202.00, 
2203.00, 
2204.00, 
2205.00, 
2206.00, 
2207.00, 
2208.00, 
2209.00, 
2210.00, 
2211.00, 
2212.00, 
2213.00, 
2214.00, 
2215.00, 
2216.00, 
2217.00, 
2218.00, 
2219.00, 
2220.00, 
2221.00, 
2222.00, 
2223.00, 
2224.00, 
2225.00, 
2226.00, 
2227.00, 
2228.00, 
2229.00, 
2230.00, 
2231.00, 
2232.00, 
2233.00, 
2234.00, 
2235.00, 
2236.00, 
2237.00, 
2238.00, 
2239.00, 
2240.00, 
2241.00, 
2242.00, 
2243.00, 
2244.00, 
2245.00, 
2246.00, 
2247.00, 
2248.00, 
2249.00, 
2250.00, 
2251.00, 
2252.00, 
2253.00, 
2254.00, 
2255.00, 
2256.00, 
2257.00, 
2258.00, 
2259.00, 
2260.00, 
2261.00, 
2262.00, 
2263.00, 
2264.00, 
2265.00, 
2266.00, 
2267.00, 
2268.00, 
2269.00, 
2270.00, 
2271.00, 
2272.00, 
2273.00, 
2274.00, 
2275.00, 
2276.00, 
2277.00, 
2278.00, 
2279.00, 
2280.00, 
2281.00, 
2282.00, 
2283.00, 
2284.00, 
2285.00, 
2286.00, 
2287.00, 
2288.00, 
2289.00, 
2290.00, 
2291.00, 
2292.00, 
2293.00, 
2294.00, 
2295.00, 
2296.00, 
2297.00, 
2298.00, 
2299.00, 
2300.00, 
2301.00, 
2302.00, 
2303.00, 
2304.00, 
2305.00, 
2306.00, 
2307.00, 
2308.00, 
2309.00, 
2310.00, 
2311.00, 
2312.00, 
2313.00, 
2314.00, 
2315.00, 
2316.00, 
2317.00, 
2318.00, 
2319.00, 
2320.00, 
2321.00, 
2322.00, 
2323.00, 
2324.00, 
2325.00, 
2326.00, 
2327.00, 
2328.00, 
2329.00, 
2330.00, 
2331.00, 
2332.00, 
2333.00, 
2334.00, 
2335.00, 
2336.00, 
2337.00, 
2338.00, 
2339.00, 
2340.00, 
2341.00, 
2342.00, 
2343.00, 
2344.00, 
2345.00, 
2346.00, 
2347.00, 
2348.00, 
2349.00, 
2350.00, 
2351.00, 
2352.00, 
2353.00, 
2354.00, 
2355.00, 
2356.00, 
2357.00, 
2358.00, 
2359.00, 
2360.00, 
2361.00, 
2362.00, 
2363.00, 
2364.00, 
2365.00, 
2366.00, 
2367.00, 
2368.00, 
2369.00, 
2370.00, 
2371.00, 
2372.00, 
2373.00, 
2374.00, 
2375.00, 
2376.00, 
2377.00, 
2378.00, 
2379.00, 
2380.00, 
2381.00, 
2382.00, 
2383.00, 
2384.00, 
2385.00, 
2386.00, 
2387.00, 
2388.00, 
2389.00, 
2390.00, 
2391.00, 
2392.00, 
2393.00, 
2394.00, 
2395.00, 
2396.00, 
2397.00, 
2398.00, 
2399.00, 
2400.00, 
2401.00, 
2402.00, 
2403.00, 
2404.00, 
2405.00, 
2406.00, 
2407.00, 
2408.00, 
2409.00, 
2410.00, 
2411.00, 
2412.00, 
2413.00, 
2414.00, 
2415.00, 
2416.00, 
2417.00, 
2418.00, 
2419.00, 
2420.00, 
2421.00, 
2422.00, 
2423.00, 
2424.00, 
2425.00, 
2426.00, 
2427.00, 
2428.00, 
2429.00, 
2430.00, 
2431.00, 
2432.00, 
2433.00, 
2434.00, 
2435.00, 
2436.00, 
2437.00, 
2438.00, 
2439.00, 
2440.00, 
2441.00, 
2442.00, 
2443.00, 
2444.00, 
2445.00, 
2446.00, 
2447.00, 
2448.00, 
2449.00, 
2450.00, 
2451.00, 
2452.00, 
2453.00, 
2454.00, 
2455.00, 
2456.00, 
2457.00, 
2458.00, 
2459.00, 
2460.00, 
2461.00, 
2462.00, 
2463.00, 
2464.00, 
2465.00, 
2466.00, 
2467.00, 
2468.00, 
2469.00, 
2470.00, 
2471.00, 
2472.00, 
2473.00, 
2474.00, 
2475.00, 
2476.00, 
2477.00, 
2478.00, 
2479.00, 
2480.00, 
2481.00, 
2482.00, 
2483.00, 
2484.00, 
2485.00, 
2486.00, 
2487.00, 
2488.00, 
2489.00, 
2490.00, 
2491.00, 
2492.00, 
2493.00, 
2494.00, 
2495.00, 
2496.00, 
2497.00, 
2498.00, 
2499.00, 
2500.00, 
2501.00, 
2502.00, 
2503.00, 
2504.00, 
2505.00, 
2506.00, 
2507.00, 
2508.00, 
2509.00, 
2510.00, 
2511.00, 
2512.00, 
2513.00, 
2514.00, 
2515.00, 
2516.00, 
2517.00, 
2518.00, 
2519.00, 
2520.00, 
2521.00, 
2522.00, 
2523.00, 
2524.00, 
2525.00, 
2526.00, 
2527.00, 
2528.00, 
2529.00, 
2530.00, 
2531.00, 
2532.00, 
2533.00, 
2534.00, 
2535.00, 
2536.00, 
2537.00, 
2538.00, 
2539.00, 
2540.00, 
2541.00, 
2542.00, 
2543.00, 
2544.00, 
2545.00, 
2546.00, 
2547.00, 
2548.00, 
2549.00, 
2550.00, 
2551.00, 
2552.00, 
2553.00, 
2554.00, 
2555.00, 
2556.00, 
2557.00, 
2558.00, 
2559.00, 
2560.00, 
2561.00, 
2562.00, 
2563.00, 
2564.00, 
2565.00, 
2566.00, 
2567.00, 
2568.00, 
2569.00, 
2570.00, 
2571.00, 
2572.00, 
2573.00, 
2574.00, 
2575.00, 
2576.00, 
2577.00, 
2578.00, 
2579.00, 
2580.00, 
2581.00, 
2582.00, 
2583.00, 
2584.00, 
2585.00, 
2586.00, 
2587.00, 
2588.00, 
2589.00, 
2590.00, 
2591.00, 
2592.00, 
2593.00, 
2594.00, 
2595.00, 
2596.00, 
2597.00, 
2598.00, 
2599.00, 
2600.00, 
