"2bP2 - RawData"
"Wavelength nm.","T%"
200.00,0.004
201.00,0.001
202.00,0.003
203.00,0.003
204.00,0.000
205.00,0.000
206.00,0.002
207.00,0.000
208.00,0.002
209.00,0.005
210.00,0.000
211.00,0.003
212.00,0.004
213.00,0.001
214.00,0.001
215.00,0.000
216.00,0.004
217.00,-0.001
218.00,0.002
219.00,0.000
220.00,0.000
221.00,0.004
222.00,-0.001
223.00,-0.002
224.00,-0.001
225.00,0.002
226.00,0.000
227.00,0.000
228.00,0.001
229.00,0.000
230.00,-0.000
231.00,0.001
232.00,0.002
233.00,-0.001
234.00,-0.001
235.00,0.002
236.00,0.001
237.00,0.001
238.00,0.000
239.00,0.003
240.00,0.001
241.00,0.001
242.00,0.000
243.00,0.003
244.00,0.000
245.00,-0.001
246.00,0.000
247.00,-0.000
248.00,-0.000
249.00,0.000
250.00,0.002
251.00,0.002
252.00,0.001
253.00,0.001
254.00,-0.001
255.00,0.003
256.00,0.001
257.00,0.001
258.00,0.001
259.00,-0.001
260.00,-0.001
261.00,0.001
262.00,0.001
263.00,0.001
264.00,0.001
265.00,-0.000
266.00,-0.000
267.00,-0.002
268.00,0.001
269.00,0.002
270.00,0.001
271.00,0.001
272.00,0.001
273.00,0.000
274.00,0.002
275.00,0.001
276.00,-0.002
277.00,0.000
278.00,-0.000
279.00,-0.000
280.00,-0.002
281.00,0.001
282.00,0.000
283.00,0.000
284.00,-0.000
285.00,0.002
286.00,0.001
287.00,0.001
288.00,-0.001
289.00,0.000
290.00,0.000
291.00,0.001
292.00,-0.000
293.00,-0.001
294.00,0.001
295.00,-0.001
296.00,0.002
297.00,0.000
298.00,0.001
299.00,0.002
300.00,0.004
301.00,0.002
302.00,0.006
303.00,0.009
304.00,0.015
305.00,0.023
306.00,0.036
307.00,0.053
308.00,0.085
309.00,0.128
310.00,0.177
311.00,0.235
312.00,0.326
313.00,0.445
314.00,0.578
315.00,0.742
316.00,0.933
317.00,1.186
318.00,1.454
319.00,1.759
320.00,2.143
321.00,2.550
322.00,3.005
323.00,3.519
324.00,4.050
325.00,4.602
326.00,5.153
327.00,5.804
328.00,6.472
329.00,7.183
330.00,7.834
331.00,8.525
332.00,9.222
333.00,10.000
334.00,10.709
335.00,11.422
336.00,12.140
337.00,12.863
338.00,13.573
339.00,14.219
340.00,14.872
341.00,15.553
342.00,16.158
343.00,16.741
344.00,17.304
345.00,17.833
346.00,18.330
347.00,18.786
348.00,19.265
349.00,19.690
350.00,20.094
351.00,20.468
352.00,20.813
353.00,21.178
354.00,21.450
355.00,21.710
356.00,21.996
357.00,22.245
358.00,22.473
359.00,22.718
360.00,22.956
361.00,23.087
362.00,23.282
363.00,23.464
364.00,23.536
365.00,23.638
366.00,23.775
367.00,23.855
368.00,23.848
369.00,23.961
370.00,24.022
371.00,24.025
372.00,24.015
373.00,24.050
374.00,24.046
375.00,24.044
376.00,23.991
377.00,23.995
378.00,23.918
379.00,23.814
380.00,23.837
381.00,23.811
382.00,23.802
383.00,23.831
384.00,23.793
385.00,23.852
386.00,23.883
387.00,23.936
388.00,23.971
389.00,24.012
390.00,24.025
391.00,24.051
392.00,24.068
393.00,24.071
394.00,24.079
395.00,24.106
396.00,24.085
397.00,24.101
398.00,24.138
399.00,24.109
400.00,24.028
401.00,24.099
402.00,24.061
403.00,24.103
404.00,24.119
405.00,24.097
406.00,24.067
407.00,24.036
408.00,24.058
409.00,23.999
410.00,23.962
411.00,23.940
412.00,23.929
413.00,23.916
414.00,23.900
415.00,23.947
416.00,23.990
417.00,23.971
418.00,23.963
419.00,24.040
420.00,24.102
421.00,24.131
422.00,24.149
423.00,24.195
424.00,24.231
425.00,24.277
426.00,24.338
427.00,24.322
428.00,24.393
429.00,24.443
430.00,24.473
431.00,24.552
432.00,24.561
433.00,24.600
434.00,24.655
435.00,24.730
436.00,24.805
437.00,24.896
438.00,24.939
439.00,25.010
440.00,25.098
441.00,25.172
442.00,25.236
443.00,25.300
444.00,25.419
445.00,25.495
446.00,25.612
447.00,25.680
448.00,25.784
449.00,25.893
450.00,26.011
451.00,26.080
452.00,26.194
453.00,26.331
454.00,26.373
455.00,26.489
456.00,26.633
457.00,26.748
458.00,26.815
459.00,26.984
460.00,27.073
461.00,27.232
462.00,27.365
463.00,27.524
464.00,27.625
465.00,27.737
466.00,27.887
467.00,28.038
468.00,28.101
469.00,28.197
470.00,28.309
471.00,28.393
472.00,28.505
473.00,28.575
474.00,28.775
475.00,28.850
476.00,28.962
477.00,29.071
478.00,29.189
479.00,29.384
480.00,29.490
481.00,29.600
482.00,29.800
483.00,29.918
484.00,30.087
485.00,30.241
486.00,30.429
487.00,30.513
488.00,30.654
489.00,30.839
490.00,30.911
491.00,31.065
492.00,31.322
493.00,31.457
494.00,31.388
495.00,31.587
496.00,31.604
497.00,31.839
498.00,32.024
499.00,32.131
500.00,32.264
501.00,32.339
502.00,32.485
503.00,32.609
504.00,32.652
505.00,32.842
506.00,32.932
507.00,33.063
508.00,33.218
509.00,33.339
510.00,33.429
511.00,33.511
512.00,33.677
513.00,33.777
514.00,33.897
515.00,34.058
516.00,34.128
517.00,34.193
518.00,34.460
519.00,34.460
520.00,34.493
521.00,34.630
522.00,34.696
523.00,34.782
524.00,34.863
525.00,34.951
526.00,35.048
527.00,35.101
528.00,35.148
529.00,35.296
530.00,35.496
531.00,35.611
532.00,35.645
533.00,35.772
534.00,35.874
535.00,35.914
536.00,36.005
537.00,36.090
538.00,36.151
539.00,36.197
540.00,36.261
541.00,36.287
542.00,36.327
543.00,36.456
544.00,36.530
545.00,36.573
546.00,36.626
547.00,36.761
548.00,36.817
549.00,36.871
550.00,36.996
551.00,37.049
552.00,37.106
553.00,37.158
554.00,37.239
555.00,37.255
556.00,37.311
557.00,37.385
558.00,37.477
559.00,37.504
560.00,37.573
561.00,37.611
562.00,37.703
563.00,37.743
564.00,37.787
565.00,37.820
566.00,37.822
567.00,37.882
568.00,37.908
569.00,37.974
570.00,38.021
571.00,38.049
572.00,38.086
573.00,38.020
574.00,38.064
575.00,38.067
576.00,38.106
577.00,38.202
578.00,38.289
579.00,38.323
580.00,38.349
581.00,38.535
582.00,38.594
583.00,38.579
584.00,38.679
585.00,38.788
586.00,38.828
587.00,38.885
588.00,38.885
589.00,38.825
590.00,38.969
591.00,39.028
592.00,38.964
593.00,39.024
594.00,39.090
595.00,39.208
596.00,39.219
597.00,39.306
598.00,39.394
599.00,39.395
600.00,39.438
601.00,39.431
602.00,39.420
603.00,39.507
604.00,39.536
605.00,39.624
606.00,39.609
607.00,39.649
608.00,39.812
609.00,39.867
610.00,39.824
611.00,39.782
612.00,39.857
613.00,39.984
614.00,39.931
615.00,40.027
616.00,40.175
617.00,40.109
618.00,40.090
619.00,40.224
620.00,40.272
621.00,40.295
622.00,40.380
623.00,40.448
624.00,40.534
625.00,40.565
626.00,40.607
627.00,40.659
628.00,40.694
629.00,40.668
630.00,40.756
631.00,40.737
632.00,40.974
633.00,41.140
634.00,41.186
635.00,41.234
636.00,41.248
637.00,41.254
638.00,41.351
639.00,41.498
640.00,41.486
641.00,41.539
642.00,41.626
643.00,41.666
644.00,41.737
645.00,41.841
646.00,41.944
647.00,42.035
648.00,42.053
649.00,42.126
650.00,42.167
651.00,42.330
652.00,42.434
653.00,42.445
654.00,42.428
655.00,42.692
656.00,42.839
657.00,42.869
658.00,42.974
659.00,42.951
660.00,42.895
661.00,42.966
662.00,43.209
663.00,43.222
664.00,43.394
665.00,43.631
666.00,43.573
667.00,43.543
668.00,43.557
669.00,43.812
670.00,44.086
671.00,44.034
672.00,43.908
673.00,44.170
674.00,44.153
675.00,44.308
676.00,44.519
677.00,44.628
678.00,44.531
679.00,44.674
680.00,44.803
681.00,45.030
682.00,44.959
683.00,44.931
684.00,45.124
685.00,45.185
686.00,45.121
687.00,45.293
688.00,45.341
689.00,45.268
690.00,45.600
691.00,45.850
692.00,45.617
693.00,45.740
694.00,45.900
695.00,46.043
696.00,46.111
697.00,45.979
698.00,46.057
699.00,46.258
700.00,46.313
701.00,46.341
702.00,46.491
703.00,46.701
704.00,46.679
705.00,46.574
706.00,46.779
707.00,46.891
708.00,46.760
709.00,47.106
710.00,47.494
711.00,47.053
712.00,47.026
713.00,47.294
714.00,47.362
715.00,47.284
716.00,47.387
717.00,47.567
718.00,47.745
719.00,47.743
720.00,47.734
721.00,52.250
722.00,52.208
723.00,52.265
724.00,52.239
725.00,52.324
726.00,52.352
727.00,52.389
728.00,52.318
729.00,52.370
730.00,52.448
731.00,52.401
732.00,52.455
733.00,52.494
734.00,52.587
735.00,52.602
736.00,52.565
737.00,52.602
738.00,52.709
739.00,52.665
740.00,52.623
741.00,52.793
742.00,52.798
743.00,52.668
744.00,52.803
745.00,52.782
746.00,52.811
747.00,52.755
748.00,52.677
749.00,52.818
750.00,52.739
751.00,52.764
752.00,52.778
753.00,52.765
754.00,52.710
755.00,52.768
756.00,52.872
757.00,52.835
758.00,52.852
759.00,52.858
760.00,52.836
761.00,52.847
762.00,52.867
763.00,52.869
764.00,52.868
765.00,52.997
766.00,52.924
767.00,52.969
768.00,53.034
769.00,52.966
770.00,53.001
771.00,53.042
772.00,52.987
773.00,53.004
774.00,53.072
775.00,53.015
776.00,53.051
777.00,53.039
778.00,53.061
779.00,53.053
780.00,53.103
781.00,52.990
782.00,53.050
783.00,53.085
784.00,53.063
785.00,52.975
786.00,53.058
787.00,52.979
788.00,53.027
789.00,53.047
790.00,52.995
791.00,53.059
792.00,52.957
793.00,52.994
794.00,52.916
795.00,52.976
796.00,52.909
797.00,52.852
798.00,52.888
799.00,52.862
800.00,52.920
801.00,52.870
802.00,52.856
803.00,52.916
804.00,52.896
805.00,52.872
806.00,52.843
807.00,52.812
808.00,52.766
809.00,52.735
810.00,52.668
811.00,52.725
812.00,52.730
813.00,52.634
814.00,52.593
815.00,52.634
816.00,52.731
817.00,52.703
818.00,52.582
819.00,52.628
820.00,52.543
821.00,52.595
822.00,52.540
823.00,52.559
824.00,52.564
825.00,52.520
826.00,52.547
827.00,52.535
828.00,52.528
829.00,52.546
830.00,52.511
831.00,54.947
832.00,54.949
833.00,54.868
834.00,54.913
835.00,54.850
836.00,54.843
837.00,54.767
838.00,54.834
839.00,54.787
840.00,54.791
841.00,54.777
842.00,54.779
843.00,54.741
844.00,54.733
845.00,54.676
846.00,54.678
847.00,54.654
848.00,54.646
849.00,54.602
850.00,54.568
851.00,54.515
852.00,54.532
853.00,54.463
854.00,54.487
855.00,54.385
856.00,54.403
857.00,54.361
858.00,54.346
859.00,54.303
860.00,54.305
861.00,54.293
862.00,54.255
863.00,54.286
864.00,54.229
865.00,54.287
866.00,54.230
867.00,54.263
868.00,54.208
869.00,54.204
870.00,54.194
871.00,54.183
872.00,54.174
873.00,54.145
874.00,54.130
875.00,54.118
876.00,54.159
877.00,54.128
878.00,54.102
879.00,54.219
880.00,54.093
881.00,54.053
882.00,54.086
883.00,54.044
884.00,54.013
885.00,53.986
886.00,53.962
887.00,53.950
888.00,53.930
889.00,53.910
890.00,53.921
891.00,53.847
892.00,53.870
893.00,53.837
894.00,53.841
895.00,53.793
896.00,53.808
897.00,53.786
898.00,53.765
899.00,53.787
900.00,53.747
901.00,53.709
902.00,53.737
903.00,53.672
904.00,53.705
905.00,53.660
906.00,53.701
907.00,53.570
908.00,53.612
909.00,53.603
910.00,53.570
911.00,53.574
912.00,53.552
913.00,53.477
914.00,53.472
915.00,53.445
916.00,53.434
917.00,53.432
918.00,53.386
919.00,53.450
920.00,53.370
921.00,53.366
922.00,53.347
923.00,53.342
924.00,53.301
925.00,53.329
926.00,53.302
927.00,53.280
928.00,53.248
929.00,53.249
930.00,53.208
931.00,53.209
932.00,53.162
933.00,53.177
934.00,53.125
935.00,53.093
936.00,53.097
937.00,53.104
938.00,53.085
939.00,53.074
940.00,53.046
941.00,53.027
942.00,52.997
943.00,52.980
944.00,52.955
945.00,52.957
946.00,52.879
947.00,52.888
948.00,52.887
949.00,52.856
950.00,52.851
951.00,52.815
952.00,52.780
953.00,52.753
954.00,52.737
955.00,52.699
956.00,52.697
957.00,52.645
958.00,52.669
959.00,52.618
960.00,52.615
961.00,52.608
962.00,52.607
963.00,52.545
964.00,52.556
965.00,52.548
966.00,52.519
967.00,52.535
968.00,52.497
969.00,52.525
970.00,52.526
971.00,52.530
972.00,52.492
973.00,52.542
974.00,52.569
975.00,52.511
976.00,52.530
977.00,52.506
978.00,52.542
979.00,52.457
980.00,52.512
981.00,52.524
982.00,52.489
983.00,52.512
984.00,52.470
985.00,52.494
986.00,52.453
987.00,52.484
988.00,52.450
989.00,52.452
990.00,52.435
991.00,52.424
992.00,52.451
993.00,52.383
994.00,52.372
995.00,52.393
996.00,52.344
997.00,52.344
998.00,52.319
999.00,52.330
1000.00,52.291
1001.00,52.280
1002.00,52.282
1003.00,52.310
1004.00,52.256
1005.00,52.225
1006.00,52.267
1007.00,52.219
1008.00,52.224
1009.00,52.192
1010.00,52.185
1011.00,52.181
1012.00,52.139
1013.00,52.141
1014.00,52.119
1015.00,52.141
1016.00,52.109
1017.00,52.103
1018.00,52.096
1019.00,52.078
1020.00,52.061
1021.00,52.033
1022.00,52.053
1023.00,51.984
1024.00,51.994
1025.00,51.984
1026.00,51.957
1027.00,51.945
1028.00,51.934
1029.00,51.919
1030.00,51.896
1031.00,51.902
1032.00,51.848
1033.00,51.870
1034.00,51.843
1035.00,51.795
1036.00,51.785
1037.00,51.757
1038.00,51.739
1039.00,51.708
1040.00,51.686
1041.00,51.655
1042.00,51.644
1043.00,51.617
1044.00,51.658
1045.00,51.635
1046.00,51.608
1047.00,51.650
1048.00,51.656
1049.00,51.688
1050.00,51.673
1051.00,51.712
1052.00,51.715
1053.00,51.731
1054.00,51.712
1055.00,51.741
1056.00,51.732
1057.00,51.744
1058.00,51.719
1059.00,51.707
1060.00,51.725
1061.00,51.709
1062.00,51.705
1063.00,51.728
1064.00,51.715
1065.00,51.684
1066.00,51.676
1067.00,51.658
1068.00,51.671
1069.00,51.649
1070.00,51.635
1071.00,51.631
1072.00,51.648
1073.00,51.621
1074.00,51.624
1075.00,51.601
1076.00,51.599
1077.00,51.604
1078.00,51.561
1079.00,51.563
1080.00,51.561
1081.00,51.546
1082.00,51.544
1083.00,51.537
1084.00,51.535
1085.00,51.522
1086.00,51.506
1087.00,51.531
1088.00,51.492
1089.00,51.484
1090.00,51.476
1091.00,51.484
1092.00,51.459
1093.00,51.466
1094.00,51.437
1095.00,51.421
1096.00,51.409
1097.00,51.400
1098.00,51.397
1099.00,51.384
1100.00,51.371
1101.00,51.366
1102.00,51.362
1103.00,51.347
1104.00,51.342
1105.00,51.334
1106.00,51.304
1107.00,51.315
1108.00,51.301
1109.00,51.285
1110.00,51.292
1111.00,51.266
1112.00,51.254
1113.00,51.264
1114.00,51.255
1115.00,51.266
1116.00,51.254
1117.00,51.233
1118.00,51.226
1119.00,51.226
1120.00,51.220
1121.00,51.232
1122.00,51.199
1123.00,51.186
1124.00,51.199
1125.00,51.185
1126.00,51.187
1127.00,51.181
1128.00,51.154
1129.00,51.132
1130.00,51.116
1131.00,51.131
1132.00,51.146
1133.00,51.133
1134.00,51.104
1135.00,51.110
1136.00,51.101
1137.00,51.110
1138.00,51.109
1139.00,51.093
1140.00,51.094
1141.00,51.074
1142.00,51.062
1143.00,51.102
1144.00,51.052
1145.00,51.073
1146.00,51.085
1147.00,51.062
1148.00,51.086
1149.00,51.082
1150.00,51.069
1151.00,51.068
1152.00,51.060
1153.00,51.048
1154.00,51.034
1155.00,51.028
1156.00,51.009
1157.00,51.024
1158.00,51.009
1159.00,51.018
1160.00,51.011
1161.00,51.011
1162.00,51.023
1163.00,51.026
1164.00,50.999
1165.00,51.008
1166.00,51.011
1167.00,50.989
1168.00,51.011
1169.00,50.979
1170.00,50.987
1171.00,50.962
1172.00,50.973
1173.00,50.984
1174.00,50.978
1175.00,50.978
1176.00,50.997
1177.00,50.968
1178.00,50.962
1179.00,50.995
1180.00,50.961
1181.00,50.983
1182.00,50.966
1183.00,50.947
1184.00,50.952
1185.00,50.969
1186.00,50.957
1187.00,50.968
1188.00,50.950
1189.00,50.943
1190.00,50.950
1191.00,50.936
1192.00,50.978
1193.00,50.955
1194.00,50.955
1195.00,50.934
1196.00,50.964
1197.00,50.953
1198.00,50.940
1199.00,50.938
1200.00,50.933
1201.00,50.954
1202.00,50.913
1203.00,50.934
1204.00,50.921
1205.00,50.929
1206.00,50.942
1207.00,50.935
1208.00,50.929
1209.00,50.951
1210.00,50.938
1211.00,50.923
1212.00,50.944
1213.00,50.898
1214.00,50.919
1215.00,50.902
1216.00,50.901
1217.00,50.919
1218.00,50.903
1219.00,50.921
1220.00,50.925
1221.00,50.936
1222.00,50.908
1223.00,50.951
1224.00,50.941
1225.00,50.922
1226.00,50.924
1227.00,50.909
1228.00,50.937
1229.00,50.919
1230.00,50.947
1231.00,50.955
1232.00,50.959
1233.00,50.961
1234.00,50.964
1235.00,50.947
1236.00,50.949
1237.00,50.956
1238.00,50.950
1239.00,50.969
1240.00,50.944
1241.00,50.965
1242.00,50.982
1243.00,50.982
1244.00,50.952
1245.00,50.988
1246.00,50.982
1247.00,50.955
1248.00,50.961
1249.00,50.960
1250.00,50.980
1251.00,50.965
1252.00,50.966
1253.00,50.988
1254.00,51.030
1255.00,50.977
1256.00,50.980
1257.00,50.960
1258.00,51.012
1259.00,51.003
1260.00,51.015
1261.00,51.022
1262.00,51.015
1263.00,50.999
1264.00,51.018
1265.00,51.026
1266.00,51.010
1267.00,51.045
1268.00,51.032
1269.00,51.063
1270.00,51.064
1271.00,51.043
1272.00,51.068
1273.00,51.076
1274.00,51.069
1275.00,51.084
1276.00,51.076
1277.00,51.077
1278.00,51.099
1279.00,51.090
1280.00,51.089
1281.00,51.099
1282.00,51.100
1283.00,51.110
1284.00,51.129
1285.00,51.096
1286.00,51.118
1287.00,51.103
1288.00,51.100
1289.00,51.102
1290.00,51.126
1291.00,51.127
1292.00,51.127
1293.00,51.121
1294.00,51.143
1295.00,51.163
1296.00,51.158
1297.00,51.188
1298.00,51.203
1299.00,51.182
1300.00,51.196
1301.00,51.176
1302.00,51.210
1303.00,51.191
1304.00,51.163
1305.00,51.210
1306.00,51.199
1307.00,51.202
1308.00,51.221
1309.00,51.221
1310.00,51.222
1311.00,51.215
1312.00,51.215
1313.00,51.229
1314.00,51.251
1315.00,51.249
1316.00,51.248
1317.00,51.268
1318.00,51.258
1319.00,51.265
1320.00,51.261
1321.00,51.418
1322.00,51.415
1323.00,51.391
1324.00,51.380
1325.00,51.386
1326.00,51.406
1327.00,51.423
1328.00,51.406
1329.00,51.400
1330.00,51.419
1331.00,51.404
1332.00,51.395
1333.00,51.428
1334.00,51.428
1335.00,51.457
1336.00,51.473
1337.00,51.501
1338.00,51.568
1339.00,51.608
1340.00,51.656
1341.00,51.734
1342.00,51.794
1343.00,51.850
1344.00,51.891
1345.00,51.946
1346.00,51.983
1347.00,52.001
1348.00,52.010
1349.00,52.042
1350.00,52.052
1351.00,52.051
1352.00,52.109
1353.00,52.091
1354.00,52.096
1355.00,52.066
1356.00,52.105
1357.00,52.159
1358.00,52.109
1359.00,52.269
1360.00,52.520
1361.00,52.124
1362.00,52.027
1363.00,52.175
1364.00,52.342
1365.00,52.141
1366.00,52.187
1367.00,52.103
1368.00,52.072
1369.00,52.168
1370.00,52.076
1371.00,52.071
1372.00,52.090
1373.00,52.104
1374.00,52.183
1375.00,52.056
1376.00,52.087
1377.00,52.123
1378.00,52.114
1379.00,52.090
1380.00,52.072
1381.00,52.148
1382.00,52.108
1383.00,52.085
1384.00,52.026
1385.00,52.058
1386.00,52.066
1387.00,52.028
1388.00,52.017
1389.00,52.056
1390.00,51.766
1391.00,52.051
1392.00,52.076
1393.00,52.200
1394.00,52.107
1395.00,52.074
1396.00,52.012
1397.00,51.993
1398.00,52.150
1399.00,52.097
1400.00,51.982
1401.00,52.014
1402.00,52.168
1403.00,52.037
1404.00,52.056
1405.00,52.119
1406.00,52.088
1407.00,52.136
1408.00,52.160
1409.00,52.120
1410.00,52.154
1411.00,52.161
1412.00,52.218
1413.00,52.102
1414.00,52.104
1415.00,52.179
1416.00,52.176
1417.00,52.211
1418.00,52.162
1419.00,52.161
1420.00,52.204
1421.00,52.255
1422.00,52.234
1423.00,52.251
1424.00,52.250
1425.00,52.248
1426.00,52.249
1427.00,52.286
1428.00,52.277
1429.00,52.316
1430.00,52.310
1431.00,52.295
1432.00,52.354
1433.00,52.355
1434.00,52.359
1435.00,52.456
1436.00,52.414
1437.00,52.423
1438.00,52.424
1439.00,52.433
1440.00,52.469
1441.00,52.460
1442.00,52.459
1443.00,52.508
1444.00,52.570
1445.00,52.490
1446.00,52.510
1447.00,52.531
1448.00,52.609
1449.00,52.610
1450.00,52.589
1451.00,52.634
1452.00,52.610
1453.00,52.628
1454.00,52.671
1455.00,52.683
1456.00,52.697
1457.00,52.684
1458.00,52.702
1459.00,52.724
1460.00,52.744
1461.00,52.735
1462.00,52.794
1463.00,52.769
1464.00,52.791
1465.00,52.829
1466.00,52.830
1467.00,52.828
1468.00,52.888
1469.00,52.852
1470.00,52.887
1471.00,52.901
1472.00,52.901
1473.00,52.928
1474.00,52.953
1475.00,52.967
1476.00,53.002
1477.00,52.965
1478.00,52.977
1479.00,53.023
1480.00,53.006
1481.00,53.038
1482.00,53.036
1483.00,53.032
1484.00,53.070
1485.00,53.057
1486.00,53.074
1487.00,53.109
1488.00,53.110
1489.00,53.110
1490.00,53.130
1491.00,53.132
1492.00,53.167
1493.00,53.134
1494.00,53.182
1495.00,53.187
1496.00,53.191
1497.00,53.176
1498.00,53.174
1499.00,53.192
1500.00,53.220
1501.00, 
1502.00, 
1503.00, 
1504.00, 
1505.00, 
1506.00, 
1507.00, 
1508.00, 
1509.00, 
1510.00, 
1511.00, 
1512.00, 
1513.00, 
1514.00, 
1515.00, 
1516.00, 
1517.00, 
1518.00, 
1519.00, 
1520.00, 
1521.00, 
1522.00, 
1523.00, 
1524.00, 
1525.00, 
1526.00, 
1527.00, 
1528.00, 
1529.00, 
1530.00, 
1531.00, 
1532.00, 
1533.00, 
1534.00, 
1535.00, 
1536.00, 
1537.00, 
1538.00, 
1539.00, 
1540.00, 
1541.00, 
1542.00, 
1543.00, 
1544.00, 
1545.00, 
1546.00, 
1547.00, 
1548.00, 
1549.00, 
1550.00, 
1551.00, 
1552.00, 
1553.00, 
1554.00, 
1555.00, 
1556.00, 
1557.00, 
1558.00, 
1559.00, 
1560.00, 
1561.00, 
1562.00, 
1563.00, 
1564.00, 
1565.00, 
1566.00, 
1567.00, 
1568.00, 
1569.00, 
1570.00, 
1571.00, 
1572.00, 
1573.00, 
1574.00, 
1575.00, 
1576.00, 
1577.00, 
1578.00, 
1579.00, 
1580.00, 
1581.00, 
1582.00, 
1583.00, 
1584.00, 
1585.00, 
1586.00, 
1587.00, 
1588.00, 
1589.00, 
1590.00, 
1591.00, 
1592.00, 
1593.00, 
1594.00, 
1595.00, 
1596.00, 
1597.00, 
1598.00, 
1599.00, 
1600.00, 
1601.00, 
1602.00, 
1603.00, 
1604.00, 
1605.00, 
1606.00, 
1607.00, 
1608.00, 
1609.00, 
1610.00, 
1611.00, 
1612.00, 
1613.00, 
1614.00, 
1615.00, 
1616.00, 
1617.00, 
1618.00, 
1619.00, 
1620.00, 
1621.00, 
1622.00, 
1623.00, 
1624.00, 
1625.00, 
1626.00, 
1627.00, 
1628.00, 
1629.00, 
1630.00, 
1631.00, 
1632.00, 
1633.00, 
1634.00, 
1635.00, 
1636.00, 
1637.00, 
1638.00, 
1639.00, 
1640.00, 
1641.00, 
1642.00, 
1643.00, 
1644.00, 
1645.00, 
1646.00, 
1647.00, 
1648.00, 
1649.00, 
1650.00, 
1651.00, 
1652.00, 
1653.00, 
1654.00, 
1655.00, 
1656.00, 
1657.00, 
1658.00, 
1659.00, 
1660.00, 
1661.00, 
1662.00, 
1663.00, 
1664.00, 
1665.00, 
1666.00, 
1667.00, 
1668.00, 
1669.00, 
1670.00, 
1671.00, 
1672.00, 
1673.00, 
1674.00, 
1675.00, 
1676.00, 
1677.00, 
1678.00, 
1679.00, 
1680.00, 
1681.00, 
1682.00, 
1683.00, 
1684.00, 
1685.00, 
1686.00, 
1687.00, 
1688.00, 
1689.00, 
1690.00, 
1691.00, 
1692.00, 
1693.00, 
1694.00, 
1695.00, 
1696.00, 
1697.00, 
1698.00, 
1699.00, 
1700.00, 
1701.00, 
1702.00, 
1703.00, 
1704.00, 
1705.00, 
1706.00, 
1707.00, 
1708.00, 
1709.00, 
1710.00, 
1711.00, 
1712.00, 
1713.00, 
1714.00, 
1715.00, 
1716.00, 
1717.00, 
1718.00, 
1719.00, 
1720.00, 
1721.00, 
1722.00, 
1723.00, 
1724.00, 
1725.00, 
1726.00, 
1727.00, 
1728.00, 
1729.00, 
1730.00, 
1731.00, 
1732.00, 
1733.00, 
1734.00, 
1735.00, 
1736.00, 
1737.00, 
1738.00, 
1739.00, 
1740.00, 
1741.00, 
1742.00, 
1743.00, 
1744.00, 
1745.00, 
1746.00, 
1747.00, 
1748.00, 
1749.00, 
1750.00, 
1751.00, 
1752.00, 
1753.00, 
1754.00, 
1755.00, 
1756.00, 
1757.00, 
1758.00, 
1759.00, 
1760.00, 
1761.00, 
1762.00, 
1763.00, 
1764.00, 
1765.00, 
1766.00, 
1767.00, 
1768.00, 
1769.00, 
1770.00, 
1771.00, 
1772.00, 
1773.00, 
1774.00, 
1775.00, 
1776.00, 
1777.00, 
1778.00, 
1779.00, 
1780.00, 
1781.00, 
1782.00, 
1783.00, 
1784.00, 
1785.00, 
1786.00, 
1787.00, 
1788.00, 
1789.00, 
1790.00, 
1791.00, 
1792.00, 
1793.00, 
1794.00, 
1795.00, 
1796.00, 
1797.00, 
1798.00, 
1799.00, 
1800.00, 
1801.00, 
1802.00, 
1803.00, 
1804.00, 
1805.00, 
1806.00, 
1807.00, 
1808.00, 
1809.00, 
1810.00, 
1811.00, 
1812.00, 
1813.00, 
1814.00, 
1815.00, 
1816.00, 
1817.00, 
1818.00, 
1819.00, 
1820.00, 
1821.00, 
1822.00, 
1823.00, 
1824.00, 
1825.00, 
1826.00, 
1827.00, 
1828.00, 
1829.00, 
1830.00, 
1831.00, 
1832.00, 
1833.00, 
1834.00, 
1835.00, 
1836.00, 
1837.00, 
1838.00, 
1839.00, 
1840.00, 
1841.00, 
1842.00, 
1843.00, 
1844.00, 
1845.00, 
1846.00, 
1847.00, 
1848.00, 
1849.00, 
1850.00, 
1851.00, 
1852.00, 
1853.00, 
1854.00, 
1855.00, 
1856.00, 
1857.00, 
1858.00, 
1859.00, 
1860.00, 
1861.00, 
1862.00, 
1863.00, 
1864.00, 
1865.00, 
1866.00, 
1867.00, 
1868.00, 
1869.00, 
1870.00, 
1871.00, 
1872.00, 
1873.00, 
1874.00, 
1875.00, 
1876.00, 
1877.00, 
1878.00, 
1879.00, 
1880.00, 
1881.00, 
1882.00, 
1883.00, 
1884.00, 
1885.00, 
1886.00, 
1887.00, 
1888.00, 
1889.00, 
1890.00, 
1891.00, 
1892.00, 
1893.00, 
1894.00, 
1895.00, 
1896.00, 
1897.00, 
1898.00, 
1899.00, 
1900.00, 
1901.00, 
1902.00, 
1903.00, 
1904.00, 
1905.00, 
1906.00, 
1907.00, 
1908.00, 
1909.00, 
1910.00, 
1911.00, 
1912.00, 
1913.00, 
1914.00, 
1915.00, 
1916.00, 
1917.00, 
1918.00, 
1919.00, 
1920.00, 
1921.00, 
1922.00, 
1923.00, 
1924.00, 
1925.00, 
1926.00, 
1927.00, 
1928.00, 
1929.00, 
1930.00, 
1931.00, 
1932.00, 
1933.00, 
1934.00, 
1935.00, 
1936.00, 
1937.00, 
1938.00, 
1939.00, 
1940.00, 
1941.00, 
1942.00, 
1943.00, 
1944.00, 
1945.00, 
1946.00, 
1947.00, 
1948.00, 
1949.00, 
1950.00, 
1951.00, 
1952.00, 
1953.00, 
1954.00, 
1955.00, 
1956.00, 
1957.00, 
1958.00, 
1959.00, 
1960.00, 
1961.00, 
1962.00, 
1963.00, 
1964.00, 
1965.00, 
1966.00, 
1967.00, 
1968.00, 
1969.00, 
1970.00, 
1971.00, 
1972.00, 
1973.00, 
1974.00, 
1975.00, 
1976.00, 
1977.00, 
1978.00, 
1979.00, 
1980.00, 
1981.00, 
1982.00, 
1983.00, 
1984.00, 
1985.00, 
1986.00, 
1987.00, 
1988.00, 
1989.00, 
1990.00, 
1991.00, 
1992.00, 
1993.00, 
1994.00, 
1995.00, 
1996.00, 
1997.00, 
1998.00, 
1999.00, 
2000.00, 
2001.00, 
2002.00, 
2003.00, 
2004.00, 
2005.00, 
2006.00, 
2007.00, 
2008.00, 
2009.00, 
2010.00, 
2011.00, 
2012.00, 
2013.00, 
2014.00, 
2015.00, 
2016.00, 
2017.00, 
2018.00, 
2019.00, 
2020.00, 
2021.00, 
2022.00, 
2023.00, 
2024.00, 
2025.00, 
2026.00, 
2027.00, 
2028.00, 
2029.00, 
2030.00, 
2031.00, 
2032.00, 
2033.00, 
2034.00, 
2035.00, 
2036.00, 
2037.00, 
2038.00, 
2039.00, 
2040.00, 
2041.00, 
2042.00, 
2043.00, 
2044.00, 
2045.00, 
2046.00, 
2047.00, 
2048.00, 
2049.00, 
2050.00, 
2051.00, 
2052.00, 
2053.00, 
2054.00, 
2055.00, 
2056.00, 
2057.00, 
2058.00, 
2059.00, 
2060.00, 
2061.00, 
2062.00, 
2063.00, 
2064.00, 
2065.00, 
2066.00, 
2067.00, 
2068.00, 
2069.00, 
2070.00, 
2071.00, 
2072.00, 
2073.00, 
2074.00, 
2075.00, 
2076.00, 
2077.00, 
2078.00, 
2079.00, 
2080.00, 
2081.00, 
2082.00, 
2083.00, 
2084.00, 
2085.00, 
2086.00, 
2087.00, 
2088.00, 
2089.00, 
2090.00, 
2091.00, 
2092.00, 
2093.00, 
2094.00, 
2095.00, 
2096.00, 
2097.00, 
2098.00, 
2099.00, 
2100.00, 
2101.00, 
2102.00, 
2103.00, 
2104.00, 
2105.00, 
2106.00, 
2107.00, 
2108.00, 
2109.00, 
2110.00, 
2111.00, 
2112.00, 
2113.00, 
2114.00, 
2115.00, 
2116.00, 
2117.00, 
2118.00, 
2119.00, 
2120.00, 
2121.00, 
2122.00, 
2123.00, 
2124.00, 
2125.00, 
2126.00, 
2127.00, 
2128.00, 
2129.00, 
2130.00, 
2131.00, 
2132.00, 
2133.00, 
2134.00, 
2135.00, 
2136.00, 
2137.00, 
2138.00, 
2139.00, 
2140.00, 
2141.00, 
2142.00, 
2143.00, 
2144.00, 
2145.00, 
2146.00, 
2147.00, 
2148.00, 
2149.00, 
2150.00, 
2151.00, 
2152.00, 
2153.00, 
2154.00, 
2155.00, 
2156.00, 
2157.00, 
2158.00, 
2159.00, 
2160.00, 
2161.00, 
2162.00, 
2163.00, 
2164.00, 
2165.00, 
2166.00, 
2167.00, 
2168.00, 
2169.00, 
2170.00, 
2171.00, 
2172.00, 
2173.00, 
2174.00, 
2175.00, 
2176.00, 
2177.00, 
2178.00, 
2179.00, 
2180.00, 
2181.00, 
2182.00, 
2183.00, 
2184.00, 
2185.00, 
2186.00, 
2187.00, 
2188.00, 
2189.00, 
2190.00, 
2191.00, 
2192.00, 
2193.00, 
2194.00, 
2195.00, 
2196.00, 
2197.00, 
2198.00, 
2199.00, 
2200.00, 
2201.00, 
2202.00, 
2203.00, 
2204.00, 
2205.00, 
2206.00, 
2207.00, 
2208.00, 
2209.00, 
2210.00, 
2211.00, 
2212.00, 
2213.00, 
2214.00, 
2215.00, 
2216.00, 
2217.00, 
2218.00, 
2219.00, 
2220.00, 
2221.00, 
2222.00, 
2223.00, 
2224.00, 
2225.00, 
2226.00, 
2227.00, 
2228.00, 
2229.00, 
2230.00, 
2231.00, 
2232.00, 
2233.00, 
2234.00, 
2235.00, 
2236.00, 
2237.00, 
2238.00, 
2239.00, 
2240.00, 
2241.00, 
2242.00, 
2243.00, 
2244.00, 
2245.00, 
2246.00, 
2247.00, 
2248.00, 
2249.00, 
2250.00, 
2251.00, 
2252.00, 
2253.00, 
2254.00, 
2255.00, 
2256.00, 
2257.00, 
2258.00, 
2259.00, 
2260.00, 
2261.00, 
2262.00, 
2263.00, 
2264.00, 
2265.00, 
2266.00, 
2267.00, 
2268.00, 
2269.00, 
2270.00, 
2271.00, 
2272.00, 
2273.00, 
2274.00, 
2275.00, 
2276.00, 
2277.00, 
2278.00, 
2279.00, 
2280.00, 
2281.00, 
2282.00, 
2283.00, 
2284.00, 
2285.00, 
2286.00, 
2287.00, 
2288.00, 
2289.00, 
2290.00, 
2291.00, 
2292.00, 
2293.00, 
2294.00, 
2295.00, 
2296.00, 
2297.00, 
2298.00, 
2299.00, 
2300.00, 
2301.00, 
2302.00, 
2303.00, 
2304.00, 
2305.00, 
2306.00, 
2307.00, 
2308.00, 
2309.00, 
2310.00, 
2311.00, 
2312.00, 
2313.00, 
2314.00, 
2315.00, 
2316.00, 
2317.00, 
2318.00, 
2319.00, 
2320.00, 
2321.00, 
2322.00, 
2323.00, 
2324.00, 
2325.00, 
2326.00, 
2327.00, 
2328.00, 
2329.00, 
2330.00, 
2331.00, 
2332.00, 
2333.00, 
2334.00, 
2335.00, 
2336.00, 
2337.00, 
2338.00, 
2339.00, 
2340.00, 
2341.00, 
2342.00, 
2343.00, 
2344.00, 
2345.00, 
2346.00, 
2347.00, 
2348.00, 
2349.00, 
2350.00, 
2351.00, 
2352.00, 
2353.00, 
2354.00, 
2355.00, 
2356.00, 
2357.00, 
2358.00, 
2359.00, 
2360.00, 
2361.00, 
2362.00, 
2363.00, 
2364.00, 
2365.00, 
2366.00, 
2367.00, 
2368.00, 
2369.00, 
2370.00, 
2371.00, 
2372.00, 
2373.00, 
2374.00, 
2375.00, 
2376.00, 
2377.00, 
2378.00, 
2379.00, 
2380.00, 
2381.00, 
2382.00, 
2383.00, 
2384.00, 
2385.00, 
2386.00, 
2387.00, 
2388.00, 
2389.00, 
2390.00, 
2391.00, 
2392.00, 
2393.00, 
2394.00, 
2395.00, 
2396.00, 
2397.00, 
2398.00, 
2399.00, 
2400.00, 
2401.00, 
2402.00, 
2403.00, 
2404.00, 
2405.00, 
2406.00, 
2407.00, 
2408.00, 
2409.00, 
2410.00, 
2411.00, 
2412.00, 
2413.00, 
2414.00, 
2415.00, 
2416.00, 
2417.00, 
2418.00, 
2419.00, 
2420.00, 
2421.00, 
2422.00, 
2423.00, 
2424.00, 
2425.00, 
2426.00, 
2427.00, 
2428.00, 
2429.00, 
2430.00, 
2431.00, 
2432.00, 
2433.00, 
2434.00, 
2435.00, 
2436.00, 
2437.00, 
2438.00, 
2439.00, 
2440.00, 
2441.00, 
2442.00, 
2443.00, 
2444.00, 
2445.00, 
2446.00, 
2447.00, 
2448.00, 
2449.00, 
2450.00, 
2451.00, 
2452.00, 
2453.00, 
2454.00, 
2455.00, 
2456.00, 
2457.00, 
2458.00, 
2459.00, 
2460.00, 
2461.00, 
2462.00, 
2463.00, 
2464.00, 
2465.00, 
2466.00, 
2467.00, 
2468.00, 
2469.00, 
2470.00, 
2471.00, 
2472.00, 
2473.00, 
2474.00, 
2475.00, 
2476.00, 
2477.00, 
2478.00, 
2479.00, 
2480.00, 
2481.00, 
2482.00, 
2483.00, 
2484.00, 
2485.00, 
2486.00, 
2487.00, 
2488.00, 
2489.00, 
2490.00, 
2491.00, 
2492.00, 
2493.00, 
2494.00, 
2495.00, 
2496.00, 
2497.00, 
2498.00, 
2499.00, 
2500.00, 
2501.00, 
2502.00, 
2503.00, 
2504.00, 
2505.00, 
2506.00, 
2507.00, 
2508.00, 
2509.00, 
2510.00, 
2511.00, 
2512.00, 
2513.00, 
2514.00, 
2515.00, 
2516.00, 
2517.00, 
2518.00, 
2519.00, 
2520.00, 
2521.00, 
2522.00, 
2523.00, 
2524.00, 
2525.00, 
2526.00, 
2527.00, 
2528.00, 
2529.00, 
2530.00, 
2531.00, 
2532.00, 
2533.00, 
2534.00, 
2535.00, 
2536.00, 
2537.00, 
2538.00, 
2539.00, 
2540.00, 
2541.00, 
2542.00, 
2543.00, 
2544.00, 
2545.00, 
2546.00, 
2547.00, 
2548.00, 
2549.00, 
2550.00, 
2551.00, 
2552.00, 
2553.00, 
2554.00, 
2555.00, 
2556.00, 
2557.00, 
2558.00, 
2559.00, 
2560.00, 
2561.00, 
2562.00, 
2563.00, 
2564.00, 
2565.00, 
2566.00, 
2567.00, 
2568.00, 
2569.00, 
2570.00, 
2571.00, 
2572.00, 
2573.00, 
2574.00, 
2575.00, 
2576.00, 
2577.00, 
2578.00, 
2579.00, 
2580.00, 
2581.00, 
2582.00, 
2583.00, 
2584.00, 
2585.00, 
2586.00, 
2587.00, 
2588.00, 
2589.00, 
2590.00, 
2591.00, 
2592.00, 
2593.00, 
2594.00, 
2595.00, 
2596.00, 
2597.00, 
2598.00, 
2599.00, 
2600.00, 
