"2cP2 - RawData"
"Wavelength nm.","T%"
200.00,0.002
201.00,-0.001
202.00,0.003
203.00,0.001
204.00,0.002
205.00,0.001
206.00,0.002
207.00,0.003
208.00,0.005
209.00,-0.001
210.00,0.001
211.00,0.003
212.00,0.001
213.00,-0.000
214.00,0.001
215.00,-0.000
216.00,0.000
217.00,-0.000
218.00,0.003
219.00,0.004
220.00,-0.000
221.00,0.001
222.00,0.001
223.00,0.001
224.00,0.003
225.00,0.000
226.00,0.000
227.00,0.003
228.00,0.000
229.00,0.002
230.00,0.000
231.00,-0.000
232.00,0.002
233.00,0.001
234.00,0.002
235.00,0.003
236.00,0.001
237.00,-0.001
238.00,0.001
239.00,-0.002
240.00,0.002
241.00,0.001
242.00,0.001
243.00,0.001
244.00,-0.000
245.00,-0.000
246.00,0.001
247.00,0.001
248.00,0.001
249.00,-0.000
250.00,0.001
251.00,0.001
252.00,0.001
253.00,0.000
254.00,0.000
255.00,0.002
256.00,0.001
257.00,-0.000
258.00,0.002
259.00,0.002
260.00,0.000
261.00,-0.001
262.00,-0.001
263.00,0.001
264.00,-0.001
265.00,-0.002
266.00,0.001
267.00,-0.001
268.00,0.001
269.00,-0.000
270.00,-0.000
271.00,0.001
272.00,-0.001
273.00,-0.000
274.00,0.000
275.00,-0.000
276.00,-0.000
277.00,0.001
278.00,0.000
279.00,-0.000
280.00,0.001
281.00,0.000
282.00,-0.000
283.00,0.001
284.00,-0.001
285.00,0.001
286.00,0.002
287.00,-0.001
288.00,0.001
289.00,-0.000
290.00,0.002
291.00,-0.000
292.00,-0.000
293.00,0.001
294.00,0.002
295.00,0.000
296.00,-0.001
297.00,0.001
298.00,-0.000
299.00,0.002
300.00,0.004
301.00,0.006
302.00,0.009
303.00,0.015
304.00,0.022
305.00,0.034
306.00,0.055
307.00,0.083
308.00,0.127
309.00,0.194
310.00,0.273
311.00,0.379
312.00,0.503
313.00,0.695
314.00,0.899
315.00,1.190
316.00,1.523
317.00,1.921
318.00,2.356
319.00,2.914
320.00,3.559
321.00,4.258
322.00,5.003
323.00,5.932
324.00,6.866
325.00,7.804
326.00,8.803
327.00,9.969
328.00,11.106
329.00,12.321
330.00,13.526
331.00,14.794
332.00,16.033
333.00,17.420
334.00,18.505
335.00,20.044
336.00,21.361
337.00,22.692
338.00,23.965
339.00,25.136
340.00,26.357
341.00,27.498
342.00,28.592
343.00,29.772
344.00,30.867
345.00,31.827
346.00,32.694
347.00,33.683
348.00,34.546
349.00,35.383
350.00,36.126
351.00,36.872
352.00,37.583
353.00,38.268
354.00,38.880
355.00,39.400
356.00,40.064
357.00,40.609
358.00,41.089
359.00,41.555
360.00,42.041
361.00,42.362
362.00,42.754
363.00,43.180
364.00,43.512
365.00,43.781
366.00,44.177
367.00,44.377
368.00,44.471
369.00,44.757
370.00,44.904
371.00,45.086
372.00,45.194
373.00,45.282
374.00,45.228
375.00,45.358
376.00,45.397
377.00,45.378
378.00,45.321
379.00,45.347
380.00,45.406
381.00,45.480
382.00,45.566
383.00,45.683
384.00,45.749
385.00,45.945
386.00,46.121
387.00,46.330
388.00,46.460
389.00,46.572
390.00,46.754
391.00,46.782
392.00,46.957
393.00,47.080
394.00,47.182
395.00,47.273
396.00,47.336
397.00,47.378
398.00,47.513
399.00,47.440
400.00,47.535
401.00,47.527
402.00,47.706
403.00,47.714
404.00,47.802
405.00,47.831
406.00,47.832
407.00,47.769
408.00,47.817
409.00,47.773
410.00,47.697
411.00,47.651
412.00,47.654
413.00,47.658
414.00,47.587
415.00,47.692
416.00,47.742
417.00,47.719
418.00,47.723
419.00,47.787
420.00,47.836
421.00,47.915
422.00,47.931
423.00,47.901
424.00,47.900
425.00,48.006
426.00,48.015
427.00,47.964
428.00,48.007
429.00,47.914
430.00,48.127
431.00,48.083
432.00,48.115
433.00,48.163
434.00,48.155
435.00,48.216
436.00,48.202
437.00,48.297
438.00,48.303
439.00,48.346
440.00,48.409
441.00,48.342
442.00,48.442
443.00,48.429
444.00,48.419
445.00,48.491
446.00,48.544
447.00,48.612
448.00,48.661
449.00,48.747
450.00,48.740
451.00,48.835
452.00,48.891
453.00,48.932
454.00,48.952
455.00,48.961
456.00,49.004
457.00,49.112
458.00,49.147
459.00,49.104
460.00,49.232
461.00,49.234
462.00,49.294
463.00,49.323
464.00,49.409
465.00,49.477
466.00,49.484
467.00,49.590
468.00,49.636
469.00,49.554
470.00,49.543
471.00,49.536
472.00,49.573
473.00,49.511
474.00,49.523
475.00,49.505
476.00,49.581
477.00,49.653
478.00,49.661
479.00,49.714
480.00,49.813
481.00,49.832
482.00,49.938
483.00,49.930
484.00,50.006
485.00,50.187
486.00,50.225
487.00,50.217
488.00,50.287
489.00,50.356
490.00,50.376
491.00,50.444
492.00,50.584
493.00,50.563
494.00,50.489
495.00,50.515
496.00,50.609
497.00,50.626
498.00,50.701
499.00,50.741
500.00,50.780
501.00,50.710
502.00,50.846
503.00,50.839
504.00,50.854
505.00,50.981
506.00,50.999
507.00,51.059
508.00,51.176
509.00,51.086
510.00,51.152
511.00,51.165
512.00,51.131
513.00,51.221
514.00,51.300
515.00,51.337
516.00,51.394
517.00,51.403
518.00,51.532
519.00,51.449
520.00,51.422
521.00,51.458
522.00,51.439
523.00,51.567
524.00,51.546
525.00,51.543
526.00,51.568
527.00,51.603
528.00,51.616
529.00,51.603
530.00,51.643
531.00,51.758
532.00,51.817
533.00,51.796
534.00,51.889
535.00,51.893
536.00,51.894
537.00,51.897
538.00,51.968
539.00,51.909
540.00,51.954
541.00,51.945
542.00,51.911
543.00,51.966
544.00,51.949
545.00,51.954
546.00,52.133
547.00,52.162
548.00,52.202
549.00,52.182
550.00,52.313
551.00,52.270
552.00,52.297
553.00,52.326
554.00,52.376
555.00,52.327
556.00,52.362
557.00,52.384
558.00,52.432
559.00,52.388
560.00,52.462
561.00,52.447
562.00,52.503
563.00,52.480
564.00,52.489
565.00,52.558
566.00,52.476
567.00,52.585
568.00,52.430
569.00,52.445
570.00,52.429
571.00,52.442
572.00,52.450
573.00,52.440
574.00,52.447
575.00,52.418
576.00,52.461
577.00,52.515
578.00,52.550
579.00,52.589
580.00,52.643
581.00,52.722
582.00,52.754
583.00,52.801
584.00,52.884
585.00,52.876
586.00,52.902
587.00,52.940
588.00,52.851
589.00,52.885
590.00,52.968
591.00,52.969
592.00,52.907
593.00,52.950
594.00,52.939
595.00,52.971
596.00,53.013
597.00,53.014
598.00,53.113
599.00,53.053
600.00,53.023
601.00,53.028
602.00,52.997
603.00,52.971
604.00,52.906
605.00,52.975
606.00,53.034
607.00,53.069
608.00,53.134
609.00,53.059
610.00,53.122
611.00,53.131
612.00,53.017
613.00,53.052
614.00,53.059
615.00,53.121
616.00,53.107
617.00,53.053
618.00,53.002
619.00,53.072
620.00,53.068
621.00,53.065
622.00,53.096
623.00,53.130
624.00,53.136
625.00,53.130
626.00,53.127
627.00,53.087
628.00,53.078
629.00,53.049
630.00,53.095
631.00,53.027
632.00,53.071
633.00,53.129
634.00,53.099
635.00,53.033
636.00,53.129
637.00,53.131
638.00,53.096
639.00,53.123
640.00,53.011
641.00,53.083
642.00,52.984
643.00,53.084
644.00,53.111
645.00,52.978
646.00,53.017
647.00,53.008
648.00,52.945
649.00,53.130
650.00,53.086
651.00,53.066
652.00,53.115
653.00,53.088
654.00,53.066
655.00,53.089
656.00,53.038
657.00,53.101
658.00,53.040
659.00,53.025
660.00,53.043
661.00,52.876
662.00,53.196
663.00,53.048
664.00,53.110
665.00,53.079
666.00,53.105
667.00,53.018
668.00,52.974
669.00,53.012
670.00,53.057
671.00,53.117
672.00,52.839
673.00,53.126
674.00,53.003
675.00,52.945
676.00,53.085
677.00,53.033
678.00,53.026
679.00,53.077
680.00,53.021
681.00,52.920
682.00,52.979
683.00,52.921
684.00,53.055
685.00,52.902
686.00,52.897
687.00,52.977
688.00,52.879
689.00,52.737
690.00,52.839
691.00,52.832
692.00,52.779
693.00,52.849
694.00,52.755
695.00,52.814
696.00,52.785
697.00,52.734
698.00,52.762
699.00,52.728
700.00,52.742
701.00,52.705
702.00,52.746
703.00,52.747
704.00,52.691
705.00,52.642
706.00,52.665
707.00,52.794
708.00,52.523
709.00,52.613
710.00,52.743
711.00,52.481
712.00,52.391
713.00,52.492
714.00,52.364
715.00,52.473
716.00,52.419
717.00,52.388
718.00,52.552
719.00,52.397
720.00,52.221
721.00,56.719
722.00,56.722
723.00,56.657
724.00,56.528
725.00,56.619
726.00,56.431
727.00,56.279
728.00,56.339
729.00,56.200
730.00,56.262
731.00,56.205
732.00,56.123
733.00,56.151
734.00,55.988
735.00,56.092
736.00,55.924
737.00,55.826
738.00,55.855
739.00,55.812
740.00,55.717
741.00,55.685
742.00,55.714
743.00,55.512
744.00,55.521
745.00,55.421
746.00,55.418
747.00,55.321
748.00,55.251
749.00,55.279
750.00,55.160
751.00,55.179
752.00,55.036
753.00,55.046
754.00,54.973
755.00,54.824
756.00,54.842
757.00,54.793
758.00,54.786
759.00,54.720
760.00,54.592
761.00,54.670
762.00,54.499
763.00,54.514
764.00,54.499
765.00,54.525
766.00,54.469
767.00,54.493
768.00,54.340
769.00,54.391
770.00,54.221
771.00,54.282
772.00,54.197
773.00,54.252
774.00,54.148
775.00,54.159
776.00,54.121
777.00,54.087
778.00,53.974
779.00,53.932
780.00,54.019
781.00,53.926
782.00,53.903
783.00,53.846
784.00,53.794
785.00,53.767
786.00,53.748
787.00,53.753
788.00,53.594
789.00,53.580
790.00,53.553
791.00,53.542
792.00,53.432
793.00,53.430
794.00,53.412
795.00,53.339
796.00,53.331
797.00,53.320
798.00,53.238
799.00,53.192
800.00,53.203
801.00,53.088
802.00,53.025
803.00,52.997
804.00,52.962
805.00,52.906
806.00,52.925
807.00,52.860
808.00,52.930
809.00,52.778
810.00,52.784
811.00,52.741
812.00,52.715
813.00,52.671
814.00,52.632
815.00,52.653
816.00,52.696
817.00,52.618
818.00,52.413
819.00,52.485
820.00,52.421
821.00,52.337
822.00,52.316
823.00,52.289
824.00,52.311
825.00,52.243
826.00,52.368
827.00,52.348
828.00,52.141
829.00,52.177
830.00,52.127
831.00,54.724
832.00,54.739
833.00,54.670
834.00,54.656
835.00,54.581
836.00,54.601
837.00,54.553
838.00,54.526
839.00,54.478
840.00,54.452
841.00,54.456
842.00,54.420
843.00,54.368
844.00,54.366
845.00,54.264
846.00,54.283
847.00,54.243
848.00,54.379
849.00,54.166
850.00,54.113
851.00,54.058
852.00,54.054
853.00,53.985
854.00,53.975
855.00,53.899
856.00,53.870
857.00,53.821
858.00,53.816
859.00,53.749
860.00,53.720
861.00,53.701
862.00,53.713
863.00,53.692
864.00,53.637
865.00,53.650
866.00,53.620
867.00,53.594
868.00,53.559
869.00,53.554
870.00,53.520
871.00,53.512
872.00,53.494
873.00,53.470
874.00,53.453
875.00,53.433
876.00,53.432
877.00,53.404
878.00,53.387
879.00,53.322
880.00,53.336
881.00,53.306
882.00,53.286
883.00,53.255
884.00,53.214
885.00,53.187
886.00,53.164
887.00,53.150
888.00,53.123
889.00,53.099
890.00,53.103
891.00,53.014
892.00,53.022
893.00,52.982
894.00,52.971
895.00,52.933
896.00,52.923
897.00,52.918
898.00,52.895
899.00,52.875
900.00,52.863
901.00,52.842
902.00,52.845
903.00,52.825
904.00,52.815
905.00,52.745
906.00,52.796
907.00,52.825
908.00,52.670
909.00,52.678
910.00,52.628
911.00,52.635
912.00,52.632
913.00,52.562
914.00,52.538
915.00,52.514
916.00,52.511
917.00,52.464
918.00,52.454
919.00,52.436
920.00,52.419
921.00,52.372
922.00,52.347
923.00,52.340
924.00,52.314
925.00,52.325
926.00,52.277
927.00,52.230
928.00,52.371
929.00,52.207
930.00,52.187
931.00,52.175
932.00,52.129
933.00,52.139
934.00,52.110
935.00,52.100
936.00,52.053
937.00,52.052
938.00,52.024
939.00,52.023
940.00,51.989
941.00,51.993
942.00,51.941
943.00,51.922
944.00,51.899
945.00,51.909
946.00,51.880
947.00,51.843
948.00,51.837
949.00,51.800
950.00,51.794
951.00,51.776
952.00,51.730
953.00,51.710
954.00,51.674
955.00,51.631
956.00,51.626
957.00,51.580
958.00,51.605
959.00,51.556
960.00,51.530
961.00,51.515
962.00,51.519
963.00,51.446
964.00,51.491
965.00,51.444
966.00,51.448
967.00,51.431
968.00,51.406
969.00,51.437
970.00,51.410
971.00,51.426
972.00,51.383
973.00,51.429
974.00,51.440
975.00,51.382
976.00,51.446
977.00,51.497
978.00,51.426
979.00,51.376
980.00,51.399
981.00,51.392
982.00,51.378
983.00,51.376
984.00,51.360
985.00,51.376
986.00,51.323
987.00,51.342
988.00,51.312
989.00,51.298
990.00,51.311
991.00,51.284
992.00,51.309
993.00,51.263
994.00,51.252
995.00,51.252
996.00,51.231
997.00,51.217
998.00,51.196
999.00,51.207
1000.00,51.160
1001.00,51.159
1002.00,51.164
1003.00,51.183
1004.00,51.142
1005.00,51.105
1006.00,51.120
1007.00,51.097
1008.00,51.087
1009.00,51.084
1010.00,51.048
1011.00,51.040
1012.00,51.000
1013.00,51.010
1014.00,50.974
1015.00,50.991
1016.00,50.945
1017.00,50.939
1018.00,50.932
1019.00,50.912
1020.00,50.882
1021.00,50.862
1022.00,50.865
1023.00,50.810
1024.00,50.829
1025.00,50.863
1026.00,50.805
1027.00,50.769
1028.00,50.757
1029.00,50.747
1030.00,50.721
1031.00,50.719
1032.00,50.676
1033.00,50.690
1034.00,50.660
1035.00,50.624
1036.00,50.616
1037.00,50.592
1038.00,50.572
1039.00,50.550
1040.00,50.543
1041.00,50.501
1042.00,50.497
1043.00,50.458
1044.00,50.495
1045.00,50.478
1046.00,50.470
1047.00,50.482
1048.00,50.490
1049.00,50.506
1050.00,50.509
1051.00,50.538
1052.00,50.545
1053.00,50.546
1054.00,50.541
1055.00,50.560
1056.00,50.566
1057.00,50.575
1058.00,50.562
1059.00,50.559
1060.00,50.555
1061.00,50.558
1062.00,50.539
1063.00,50.561
1064.00,50.532
1065.00,50.522
1066.00,50.528
1067.00,50.511
1068.00,50.512
1069.00,50.488
1070.00,50.474
1071.00,50.447
1072.00,50.459
1073.00,50.431
1074.00,50.437
1075.00,50.420
1076.00,50.411
1077.00,50.396
1078.00,50.391
1079.00,50.378
1080.00,50.383
1081.00,50.366
1082.00,50.370
1083.00,50.356
1084.00,50.347
1085.00,50.354
1086.00,50.359
1087.00,50.326
1088.00,50.299
1089.00,50.295
1090.00,50.295
1091.00,50.289
1092.00,50.279
1093.00,50.260
1094.00,50.254
1095.00,50.246
1096.00,50.239
1097.00,50.222
1098.00,50.219
1099.00,50.203
1100.00,50.196
1101.00,50.175
1102.00,50.175
1103.00,50.170
1104.00,50.174
1105.00,50.151
1106.00,50.147
1107.00,50.141
1108.00,50.125
1109.00,50.114
1110.00,50.127
1111.00,50.113
1112.00,50.100
1113.00,50.097
1114.00,50.093
1115.00,50.088
1116.00,50.089
1117.00,50.063
1118.00,50.058
1119.00,50.037
1120.00,50.039
1121.00,50.035
1122.00,50.026
1123.00,50.017
1124.00,50.016
1125.00,50.000
1126.00,50.005
1127.00,50.005
1128.00,49.994
1129.00,49.967
1130.00,49.959
1131.00,49.947
1132.00,49.957
1133.00,49.947
1134.00,49.934
1135.00,49.910
1136.00,49.919
1137.00,49.914
1138.00,49.910
1139.00,49.920
1140.00,49.912
1141.00,49.893
1142.00,49.902
1143.00,49.898
1144.00,49.889
1145.00,49.882
1146.00,49.887
1147.00,49.891
1148.00,49.875
1149.00,49.888
1150.00,49.888
1151.00,49.888
1152.00,49.872
1153.00,49.863
1154.00,49.853
1155.00,49.864
1156.00,49.845
1157.00,49.851
1158.00,49.856
1159.00,49.848
1160.00,49.845
1161.00,49.856
1162.00,49.839
1163.00,49.831
1164.00,49.818
1165.00,49.818
1166.00,49.813
1167.00,49.803
1168.00,49.808
1169.00,49.795
1170.00,49.806
1171.00,49.785
1172.00,49.808
1173.00,49.793
1174.00,49.801
1175.00,49.787
1176.00,49.803
1177.00,49.796
1178.00,49.777
1179.00,49.809
1180.00,49.784
1181.00,49.805
1182.00,49.801
1183.00,49.792
1184.00,49.780
1185.00,49.808
1186.00,49.792
1187.00,49.797
1188.00,49.781
1189.00,49.779
1190.00,49.776
1191.00,49.771
1192.00,49.782
1193.00,49.773
1194.00,49.795
1195.00,49.766
1196.00,49.787
1197.00,49.775
1198.00,49.770
1199.00,49.770
1200.00,49.768
1201.00,49.779
1202.00,49.764
1203.00,49.769
1204.00,49.755
1205.00,49.782
1206.00,49.773
1207.00,49.780
1208.00,49.759
1209.00,49.753
1210.00,49.762
1211.00,49.750
1212.00,49.776
1213.00,49.743
1214.00,49.770
1215.00,49.761
1216.00,49.761
1217.00,49.773
1218.00,49.761
1219.00,49.772
1220.00,49.755
1221.00,49.768
1222.00,49.743
1223.00,49.774
1224.00,49.761
1225.00,49.752
1226.00,49.762
1227.00,49.746
1228.00,49.761
1229.00,49.753
1230.00,49.789
1231.00,49.778
1232.00,49.782
1233.00,49.780
1234.00,49.792
1235.00,49.788
1236.00,49.791
1237.00,49.794
1238.00,49.805
1239.00,49.805
1240.00,49.789
1241.00,49.798
1242.00,49.804
1243.00,49.816
1244.00,49.799
1245.00,49.834
1246.00,49.839
1247.00,49.821
1248.00,49.828
1249.00,49.827
1250.00,49.832
1251.00,49.836
1252.00,49.851
1253.00,49.840
1254.00,49.853
1255.00,49.857
1256.00,49.842
1257.00,49.826
1258.00,49.871
1259.00,49.859
1260.00,49.879
1261.00,49.870
1262.00,49.868
1263.00,49.857
1264.00,49.872
1265.00,49.880
1266.00,49.872
1267.00,49.874
1268.00,49.904
1269.00,49.896
1270.00,49.915
1271.00,49.914
1272.00,49.919
1273.00,49.912
1274.00,49.912
1275.00,49.920
1276.00,49.922
1277.00,49.920
1278.00,49.949
1279.00,49.944
1280.00,49.949
1281.00,49.958
1282.00,49.967
1283.00,49.949
1284.00,49.951
1285.00,49.940
1286.00,49.957
1287.00,49.940
1288.00,49.954
1289.00,49.960
1290.00,49.987
1291.00,49.986
1292.00,49.991
1293.00,49.989
1294.00,50.002
1295.00,50.017
1296.00,50.005
1297.00,50.022
1298.00,50.042
1299.00,50.029
1300.00,50.037
1301.00,50.040
1302.00,50.047
1303.00,50.075
1304.00,50.049
1305.00,50.076
1306.00,50.064
1307.00,50.054
1308.00,50.069
1309.00,50.067
1310.00,50.071
1311.00,50.073
1312.00,50.081
1313.00,50.069
1314.00,50.093
1315.00,50.102
1316.00,50.100
1317.00,50.108
1318.00,50.112
1319.00,50.144
1320.00,50.152
1321.00,50.288
1322.00,50.299
1323.00,50.282
1324.00,50.290
1325.00,50.257
1326.00,50.291
1327.00,50.308
1328.00,50.284
1329.00,50.280
1330.00,50.302
1331.00,50.295
1332.00,50.298
1333.00,50.300
1334.00,50.308
1335.00,50.339
1336.00,50.377
1337.00,50.362
1338.00,50.449
1339.00,50.486
1340.00,50.549
1341.00,50.621
1342.00,50.696
1343.00,50.790
1344.00,50.793
1345.00,50.853
1346.00,50.902
1347.00,50.908
1348.00,50.921
1349.00,50.950
1350.00,50.967
1351.00,50.991
1352.00,50.975
1353.00,51.002
1354.00,50.998
1355.00,50.974
1356.00,50.993
1357.00,51.051
1358.00,51.013
1359.00,51.058
1360.00,51.105
1361.00,50.970
1362.00,50.946
1363.00,51.129
1364.00,51.118
1365.00,51.045
1366.00,51.086
1367.00,50.998
1368.00,50.977
1369.00,51.038
1370.00,50.990
1371.00,50.944
1372.00,50.985
1373.00,51.012
1374.00,51.039
1375.00,51.008
1376.00,51.022
1377.00,51.046
1378.00,51.109
1379.00,51.010
1380.00,50.996
1381.00,50.932
1382.00,51.032
1383.00,50.975
1384.00,51.003
1385.00,51.057
1386.00,50.983
1387.00,50.940
1388.00,50.973
1389.00,51.073
1390.00,51.013
1391.00,50.952
1392.00,51.022
1393.00,51.090
1394.00,50.941
1395.00,50.943
1396.00,50.945
1397.00,50.988
1398.00,51.071
1399.00,50.970
1400.00,50.966
1401.00,50.955
1402.00,51.091
1403.00,50.919
1404.00,50.957
1405.00,51.024
1406.00,50.990
1407.00,51.060
1408.00,51.027
1409.00,51.028
1410.00,51.039
1411.00,51.050
1412.00,51.120
1413.00,51.012
1414.00,51.024
1415.00,51.088
1416.00,51.083
1417.00,51.119
1418.00,51.095
1419.00,51.079
1420.00,51.143
1421.00,51.184
1422.00,51.156
1423.00,51.156
1424.00,51.162
1425.00,51.182
1426.00,51.184
1427.00,51.194
1428.00,51.233
1429.00,51.238
1430.00,51.224
1431.00,51.233
1432.00,51.277
1433.00,51.299
1434.00,51.285
1435.00,51.345
1436.00,51.332
1437.00,51.337
1438.00,51.342
1439.00,51.384
1440.00,51.394
1441.00,51.383
1442.00,51.400
1443.00,51.434
1444.00,51.458
1445.00,51.441
1446.00,51.466
1447.00,51.500
1448.00,51.528
1449.00,51.531
1450.00,51.564
1451.00,51.541
1452.00,51.552
1453.00,51.584
1454.00,51.587
1455.00,51.599
1456.00,51.617
1457.00,51.615
1458.00,51.629
1459.00,51.662
1460.00,51.667
1461.00,51.682
1462.00,51.706
1463.00,51.716
1464.00,51.735
1465.00,51.745
1466.00,51.746
1467.00,51.771
1468.00,51.797
1469.00,51.800
1470.00,51.817
1471.00,51.826
1472.00,51.850
1473.00,51.857
1474.00,51.878
1475.00,51.890
1476.00,51.902
1477.00,51.893
1478.00,51.903
1479.00,51.934
1480.00,51.937
1481.00,51.931
1482.00,51.951
1483.00,51.969
1484.00,51.988
1485.00,51.984
1486.00,51.993
1487.00,52.014
1488.00,52.012
1489.00,52.029
1490.00,52.032
1491.00,52.038
1492.00,52.073
1493.00,52.070
1494.00,52.107
1495.00,52.108
1496.00,52.107
1497.00,52.129
1498.00,52.117
1499.00,52.141
1500.00,52.166
1501.00, 
1502.00, 
1503.00, 
1504.00, 
1505.00, 
1506.00, 
1507.00, 
1508.00, 
1509.00, 
1510.00, 
1511.00, 
1512.00, 
1513.00, 
1514.00, 
1515.00, 
1516.00, 
1517.00, 
1518.00, 
1519.00, 
1520.00, 
1521.00, 
1522.00, 
1523.00, 
1524.00, 
1525.00, 
1526.00, 
1527.00, 
1528.00, 
1529.00, 
1530.00, 
1531.00, 
1532.00, 
1533.00, 
1534.00, 
1535.00, 
1536.00, 
1537.00, 
1538.00, 
1539.00, 
1540.00, 
1541.00, 
1542.00, 
1543.00, 
1544.00, 
1545.00, 
1546.00, 
1547.00, 
1548.00, 
1549.00, 
1550.00, 
1551.00, 
1552.00, 
1553.00, 
1554.00, 
1555.00, 
1556.00, 
1557.00, 
1558.00, 
1559.00, 
1560.00, 
1561.00, 
1562.00, 
1563.00, 
1564.00, 
1565.00, 
1566.00, 
1567.00, 
1568.00, 
1569.00, 
1570.00, 
1571.00, 
1572.00, 
1573.00, 
1574.00, 
1575.00, 
1576.00, 
1577.00, 
1578.00, 
1579.00, 
1580.00, 
1581.00, 
1582.00, 
1583.00, 
1584.00, 
1585.00, 
1586.00, 
1587.00, 
1588.00, 
1589.00, 
1590.00, 
1591.00, 
1592.00, 
1593.00, 
1594.00, 
1595.00, 
1596.00, 
1597.00, 
1598.00, 
1599.00, 
1600.00, 
1601.00, 
1602.00, 
1603.00, 
1604.00, 
1605.00, 
1606.00, 
1607.00, 
1608.00, 
1609.00, 
1610.00, 
1611.00, 
1612.00, 
1613.00, 
1614.00, 
1615.00, 
1616.00, 
1617.00, 
1618.00, 
1619.00, 
1620.00, 
1621.00, 
1622.00, 
1623.00, 
1624.00, 
1625.00, 
1626.00, 
1627.00, 
1628.00, 
1629.00, 
1630.00, 
1631.00, 
1632.00, 
1633.00, 
1634.00, 
1635.00, 
1636.00, 
1637.00, 
1638.00, 
1639.00, 
1640.00, 
1641.00, 
1642.00, 
1643.00, 
1644.00, 
1645.00, 
1646.00, 
1647.00, 
1648.00, 
1649.00, 
1650.00, 
1651.00, 
1652.00, 
1653.00, 
1654.00, 
1655.00, 
1656.00, 
1657.00, 
1658.00, 
1659.00, 
1660.00, 
1661.00, 
1662.00, 
1663.00, 
1664.00, 
1665.00, 
1666.00, 
1667.00, 
1668.00, 
1669.00, 
1670.00, 
1671.00, 
1672.00, 
1673.00, 
1674.00, 
1675.00, 
1676.00, 
1677.00, 
1678.00, 
1679.00, 
1680.00, 
1681.00, 
1682.00, 
1683.00, 
1684.00, 
1685.00, 
1686.00, 
1687.00, 
1688.00, 
1689.00, 
1690.00, 
1691.00, 
1692.00, 
1693.00, 
1694.00, 
1695.00, 
1696.00, 
1697.00, 
1698.00, 
1699.00, 
1700.00, 
1701.00, 
1702.00, 
1703.00, 
1704.00, 
1705.00, 
1706.00, 
1707.00, 
1708.00, 
1709.00, 
1710.00, 
1711.00, 
1712.00, 
1713.00, 
1714.00, 
1715.00, 
1716.00, 
1717.00, 
1718.00, 
1719.00, 
1720.00, 
1721.00, 
1722.00, 
1723.00, 
1724.00, 
1725.00, 
1726.00, 
1727.00, 
1728.00, 
1729.00, 
1730.00, 
1731.00, 
1732.00, 
1733.00, 
1734.00, 
1735.00, 
1736.00, 
1737.00, 
1738.00, 
1739.00, 
1740.00, 
1741.00, 
1742.00, 
1743.00, 
1744.00, 
1745.00, 
1746.00, 
1747.00, 
1748.00, 
1749.00, 
1750.00, 
1751.00, 
1752.00, 
1753.00, 
1754.00, 
1755.00, 
1756.00, 
1757.00, 
1758.00, 
1759.00, 
1760.00, 
1761.00, 
1762.00, 
1763.00, 
1764.00, 
1765.00, 
1766.00, 
1767.00, 
1768.00, 
1769.00, 
1770.00, 
1771.00, 
1772.00, 
1773.00, 
1774.00, 
1775.00, 
1776.00, 
1777.00, 
1778.00, 
1779.00, 
1780.00, 
1781.00, 
1782.00, 
1783.00, 
1784.00, 
1785.00, 
1786.00, 
1787.00, 
1788.00, 
1789.00, 
1790.00, 
1791.00, 
1792.00, 
1793.00, 
1794.00, 
1795.00, 
1796.00, 
1797.00, 
1798.00, 
1799.00, 
1800.00, 
1801.00, 
1802.00, 
1803.00, 
1804.00, 
1805.00, 
1806.00, 
1807.00, 
1808.00, 
1809.00, 
1810.00, 
1811.00, 
1812.00, 
1813.00, 
1814.00, 
1815.00, 
1816.00, 
1817.00, 
1818.00, 
1819.00, 
1820.00, 
1821.00, 
1822.00, 
1823.00, 
1824.00, 
1825.00, 
1826.00, 
1827.00, 
1828.00, 
1829.00, 
1830.00, 
1831.00, 
1832.00, 
1833.00, 
1834.00, 
1835.00, 
1836.00, 
1837.00, 
1838.00, 
1839.00, 
1840.00, 
1841.00, 
1842.00, 
1843.00, 
1844.00, 
1845.00, 
1846.00, 
1847.00, 
1848.00, 
1849.00, 
1850.00, 
1851.00, 
1852.00, 
1853.00, 
1854.00, 
1855.00, 
1856.00, 
1857.00, 
1858.00, 
1859.00, 
1860.00, 
1861.00, 
1862.00, 
1863.00, 
1864.00, 
1865.00, 
1866.00, 
1867.00, 
1868.00, 
1869.00, 
1870.00, 
1871.00, 
1872.00, 
1873.00, 
1874.00, 
1875.00, 
1876.00, 
1877.00, 
1878.00, 
1879.00, 
1880.00, 
1881.00, 
1882.00, 
1883.00, 
1884.00, 
1885.00, 
1886.00, 
1887.00, 
1888.00, 
1889.00, 
1890.00, 
1891.00, 
1892.00, 
1893.00, 
1894.00, 
1895.00, 
1896.00, 
1897.00, 
1898.00, 
1899.00, 
1900.00, 
1901.00, 
1902.00, 
1903.00, 
1904.00, 
1905.00, 
1906.00, 
1907.00, 
1908.00, 
1909.00, 
1910.00, 
1911.00, 
1912.00, 
1913.00, 
1914.00, 
1915.00, 
1916.00, 
1917.00, 
1918.00, 
1919.00, 
1920.00, 
1921.00, 
1922.00, 
1923.00, 
1924.00, 
1925.00, 
1926.00, 
1927.00, 
1928.00, 
1929.00, 
1930.00, 
1931.00, 
1932.00, 
1933.00, 
1934.00, 
1935.00, 
1936.00, 
1937.00, 
1938.00, 
1939.00, 
1940.00, 
1941.00, 
1942.00, 
1943.00, 
1944.00, 
1945.00, 
1946.00, 
1947.00, 
1948.00, 
1949.00, 
1950.00, 
1951.00, 
1952.00, 
1953.00, 
1954.00, 
1955.00, 
1956.00, 
1957.00, 
1958.00, 
1959.00, 
1960.00, 
1961.00, 
1962.00, 
1963.00, 
1964.00, 
1965.00, 
1966.00, 
1967.00, 
1968.00, 
1969.00, 
1970.00, 
1971.00, 
1972.00, 
1973.00, 
1974.00, 
1975.00, 
1976.00, 
1977.00, 
1978.00, 
1979.00, 
1980.00, 
1981.00, 
1982.00, 
1983.00, 
1984.00, 
1985.00, 
1986.00, 
1987.00, 
1988.00, 
1989.00, 
1990.00, 
1991.00, 
1992.00, 
1993.00, 
1994.00, 
1995.00, 
1996.00, 
1997.00, 
1998.00, 
1999.00, 
2000.00, 
2001.00, 
2002.00, 
2003.00, 
2004.00, 
2005.00, 
2006.00, 
2007.00, 
2008.00, 
2009.00, 
2010.00, 
2011.00, 
2012.00, 
2013.00, 
2014.00, 
2015.00, 
2016.00, 
2017.00, 
2018.00, 
2019.00, 
2020.00, 
2021.00, 
2022.00, 
2023.00, 
2024.00, 
2025.00, 
2026.00, 
2027.00, 
2028.00, 
2029.00, 
2030.00, 
2031.00, 
2032.00, 
2033.00, 
2034.00, 
2035.00, 
2036.00, 
2037.00, 
2038.00, 
2039.00, 
2040.00, 
2041.00, 
2042.00, 
2043.00, 
2044.00, 
2045.00, 
2046.00, 
2047.00, 
2048.00, 
2049.00, 
2050.00, 
2051.00, 
2052.00, 
2053.00, 
2054.00, 
2055.00, 
2056.00, 
2057.00, 
2058.00, 
2059.00, 
2060.00, 
2061.00, 
2062.00, 
2063.00, 
2064.00, 
2065.00, 
2066.00, 
2067.00, 
2068.00, 
2069.00, 
2070.00, 
2071.00, 
2072.00, 
2073.00, 
2074.00, 
2075.00, 
2076.00, 
2077.00, 
2078.00, 
2079.00, 
2080.00, 
2081.00, 
2082.00, 
2083.00, 
2084.00, 
2085.00, 
2086.00, 
2087.00, 
2088.00, 
2089.00, 
2090.00, 
2091.00, 
2092.00, 
2093.00, 
2094.00, 
2095.00, 
2096.00, 
2097.00, 
2098.00, 
2099.00, 
2100.00, 
2101.00, 
2102.00, 
2103.00, 
2104.00, 
2105.00, 
2106.00, 
2107.00, 
2108.00, 
2109.00, 
2110.00, 
2111.00, 
2112.00, 
2113.00, 
2114.00, 
2115.00, 
2116.00, 
2117.00, 
2118.00, 
2119.00, 
2120.00, 
2121.00, 
2122.00, 
2123.00, 
2124.00, 
2125.00, 
2126.00, 
2127.00, 
2128.00, 
2129.00, 
2130.00, 
2131.00, 
2132.00, 
2133.00, 
2134.00, 
2135.00, 
2136.00, 
2137.00, 
2138.00, 
2139.00, 
2140.00, 
2141.00, 
2142.00, 
2143.00, 
2144.00, 
2145.00, 
2146.00, 
2147.00, 
2148.00, 
2149.00, 
2150.00, 
2151.00, 
2152.00, 
2153.00, 
2154.00, 
2155.00, 
2156.00, 
2157.00, 
2158.00, 
2159.00, 
2160.00, 
2161.00, 
2162.00, 
2163.00, 
2164.00, 
2165.00, 
2166.00, 
2167.00, 
2168.00, 
2169.00, 
2170.00, 
2171.00, 
2172.00, 
2173.00, 
2174.00, 
2175.00, 
2176.00, 
2177.00, 
2178.00, 
2179.00, 
2180.00, 
2181.00, 
2182.00, 
2183.00, 
2184.00, 
2185.00, 
2186.00, 
2187.00, 
2188.00, 
2189.00, 
2190.00, 
2191.00, 
2192.00, 
2193.00, 
2194.00, 
2195.00, 
2196.00, 
2197.00, 
2198.00, 
2199.00, 
2200.00, 
2201.00, 
2202.00, 
2203.00, 
2204.00, 
2205.00, 
2206.00, 
2207.00, 
2208.00, 
2209.00, 
2210.00, 
2211.00, 
2212.00, 
2213.00, 
2214.00, 
2215.00, 
2216.00, 
2217.00, 
2218.00, 
2219.00, 
2220.00, 
2221.00, 
2222.00, 
2223.00, 
2224.00, 
2225.00, 
2226.00, 
2227.00, 
2228.00, 
2229.00, 
2230.00, 
2231.00, 
2232.00, 
2233.00, 
2234.00, 
2235.00, 
2236.00, 
2237.00, 
2238.00, 
2239.00, 
2240.00, 
2241.00, 
2242.00, 
2243.00, 
2244.00, 
2245.00, 
2246.00, 
2247.00, 
2248.00, 
2249.00, 
2250.00, 
2251.00, 
2252.00, 
2253.00, 
2254.00, 
2255.00, 
2256.00, 
2257.00, 
2258.00, 
2259.00, 
2260.00, 
2261.00, 
2262.00, 
2263.00, 
2264.00, 
2265.00, 
2266.00, 
2267.00, 
2268.00, 
2269.00, 
2270.00, 
2271.00, 
2272.00, 
2273.00, 
2274.00, 
2275.00, 
2276.00, 
2277.00, 
2278.00, 
2279.00, 
2280.00, 
2281.00, 
2282.00, 
2283.00, 
2284.00, 
2285.00, 
2286.00, 
2287.00, 
2288.00, 
2289.00, 
2290.00, 
2291.00, 
2292.00, 
2293.00, 
2294.00, 
2295.00, 
2296.00, 
2297.00, 
2298.00, 
2299.00, 
2300.00, 
2301.00, 
2302.00, 
2303.00, 
2304.00, 
2305.00, 
2306.00, 
2307.00, 
2308.00, 
2309.00, 
2310.00, 
2311.00, 
2312.00, 
2313.00, 
2314.00, 
2315.00, 
2316.00, 
2317.00, 
2318.00, 
2319.00, 
2320.00, 
2321.00, 
2322.00, 
2323.00, 
2324.00, 
2325.00, 
2326.00, 
2327.00, 
2328.00, 
2329.00, 
2330.00, 
2331.00, 
2332.00, 
2333.00, 
2334.00, 
2335.00, 
2336.00, 
2337.00, 
2338.00, 
2339.00, 
2340.00, 
2341.00, 
2342.00, 
2343.00, 
2344.00, 
2345.00, 
2346.00, 
2347.00, 
2348.00, 
2349.00, 
2350.00, 
2351.00, 
2352.00, 
2353.00, 
2354.00, 
2355.00, 
2356.00, 
2357.00, 
2358.00, 
2359.00, 
2360.00, 
2361.00, 
2362.00, 
2363.00, 
2364.00, 
2365.00, 
2366.00, 
2367.00, 
2368.00, 
2369.00, 
2370.00, 
2371.00, 
2372.00, 
2373.00, 
2374.00, 
2375.00, 
2376.00, 
2377.00, 
2378.00, 
2379.00, 
2380.00, 
2381.00, 
2382.00, 
2383.00, 
2384.00, 
2385.00, 
2386.00, 
2387.00, 
2388.00, 
2389.00, 
2390.00, 
2391.00, 
2392.00, 
2393.00, 
2394.00, 
2395.00, 
2396.00, 
2397.00, 
2398.00, 
2399.00, 
2400.00, 
2401.00, 
2402.00, 
2403.00, 
2404.00, 
2405.00, 
2406.00, 
2407.00, 
2408.00, 
2409.00, 
2410.00, 
2411.00, 
2412.00, 
2413.00, 
2414.00, 
2415.00, 
2416.00, 
2417.00, 
2418.00, 
2419.00, 
2420.00, 
2421.00, 
2422.00, 
2423.00, 
2424.00, 
2425.00, 
2426.00, 
2427.00, 
2428.00, 
2429.00, 
2430.00, 
2431.00, 
2432.00, 
2433.00, 
2434.00, 
2435.00, 
2436.00, 
2437.00, 
2438.00, 
2439.00, 
2440.00, 
2441.00, 
2442.00, 
2443.00, 
2444.00, 
2445.00, 
2446.00, 
2447.00, 
2448.00, 
2449.00, 
2450.00, 
2451.00, 
2452.00, 
2453.00, 
2454.00, 
2455.00, 
2456.00, 
2457.00, 
2458.00, 
2459.00, 
2460.00, 
2461.00, 
2462.00, 
2463.00, 
2464.00, 
2465.00, 
2466.00, 
2467.00, 
2468.00, 
2469.00, 
2470.00, 
2471.00, 
2472.00, 
2473.00, 
2474.00, 
2475.00, 
2476.00, 
2477.00, 
2478.00, 
2479.00, 
2480.00, 
2481.00, 
2482.00, 
2483.00, 
2484.00, 
2485.00, 
2486.00, 
2487.00, 
2488.00, 
2489.00, 
2490.00, 
2491.00, 
2492.00, 
2493.00, 
2494.00, 
2495.00, 
2496.00, 
2497.00, 
2498.00, 
2499.00, 
2500.00, 
2501.00, 
2502.00, 
2503.00, 
2504.00, 
2505.00, 
2506.00, 
2507.00, 
2508.00, 
2509.00, 
2510.00, 
2511.00, 
2512.00, 
2513.00, 
2514.00, 
2515.00, 
2516.00, 
2517.00, 
2518.00, 
2519.00, 
2520.00, 
2521.00, 
2522.00, 
2523.00, 
2524.00, 
2525.00, 
2526.00, 
2527.00, 
2528.00, 
2529.00, 
2530.00, 
2531.00, 
2532.00, 
2533.00, 
2534.00, 
2535.00, 
2536.00, 
2537.00, 
2538.00, 
2539.00, 
2540.00, 
2541.00, 
2542.00, 
2543.00, 
2544.00, 
2545.00, 
2546.00, 
2547.00, 
2548.00, 
2549.00, 
2550.00, 
2551.00, 
2552.00, 
2553.00, 
2554.00, 
2555.00, 
2556.00, 
2557.00, 
2558.00, 
2559.00, 
2560.00, 
2561.00, 
2562.00, 
2563.00, 
2564.00, 
2565.00, 
2566.00, 
2567.00, 
2568.00, 
2569.00, 
2570.00, 
2571.00, 
2572.00, 
2573.00, 
2574.00, 
2575.00, 
2576.00, 
2577.00, 
2578.00, 
2579.00, 
2580.00, 
2581.00, 
2582.00, 
2583.00, 
2584.00, 
2585.00, 
2586.00, 
2587.00, 
2588.00, 
2589.00, 
2590.00, 
2591.00, 
2592.00, 
2593.00, 
2594.00, 
2595.00, 
2596.00, 
2597.00, 
2598.00, 
2599.00, 
2600.00, 
