"2cP3 - RawData"
"Wavelength nm.","T%"
200.00,0.005
201.00,0.003
202.00,0.002
203.00,0.004
204.00,0.004
205.00,0.002
206.00,0.004
207.00,0.001
208.00,0.006
209.00,0.003
210.00,0.001
211.00,0.001
212.00,0.002
213.00,0.001
214.00,0.000
215.00,0.001
216.00,-0.002
217.00,0.000
218.00,-0.002
219.00,0.000
220.00,0.001
221.00,0.000
222.00,0.002
223.00,-0.000
224.00,0.001
225.00,-0.002
226.00,0.003
227.00,0.001
228.00,0.003
229.00,0.001
230.00,-0.000
231.00,-0.000
232.00,0.001
233.00,0.001
234.00,0.002
235.00,0.001
236.00,0.001
237.00,0.001
238.00,0.000
239.00,0.003
240.00,0.002
241.00,0.001
242.00,-0.000
243.00,0.000
244.00,-0.001
245.00,-0.000
246.00,0.000
247.00,0.000
248.00,0.001
249.00,0.001
250.00,0.000
251.00,0.001
252.00,-0.000
253.00,-0.000
254.00,0.001
255.00,-0.000
256.00,0.001
257.00,-0.000
258.00,0.000
259.00,0.002
260.00,0.001
261.00,0.003
262.00,0.000
263.00,-0.002
264.00,0.001
265.00,-0.001
266.00,-0.001
267.00,-0.002
268.00,0.003
269.00,0.000
270.00,0.002
271.00,0.000
272.00,-0.000
273.00,0.001
274.00,-0.000
275.00,-0.000
276.00,0.000
277.00,-0.000
278.00,-0.000
279.00,-0.001
280.00,-0.001
281.00,-0.001
282.00,0.001
283.00,0.002
284.00,0.000
285.00,-0.001
286.00,0.002
287.00,0.000
288.00,0.001
289.00,0.002
290.00,-0.001
291.00,-0.000
292.00,-0.001
293.00,-0.001
294.00,-0.000
295.00,-0.000
296.00,0.001
297.00,0.001
298.00,0.001
299.00,0.001
300.00,0.003
301.00,0.003
302.00,0.005
303.00,0.010
304.00,0.015
305.00,0.021
306.00,0.037
307.00,0.052
308.00,0.085
309.00,0.133
310.00,0.181
311.00,0.247
312.00,0.336
313.00,0.463
314.00,0.613
315.00,0.796
316.00,1.013
317.00,1.290
318.00,1.586
319.00,1.964
320.00,2.385
321.00,2.849
322.00,3.388
323.00,4.007
324.00,4.619
325.00,5.287
326.00,5.973
327.00,6.776
328.00,7.559
329.00,8.376
330.00,9.229
331.00,10.103
332.00,10.988
333.00,11.911
334.00,12.748
335.00,13.708
336.00,14.630
337.00,15.554
338.00,16.424
339.00,17.242
340.00,18.105
341.00,18.919
342.00,19.695
343.00,20.504
344.00,21.255
345.00,21.926
346.00,22.581
347.00,23.252
348.00,23.836
349.00,24.474
350.00,24.922
351.00,25.502
352.00,25.983
353.00,26.487
354.00,26.885
355.00,27.275
356.00,27.591
357.00,28.124
358.00,28.436
359.00,28.787
360.00,29.118
361.00,29.238
362.00,29.553
363.00,29.801
364.00,30.058
365.00,30.252
366.00,30.505
367.00,30.609
368.00,30.717
369.00,30.836
370.00,30.994
371.00,31.074
372.00,31.137
373.00,31.174
374.00,31.240
375.00,31.208
376.00,31.172
377.00,31.172
378.00,31.130
379.00,31.181
380.00,31.163
381.00,31.155
382.00,31.231
383.00,31.273
384.00,31.326
385.00,31.433
386.00,31.490
387.00,31.604
388.00,31.687
389.00,31.774
390.00,31.854
391.00,31.855
392.00,31.957
393.00,31.986
394.00,32.058
395.00,32.079
396.00,32.093
397.00,32.129
398.00,32.185
399.00,32.184
400.00,32.255
401.00,32.304
402.00,32.313
403.00,32.297
404.00,32.321
405.00,32.347
406.00,32.343
407.00,32.302
408.00,32.329
409.00,32.260
410.00,32.229
411.00,32.169
412.00,32.213
413.00,32.186
414.00,32.166
415.00,32.215
416.00,32.247
417.00,32.247
418.00,32.287
419.00,32.345
420.00,32.389
421.00,32.429
422.00,32.450
423.00,32.470
424.00,32.439
425.00,32.542
426.00,32.619
427.00,32.578
428.00,32.658
429.00,32.693
430.00,32.755
431.00,32.781
432.00,32.783
433.00,32.879
434.00,32.894
435.00,32.954
436.00,32.988
437.00,33.098
438.00,33.139
439.00,33.179
440.00,33.260
441.00,33.305
442.00,33.381
443.00,33.418
444.00,33.508
445.00,33.544
446.00,33.623
447.00,33.759
448.00,33.823
449.00,33.905
450.00,33.959
451.00,34.088
452.00,34.143
453.00,34.239
454.00,34.317
455.00,34.390
456.00,34.502
457.00,34.606
458.00,34.683
459.00,34.766
460.00,34.846
461.00,34.957
462.00,35.069
463.00,35.188
464.00,35.259
465.00,35.359
466.00,35.503
467.00,35.613
468.00,35.675
469.00,35.784
470.00,35.809
471.00,35.911
472.00,35.971
473.00,36.017
474.00,36.127
475.00,36.196
476.00,36.235
477.00,36.373
478.00,36.423
479.00,36.569
480.00,36.673
481.00,36.743
482.00,36.963
483.00,36.933
484.00,37.101
485.00,37.311
486.00,37.419
487.00,37.454
488.00,37.581
489.00,37.749
490.00,37.881
491.00,38.015
492.00,38.200
493.00,38.242
494.00,38.173
495.00,38.304
496.00,38.398
497.00,38.499
498.00,38.645
499.00,38.766
500.00,38.790
501.00,38.912
502.00,39.025
503.00,39.074
504.00,39.155
505.00,39.235
506.00,39.284
507.00,39.479
508.00,39.629
509.00,39.626
510.00,39.702
511.00,39.768
512.00,39.783
513.00,40.026
514.00,40.159
515.00,40.252
516.00,40.324
517.00,40.414
518.00,40.546
519.00,40.605
520.00,40.657
521.00,40.707
522.00,40.737
523.00,40.914
524.00,40.889
525.00,40.910
526.00,41.008
527.00,41.052
528.00,41.217
529.00,41.283
530.00,41.455
531.00,41.555
532.00,41.564
533.00,41.662
534.00,41.747
535.00,41.811
536.00,41.886
537.00,41.911
538.00,42.014
539.00,42.043
540.00,42.084
541.00,42.116
542.00,42.182
543.00,42.279
544.00,42.355
545.00,42.350
546.00,42.462
547.00,42.540
548.00,42.561
549.00,42.644
550.00,42.765
551.00,42.763
552.00,42.835
553.00,42.912
554.00,42.984
555.00,43.008
556.00,43.072
557.00,43.145
558.00,43.181
559.00,43.230
560.00,43.318
561.00,43.368
562.00,43.386
563.00,43.443
564.00,43.485
565.00,43.512
566.00,43.545
567.00,43.602
568.00,43.553
569.00,43.599
570.00,43.621
571.00,43.700
572.00,43.707
573.00,43.713
574.00,43.819
575.00,43.787
576.00,43.830
577.00,43.905
578.00,43.938
579.00,44.019
580.00,44.094
581.00,44.168
582.00,44.254
583.00,44.317
584.00,44.408
585.00,44.419
586.00,44.442
587.00,44.556
588.00,44.525
589.00,44.571
590.00,44.658
591.00,44.663
592.00,44.619
593.00,44.690
594.00,44.740
595.00,44.762
596.00,44.822
597.00,44.931
598.00,45.020
599.00,44.999
600.00,45.035
601.00,45.086
602.00,45.079
603.00,45.114
604.00,45.114
605.00,45.229
606.00,45.249
607.00,45.282
608.00,45.377
609.00,45.397
610.00,45.370
611.00,45.401
612.00,45.363
613.00,45.385
614.00,45.470
615.00,45.504
616.00,45.595
617.00,45.612
618.00,45.624
619.00,45.668
620.00,45.646
621.00,45.727
622.00,45.700
623.00,45.840
624.00,45.909
625.00,45.891
626.00,45.887
627.00,45.883
628.00,45.919
629.00,45.986
630.00,46.046
631.00,46.059
632.00,46.107
633.00,46.212
634.00,46.216
635.00,46.300
636.00,46.382
637.00,46.354
638.00,46.437
639.00,46.528
640.00,46.464
641.00,46.489
642.00,46.547
643.00,46.542
644.00,46.681
645.00,46.739
646.00,46.776
647.00,46.847
648.00,46.720
649.00,46.930
650.00,46.976
651.00,46.965
652.00,47.027
653.00,47.131
654.00,47.188
655.00,47.227
656.00,47.203
657.00,47.205
658.00,47.351
659.00,47.459
660.00,47.467
661.00,47.361
662.00,47.645
663.00,47.524
664.00,47.667
665.00,47.715
666.00,47.743
667.00,47.759
668.00,47.702
669.00,47.940
670.00,47.945
671.00,47.937
672.00,47.801
673.00,48.067
674.00,48.124
675.00,48.081
676.00,48.110
677.00,48.274
678.00,48.244
679.00,48.298
680.00,48.246
681.00,48.346
682.00,48.429
683.00,48.468
684.00,48.502
685.00,48.558
686.00,48.552
687.00,48.635
688.00,48.661
689.00,48.596
690.00,48.695
691.00,48.790
692.00,48.724
693.00,48.696
694.00,48.733
695.00,48.815
696.00,48.801
697.00,48.796
698.00,48.933
699.00,49.162
700.00,49.091
701.00,49.112
702.00,49.186
703.00,49.253
704.00,49.237
705.00,49.182
706.00,49.311
707.00,49.505
708.00,49.350
709.00,49.384
710.00,49.583
711.00,49.312
712.00,49.355
713.00,49.530
714.00,49.394
715.00,49.376
716.00,49.570
717.00,49.534
718.00,49.633
719.00,49.645
720.00,49.607
721.00,53.974
722.00,53.991
723.00,53.992
724.00,53.887
725.00,54.016
726.00,53.932
727.00,53.818
728.00,53.937
729.00,53.825
730.00,53.886
731.00,53.824
732.00,53.850
733.00,53.868
734.00,53.835
735.00,53.825
736.00,53.801
737.00,53.794
738.00,53.833
739.00,53.802
740.00,53.700
741.00,53.727
742.00,53.798
743.00,53.637
744.00,53.697
745.00,53.679
746.00,53.672
747.00,53.645
748.00,53.587
749.00,53.597
750.00,53.505
751.00,53.536
752.00,53.519
753.00,53.453
754.00,53.436
755.00,53.386
756.00,53.439
757.00,53.396
758.00,53.357
759.00,53.354
760.00,53.297
761.00,53.350
762.00,53.329
763.00,53.262
764.00,53.266
765.00,53.279
766.00,53.285
767.00,53.312
768.00,53.253
769.00,53.246
770.00,53.231
771.00,53.228
772.00,53.227
773.00,53.224
774.00,53.201
775.00,53.157
776.00,53.190
777.00,53.226
778.00,53.071
779.00,53.097
780.00,53.125
781.00,53.048
782.00,53.048
783.00,53.054
784.00,53.048
785.00,52.940
786.00,53.037
787.00,53.047
788.00,52.942
789.00,52.985
790.00,52.859
791.00,52.926
792.00,52.872
793.00,52.843
794.00,52.750
795.00,52.728
796.00,52.743
797.00,52.673
798.00,52.648
799.00,52.626
800.00,52.639
801.00,52.659
802.00,52.472
803.00,52.547
804.00,52.503
805.00,52.488
806.00,52.496
807.00,52.454
808.00,52.406
809.00,52.435
810.00,52.375
811.00,52.363
812.00,52.388
813.00,52.366
814.00,52.296
815.00,52.298
816.00,52.337
817.00,52.299
818.00,52.167
819.00,52.161
820.00,52.184
821.00,52.135
822.00,52.090
823.00,52.073
824.00,52.032
825.00,52.016
826.00,52.127
827.00,52.132
828.00,51.918
829.00,52.027
830.00,51.990
831.00,54.526
832.00,54.663
833.00,54.490
834.00,54.491
835.00,54.435
836.00,54.460
837.00,54.384
838.00,54.393
839.00,54.350
840.00,54.317
841.00,54.300
842.00,54.259
843.00,54.225
844.00,54.220
845.00,54.174
846.00,54.181
847.00,54.156
848.00,54.109
849.00,54.085
850.00,54.050
851.00,54.002
852.00,53.984
853.00,53.947
854.00,53.921
855.00,53.845
856.00,53.848
857.00,53.790
858.00,53.788
859.00,53.760
860.00,53.753
861.00,53.686
862.00,53.681
863.00,53.681
864.00,53.623
865.00,53.676
866.00,53.651
867.00,53.620
868.00,53.600
869.00,53.588
870.00,53.556
871.00,53.545
872.00,53.525
873.00,53.558
874.00,53.501
875.00,53.494
876.00,53.495
877.00,53.476
878.00,53.473
879.00,53.423
880.00,53.417
881.00,53.398
882.00,53.406
883.00,53.355
884.00,53.304
885.00,53.296
886.00,53.265
887.00,53.238
888.00,53.239
889.00,53.218
890.00,53.227
891.00,53.131
892.00,53.142
893.00,53.108
894.00,53.089
895.00,53.071
896.00,53.046
897.00,53.045
898.00,53.023
899.00,52.990
900.00,52.990
901.00,53.019
902.00,53.054
903.00,52.939
904.00,52.945
905.00,52.903
906.00,52.918
907.00,52.806
908.00,52.817
909.00,52.814
910.00,52.776
911.00,52.795
912.00,52.782
913.00,52.719
914.00,52.703
915.00,52.696
916.00,52.684
917.00,52.643
918.00,52.645
919.00,52.608
920.00,52.587
921.00,52.553
922.00,52.540
923.00,52.503
924.00,52.508
925.00,52.505
926.00,52.477
927.00,52.463
928.00,52.428
929.00,52.412
930.00,52.391
931.00,52.375
932.00,52.322
933.00,52.338
934.00,52.291
935.00,52.281
936.00,52.271
937.00,52.232
938.00,52.220
939.00,52.212
940.00,52.196
941.00,52.197
942.00,52.147
943.00,52.144
944.00,52.219
945.00,52.100
946.00,52.090
947.00,52.047
948.00,52.010
949.00,51.988
950.00,51.996
951.00,51.976
952.00,51.941
953.00,51.933
954.00,51.879
955.00,51.826
956.00,51.872
957.00,51.808
958.00,51.823
959.00,51.764
960.00,51.755
961.00,51.733
962.00,51.743
963.00,51.690
964.00,51.707
965.00,51.683
966.00,51.665
967.00,51.665
968.00,51.629
969.00,51.665
970.00,51.639
971.00,51.654
972.00,51.617
973.00,51.646
974.00,51.672
975.00,51.621
976.00,51.651
977.00,51.628
978.00,51.666
979.00,51.607
980.00,51.637
981.00,51.640
982.00,51.618
983.00,51.623
984.00,51.600
985.00,51.622
986.00,51.578
987.00,51.587
988.00,51.567
989.00,51.548
990.00,51.542
991.00,51.524
992.00,51.551
993.00,51.501
994.00,51.480
995.00,51.492
996.00,51.461
997.00,51.463
998.00,51.435
999.00,51.441
1000.00,51.395
1001.00,51.378
1002.00,51.411
1003.00,51.404
1004.00,51.346
1005.00,51.344
1006.00,51.370
1007.00,51.322
1008.00,51.318
1009.00,51.295
1010.00,51.285
1011.00,51.282
1012.00,51.239
1013.00,51.253
1014.00,51.201
1015.00,51.229
1016.00,51.191
1017.00,51.180
1018.00,51.176
1019.00,51.156
1020.00,51.129
1021.00,51.113
1022.00,51.109
1023.00,51.052
1024.00,51.056
1025.00,51.041
1026.00,51.034
1027.00,51.006
1028.00,50.992
1029.00,50.985
1030.00,50.966
1031.00,50.952
1032.00,50.917
1033.00,50.925
1034.00,50.889
1035.00,50.854
1036.00,50.839
1037.00,50.816
1038.00,50.796
1039.00,50.774
1040.00,50.780
1041.00,50.738
1042.00,50.729
1043.00,50.702
1044.00,50.747
1045.00,50.716
1046.00,50.710
1047.00,50.719
1048.00,50.735
1049.00,50.747
1050.00,50.743
1051.00,50.786
1052.00,50.790
1053.00,50.791
1054.00,50.786
1055.00,50.803
1056.00,50.801
1057.00,50.805
1058.00,50.797
1059.00,50.793
1060.00,50.787
1061.00,50.783
1062.00,50.765
1063.00,50.786
1064.00,50.760
1065.00,50.760
1066.00,50.738
1067.00,50.722
1068.00,50.734
1069.00,50.705
1070.00,50.691
1071.00,50.672
1072.00,50.695
1073.00,50.670
1074.00,50.678
1075.00,50.659
1076.00,50.651
1077.00,50.641
1078.00,50.622
1079.00,50.620
1080.00,50.615
1081.00,50.611
1082.00,50.606
1083.00,50.590
1084.00,50.590
1085.00,50.575
1086.00,50.571
1087.00,50.558
1088.00,50.535
1089.00,50.523
1090.00,50.519
1091.00,50.512
1092.00,50.503
1093.00,50.478
1094.00,50.465
1095.00,50.459
1096.00,50.468
1097.00,50.437
1098.00,50.442
1099.00,50.418
1100.00,50.421
1101.00,50.406
1102.00,50.406
1103.00,50.394
1104.00,50.385
1105.00,50.373
1106.00,50.358
1107.00,50.351
1108.00,50.345
1109.00,50.336
1110.00,50.344
1111.00,50.330
1112.00,50.328
1113.00,50.314
1114.00,50.314
1115.00,50.316
1116.00,50.309
1117.00,50.281
1118.00,50.277
1119.00,50.261
1120.00,50.256
1121.00,50.249
1122.00,50.234
1123.00,50.206
1124.00,50.220
1125.00,50.200
1126.00,50.205
1127.00,50.197
1128.00,50.193
1129.00,50.174
1130.00,50.171
1131.00,50.175
1132.00,50.175
1133.00,50.170
1134.00,50.147
1135.00,50.123
1136.00,50.150
1137.00,50.123
1138.00,50.126
1139.00,50.117
1140.00,50.117
1141.00,50.093
1142.00,50.104
1143.00,50.113
1144.00,50.086
1145.00,50.096
1146.00,50.088
1147.00,50.069
1148.00,50.064
1149.00,50.071
1150.00,50.077
1151.00,50.069
1152.00,50.060
1153.00,50.049
1154.00,50.044
1155.00,50.039
1156.00,50.022
1157.00,50.035
1158.00,50.023
1159.00,50.026
1160.00,50.026
1161.00,50.045
1162.00,50.033
1163.00,50.025
1164.00,50.022
1165.00,50.012
1166.00,50.007
1167.00,50.006
1168.00,50.018
1169.00,50.002
1170.00,50.005
1171.00,49.985
1172.00,50.008
1173.00,50.019
1174.00,49.993
1175.00,49.985
1176.00,49.989
1177.00,49.981
1178.00,49.988
1179.00,50.005
1180.00,49.999
1181.00,50.005
1182.00,50.001
1183.00,49.982
1184.00,49.966
1185.00,49.993
1186.00,49.972
1187.00,49.983
1188.00,49.959
1189.00,49.964
1190.00,49.964
1191.00,49.954
1192.00,49.982
1193.00,49.958
1194.00,49.974
1195.00,49.941
1196.00,49.961
1197.00,49.955
1198.00,49.947
1199.00,49.939
1200.00,49.940
1201.00,49.946
1202.00,49.927
1203.00,49.946
1204.00,49.919
1205.00,49.944
1206.00,49.933
1207.00,49.929
1208.00,49.926
1209.00,49.919
1210.00,49.920
1211.00,49.923
1212.00,49.950
1213.00,49.924
1214.00,49.930
1215.00,49.912
1216.00,49.915
1217.00,49.923
1218.00,49.908
1219.00,49.925
1220.00,49.914
1221.00,49.924
1222.00,49.905
1223.00,49.926
1224.00,49.926
1225.00,49.911
1226.00,49.913
1227.00,49.901
1228.00,49.903
1229.00,49.910
1230.00,49.942
1231.00,49.937
1232.00,49.946
1233.00,49.947
1234.00,49.956
1235.00,49.941
1236.00,49.942
1237.00,49.938
1238.00,49.938
1239.00,49.954
1240.00,49.932
1241.00,49.950
1242.00,49.944
1243.00,49.957
1244.00,49.940
1245.00,49.974
1246.00,49.978
1247.00,49.967
1248.00,49.959
1249.00,49.967
1250.00,49.977
1251.00,49.969
1252.00,49.982
1253.00,49.977
1254.00,49.994
1255.00,49.982
1256.00,49.965
1257.00,49.947
1258.00,49.996
1259.00,49.985
1260.00,50.010
1261.00,50.009
1262.00,50.002
1263.00,50.001
1264.00,50.018
1265.00,50.010
1266.00,50.003
1267.00,50.009
1268.00,50.025
1269.00,50.023
1270.00,50.026
1271.00,50.032
1272.00,50.047
1273.00,50.033
1274.00,50.043
1275.00,50.052
1276.00,50.049
1277.00,50.054
1278.00,50.081
1279.00,50.068
1280.00,50.067
1281.00,50.083
1282.00,50.098
1283.00,50.095
1284.00,50.092
1285.00,50.076
1286.00,50.096
1287.00,50.068
1288.00,50.080
1289.00,50.083
1290.00,50.109
1291.00,50.104
1292.00,50.102
1293.00,50.116
1294.00,50.126
1295.00,50.131
1296.00,50.142
1297.00,50.142
1298.00,50.140
1299.00,50.126
1300.00,50.140
1301.00,50.132
1302.00,50.157
1303.00,50.171
1304.00,50.151
1305.00,50.188
1306.00,50.184
1307.00,50.186
1308.00,50.185
1309.00,50.189
1310.00,50.205
1311.00,50.202
1312.00,50.206
1313.00,50.198
1314.00,50.216
1315.00,50.221
1316.00,50.229
1317.00,50.235
1318.00,50.244
1319.00,50.249
1320.00,50.265
1321.00,50.424
1322.00,50.437
1323.00,50.426
1324.00,50.404
1325.00,50.380
1326.00,50.411
1327.00,50.419
1328.00,50.386
1329.00,50.382
1330.00,50.397
1331.00,50.375
1332.00,50.383
1333.00,50.402
1334.00,50.410
1335.00,50.426
1336.00,50.455
1337.00,50.513
1338.00,50.582
1339.00,50.615
1340.00,50.680
1341.00,50.739
1342.00,50.802
1343.00,50.871
1344.00,50.894
1345.00,50.957
1346.00,50.996
1347.00,51.001
1348.00,50.997
1349.00,51.044
1350.00,51.056
1351.00,51.075
1352.00,51.092
1353.00,51.034
1354.00,51.090
1355.00,51.044
1356.00,51.098
1357.00,51.120
1358.00,51.143
1359.00,51.155
1360.00,51.190
1361.00,51.098
1362.00,51.100
1363.00,51.156
1364.00,51.140
1365.00,51.120
1366.00,51.144
1367.00,51.065
1368.00,51.071
1369.00,51.117
1370.00,51.069
1371.00,51.063
1372.00,51.057
1373.00,51.094
1374.00,51.121
1375.00,51.075
1376.00,51.087
1377.00,51.101
1378.00,51.292
1379.00,51.030
1380.00,51.110
1381.00,51.133
1382.00,51.069
1383.00,51.129
1384.00,51.048
1385.00,51.052
1386.00,51.087
1387.00,51.004
1388.00,51.040
1389.00,51.075
1390.00,51.129
1391.00,51.019
1392.00,51.105
1393.00,51.200
1394.00,51.051
1395.00,51.060
1396.00,51.050
1397.00,51.093
1398.00,51.188
1399.00,51.042
1400.00,51.013
1401.00,51.085
1402.00,51.158
1403.00,51.033
1404.00,51.067
1405.00,51.115
1406.00,51.088
1407.00,51.138
1408.00,51.158
1409.00,51.133
1410.00,51.146
1411.00,51.136
1412.00,51.214
1413.00,51.127
1414.00,51.107
1415.00,51.188
1416.00,51.188
1417.00,51.218
1418.00,51.175
1419.00,51.183
1420.00,51.235
1421.00,51.267
1422.00,51.243
1423.00,51.244
1424.00,51.246
1425.00,51.263
1426.00,51.273
1427.00,51.299
1428.00,51.326
1429.00,51.339
1430.00,51.320
1431.00,51.328
1432.00,51.377
1433.00,51.389
1434.00,51.380
1435.00,51.422
1436.00,51.416
1437.00,51.422
1438.00,51.429
1439.00,51.467
1440.00,51.483
1441.00,51.480
1442.00,51.500
1443.00,51.535
1444.00,51.580
1445.00,51.526
1446.00,51.534
1447.00,51.580
1448.00,51.617
1449.00,51.611
1450.00,51.600
1451.00,51.631
1452.00,51.626
1453.00,51.657
1454.00,51.665
1455.00,51.693
1456.00,51.706
1457.00,51.706
1458.00,51.711
1459.00,51.740
1460.00,51.759
1461.00,51.745
1462.00,51.799
1463.00,51.782
1464.00,51.820
1465.00,51.829
1466.00,51.830
1467.00,51.849
1468.00,51.893
1469.00,51.881
1470.00,51.891
1471.00,51.908
1472.00,51.916
1473.00,51.951
1474.00,51.966
1475.00,51.996
1476.00,52.010
1477.00,51.984
1478.00,52.011
1479.00,52.015
1480.00,52.011
1481.00,52.027
1482.00,52.045
1483.00,52.057
1484.00,52.074
1485.00,52.081
1486.00,52.104
1487.00,52.117
1488.00,52.102
1489.00,52.132
1490.00,52.126
1491.00,52.147
1492.00,52.180
1493.00,52.155
1494.00,52.188
1495.00,52.198
1496.00,52.186
1497.00,52.212
1498.00,52.198
1499.00,52.216
1500.00,52.235
1501.00, 
1502.00, 
1503.00, 
1504.00, 
1505.00, 
1506.00, 
1507.00, 
1508.00, 
1509.00, 
1510.00, 
1511.00, 
1512.00, 
1513.00, 
1514.00, 
1515.00, 
1516.00, 
1517.00, 
1518.00, 
1519.00, 
1520.00, 
1521.00, 
1522.00, 
1523.00, 
1524.00, 
1525.00, 
1526.00, 
1527.00, 
1528.00, 
1529.00, 
1530.00, 
1531.00, 
1532.00, 
1533.00, 
1534.00, 
1535.00, 
1536.00, 
1537.00, 
1538.00, 
1539.00, 
1540.00, 
1541.00, 
1542.00, 
1543.00, 
1544.00, 
1545.00, 
1546.00, 
1547.00, 
1548.00, 
1549.00, 
1550.00, 
1551.00, 
1552.00, 
1553.00, 
1554.00, 
1555.00, 
1556.00, 
1557.00, 
1558.00, 
1559.00, 
1560.00, 
1561.00, 
1562.00, 
1563.00, 
1564.00, 
1565.00, 
1566.00, 
1567.00, 
1568.00, 
1569.00, 
1570.00, 
1571.00, 
1572.00, 
1573.00, 
1574.00, 
1575.00, 
1576.00, 
1577.00, 
1578.00, 
1579.00, 
1580.00, 
1581.00, 
1582.00, 
1583.00, 
1584.00, 
1585.00, 
1586.00, 
1587.00, 
1588.00, 
1589.00, 
1590.00, 
1591.00, 
1592.00, 
1593.00, 
1594.00, 
1595.00, 
1596.00, 
1597.00, 
1598.00, 
1599.00, 
1600.00, 
1601.00, 
1602.00, 
1603.00, 
1604.00, 
1605.00, 
1606.00, 
1607.00, 
1608.00, 
1609.00, 
1610.00, 
1611.00, 
1612.00, 
1613.00, 
1614.00, 
1615.00, 
1616.00, 
1617.00, 
1618.00, 
1619.00, 
1620.00, 
1621.00, 
1622.00, 
1623.00, 
1624.00, 
1625.00, 
1626.00, 
1627.00, 
1628.00, 
1629.00, 
1630.00, 
1631.00, 
1632.00, 
1633.00, 
1634.00, 
1635.00, 
1636.00, 
1637.00, 
1638.00, 
1639.00, 
1640.00, 
1641.00, 
1642.00, 
1643.00, 
1644.00, 
1645.00, 
1646.00, 
1647.00, 
1648.00, 
1649.00, 
1650.00, 
1651.00, 
1652.00, 
1653.00, 
1654.00, 
1655.00, 
1656.00, 
1657.00, 
1658.00, 
1659.00, 
1660.00, 
1661.00, 
1662.00, 
1663.00, 
1664.00, 
1665.00, 
1666.00, 
1667.00, 
1668.00, 
1669.00, 
1670.00, 
1671.00, 
1672.00, 
1673.00, 
1674.00, 
1675.00, 
1676.00, 
1677.00, 
1678.00, 
1679.00, 
1680.00, 
1681.00, 
1682.00, 
1683.00, 
1684.00, 
1685.00, 
1686.00, 
1687.00, 
1688.00, 
1689.00, 
1690.00, 
1691.00, 
1692.00, 
1693.00, 
1694.00, 
1695.00, 
1696.00, 
1697.00, 
1698.00, 
1699.00, 
1700.00, 
1701.00, 
1702.00, 
1703.00, 
1704.00, 
1705.00, 
1706.00, 
1707.00, 
1708.00, 
1709.00, 
1710.00, 
1711.00, 
1712.00, 
1713.00, 
1714.00, 
1715.00, 
1716.00, 
1717.00, 
1718.00, 
1719.00, 
1720.00, 
1721.00, 
1722.00, 
1723.00, 
1724.00, 
1725.00, 
1726.00, 
1727.00, 
1728.00, 
1729.00, 
1730.00, 
1731.00, 
1732.00, 
1733.00, 
1734.00, 
1735.00, 
1736.00, 
1737.00, 
1738.00, 
1739.00, 
1740.00, 
1741.00, 
1742.00, 
1743.00, 
1744.00, 
1745.00, 
1746.00, 
1747.00, 
1748.00, 
1749.00, 
1750.00, 
1751.00, 
1752.00, 
1753.00, 
1754.00, 
1755.00, 
1756.00, 
1757.00, 
1758.00, 
1759.00, 
1760.00, 
1761.00, 
1762.00, 
1763.00, 
1764.00, 
1765.00, 
1766.00, 
1767.00, 
1768.00, 
1769.00, 
1770.00, 
1771.00, 
1772.00, 
1773.00, 
1774.00, 
1775.00, 
1776.00, 
1777.00, 
1778.00, 
1779.00, 
1780.00, 
1781.00, 
1782.00, 
1783.00, 
1784.00, 
1785.00, 
1786.00, 
1787.00, 
1788.00, 
1789.00, 
1790.00, 
1791.00, 
1792.00, 
1793.00, 
1794.00, 
1795.00, 
1796.00, 
1797.00, 
1798.00, 
1799.00, 
1800.00, 
1801.00, 
1802.00, 
1803.00, 
1804.00, 
1805.00, 
1806.00, 
1807.00, 
1808.00, 
1809.00, 
1810.00, 
1811.00, 
1812.00, 
1813.00, 
1814.00, 
1815.00, 
1816.00, 
1817.00, 
1818.00, 
1819.00, 
1820.00, 
1821.00, 
1822.00, 
1823.00, 
1824.00, 
1825.00, 
1826.00, 
1827.00, 
1828.00, 
1829.00, 
1830.00, 
1831.00, 
1832.00, 
1833.00, 
1834.00, 
1835.00, 
1836.00, 
1837.00, 
1838.00, 
1839.00, 
1840.00, 
1841.00, 
1842.00, 
1843.00, 
1844.00, 
1845.00, 
1846.00, 
1847.00, 
1848.00, 
1849.00, 
1850.00, 
1851.00, 
1852.00, 
1853.00, 
1854.00, 
1855.00, 
1856.00, 
1857.00, 
1858.00, 
1859.00, 
1860.00, 
1861.00, 
1862.00, 
1863.00, 
1864.00, 
1865.00, 
1866.00, 
1867.00, 
1868.00, 
1869.00, 
1870.00, 
1871.00, 
1872.00, 
1873.00, 
1874.00, 
1875.00, 
1876.00, 
1877.00, 
1878.00, 
1879.00, 
1880.00, 
1881.00, 
1882.00, 
1883.00, 
1884.00, 
1885.00, 
1886.00, 
1887.00, 
1888.00, 
1889.00, 
1890.00, 
1891.00, 
1892.00, 
1893.00, 
1894.00, 
1895.00, 
1896.00, 
1897.00, 
1898.00, 
1899.00, 
1900.00, 
1901.00, 
1902.00, 
1903.00, 
1904.00, 
1905.00, 
1906.00, 
1907.00, 
1908.00, 
1909.00, 
1910.00, 
1911.00, 
1912.00, 
1913.00, 
1914.00, 
1915.00, 
1916.00, 
1917.00, 
1918.00, 
1919.00, 
1920.00, 
1921.00, 
1922.00, 
1923.00, 
1924.00, 
1925.00, 
1926.00, 
1927.00, 
1928.00, 
1929.00, 
1930.00, 
1931.00, 
1932.00, 
1933.00, 
1934.00, 
1935.00, 
1936.00, 
1937.00, 
1938.00, 
1939.00, 
1940.00, 
1941.00, 
1942.00, 
1943.00, 
1944.00, 
1945.00, 
1946.00, 
1947.00, 
1948.00, 
1949.00, 
1950.00, 
1951.00, 
1952.00, 
1953.00, 
1954.00, 
1955.00, 
1956.00, 
1957.00, 
1958.00, 
1959.00, 
1960.00, 
1961.00, 
1962.00, 
1963.00, 
1964.00, 
1965.00, 
1966.00, 
1967.00, 
1968.00, 
1969.00, 
1970.00, 
1971.00, 
1972.00, 
1973.00, 
1974.00, 
1975.00, 
1976.00, 
1977.00, 
1978.00, 
1979.00, 
1980.00, 
1981.00, 
1982.00, 
1983.00, 
1984.00, 
1985.00, 
1986.00, 
1987.00, 
1988.00, 
1989.00, 
1990.00, 
1991.00, 
1992.00, 
1993.00, 
1994.00, 
1995.00, 
1996.00, 
1997.00, 
1998.00, 
1999.00, 
2000.00, 
2001.00, 
2002.00, 
2003.00, 
2004.00, 
2005.00, 
2006.00, 
2007.00, 
2008.00, 
2009.00, 
2010.00, 
2011.00, 
2012.00, 
2013.00, 
2014.00, 
2015.00, 
2016.00, 
2017.00, 
2018.00, 
2019.00, 
2020.00, 
2021.00, 
2022.00, 
2023.00, 
2024.00, 
2025.00, 
2026.00, 
2027.00, 
2028.00, 
2029.00, 
2030.00, 
2031.00, 
2032.00, 
2033.00, 
2034.00, 
2035.00, 
2036.00, 
2037.00, 
2038.00, 
2039.00, 
2040.00, 
2041.00, 
2042.00, 
2043.00, 
2044.00, 
2045.00, 
2046.00, 
2047.00, 
2048.00, 
2049.00, 
2050.00, 
2051.00, 
2052.00, 
2053.00, 
2054.00, 
2055.00, 
2056.00, 
2057.00, 
2058.00, 
2059.00, 
2060.00, 
2061.00, 
2062.00, 
2063.00, 
2064.00, 
2065.00, 
2066.00, 
2067.00, 
2068.00, 
2069.00, 
2070.00, 
2071.00, 
2072.00, 
2073.00, 
2074.00, 
2075.00, 
2076.00, 
2077.00, 
2078.00, 
2079.00, 
2080.00, 
2081.00, 
2082.00, 
2083.00, 
2084.00, 
2085.00, 
2086.00, 
2087.00, 
2088.00, 
2089.00, 
2090.00, 
2091.00, 
2092.00, 
2093.00, 
2094.00, 
2095.00, 
2096.00, 
2097.00, 
2098.00, 
2099.00, 
2100.00, 
2101.00, 
2102.00, 
2103.00, 
2104.00, 
2105.00, 
2106.00, 
2107.00, 
2108.00, 
2109.00, 
2110.00, 
2111.00, 
2112.00, 
2113.00, 
2114.00, 
2115.00, 
2116.00, 
2117.00, 
2118.00, 
2119.00, 
2120.00, 
2121.00, 
2122.00, 
2123.00, 
2124.00, 
2125.00, 
2126.00, 
2127.00, 
2128.00, 
2129.00, 
2130.00, 
2131.00, 
2132.00, 
2133.00, 
2134.00, 
2135.00, 
2136.00, 
2137.00, 
2138.00, 
2139.00, 
2140.00, 
2141.00, 
2142.00, 
2143.00, 
2144.00, 
2145.00, 
2146.00, 
2147.00, 
2148.00, 
2149.00, 
2150.00, 
2151.00, 
2152.00, 
2153.00, 
2154.00, 
2155.00, 
2156.00, 
2157.00, 
2158.00, 
2159.00, 
2160.00, 
2161.00, 
2162.00, 
2163.00, 
2164.00, 
2165.00, 
2166.00, 
2167.00, 
2168.00, 
2169.00, 
2170.00, 
2171.00, 
2172.00, 
2173.00, 
2174.00, 
2175.00, 
2176.00, 
2177.00, 
2178.00, 
2179.00, 
2180.00, 
2181.00, 
2182.00, 
2183.00, 
2184.00, 
2185.00, 
2186.00, 
2187.00, 
2188.00, 
2189.00, 
2190.00, 
2191.00, 
2192.00, 
2193.00, 
2194.00, 
2195.00, 
2196.00, 
2197.00, 
2198.00, 
2199.00, 
2200.00, 
2201.00, 
2202.00, 
2203.00, 
2204.00, 
2205.00, 
2206.00, 
2207.00, 
2208.00, 
2209.00, 
2210.00, 
2211.00, 
2212.00, 
2213.00, 
2214.00, 
2215.00, 
2216.00, 
2217.00, 
2218.00, 
2219.00, 
2220.00, 
2221.00, 
2222.00, 
2223.00, 
2224.00, 
2225.00, 
2226.00, 
2227.00, 
2228.00, 
2229.00, 
2230.00, 
2231.00, 
2232.00, 
2233.00, 
2234.00, 
2235.00, 
2236.00, 
2237.00, 
2238.00, 
2239.00, 
2240.00, 
2241.00, 
2242.00, 
2243.00, 
2244.00, 
2245.00, 
2246.00, 
2247.00, 
2248.00, 
2249.00, 
2250.00, 
2251.00, 
2252.00, 
2253.00, 
2254.00, 
2255.00, 
2256.00, 
2257.00, 
2258.00, 
2259.00, 
2260.00, 
2261.00, 
2262.00, 
2263.00, 
2264.00, 
2265.00, 
2266.00, 
2267.00, 
2268.00, 
2269.00, 
2270.00, 
2271.00, 
2272.00, 
2273.00, 
2274.00, 
2275.00, 
2276.00, 
2277.00, 
2278.00, 
2279.00, 
2280.00, 
2281.00, 
2282.00, 
2283.00, 
2284.00, 
2285.00, 
2286.00, 
2287.00, 
2288.00, 
2289.00, 
2290.00, 
2291.00, 
2292.00, 
2293.00, 
2294.00, 
2295.00, 
2296.00, 
2297.00, 
2298.00, 
2299.00, 
2300.00, 
2301.00, 
2302.00, 
2303.00, 
2304.00, 
2305.00, 
2306.00, 
2307.00, 
2308.00, 
2309.00, 
2310.00, 
2311.00, 
2312.00, 
2313.00, 
2314.00, 
2315.00, 
2316.00, 
2317.00, 
2318.00, 
2319.00, 
2320.00, 
2321.00, 
2322.00, 
2323.00, 
2324.00, 
2325.00, 
2326.00, 
2327.00, 
2328.00, 
2329.00, 
2330.00, 
2331.00, 
2332.00, 
2333.00, 
2334.00, 
2335.00, 
2336.00, 
2337.00, 
2338.00, 
2339.00, 
2340.00, 
2341.00, 
2342.00, 
2343.00, 
2344.00, 
2345.00, 
2346.00, 
2347.00, 
2348.00, 
2349.00, 
2350.00, 
2351.00, 
2352.00, 
2353.00, 
2354.00, 
2355.00, 
2356.00, 
2357.00, 
2358.00, 
2359.00, 
2360.00, 
2361.00, 
2362.00, 
2363.00, 
2364.00, 
2365.00, 
2366.00, 
2367.00, 
2368.00, 
2369.00, 
2370.00, 
2371.00, 
2372.00, 
2373.00, 
2374.00, 
2375.00, 
2376.00, 
2377.00, 
2378.00, 
2379.00, 
2380.00, 
2381.00, 
2382.00, 
2383.00, 
2384.00, 
2385.00, 
2386.00, 
2387.00, 
2388.00, 
2389.00, 
2390.00, 
2391.00, 
2392.00, 
2393.00, 
2394.00, 
2395.00, 
2396.00, 
2397.00, 
2398.00, 
2399.00, 
2400.00, 
2401.00, 
2402.00, 
2403.00, 
2404.00, 
2405.00, 
2406.00, 
2407.00, 
2408.00, 
2409.00, 
2410.00, 
2411.00, 
2412.00, 
2413.00, 
2414.00, 
2415.00, 
2416.00, 
2417.00, 
2418.00, 
2419.00, 
2420.00, 
2421.00, 
2422.00, 
2423.00, 
2424.00, 
2425.00, 
2426.00, 
2427.00, 
2428.00, 
2429.00, 
2430.00, 
2431.00, 
2432.00, 
2433.00, 
2434.00, 
2435.00, 
2436.00, 
2437.00, 
2438.00, 
2439.00, 
2440.00, 
2441.00, 
2442.00, 
2443.00, 
2444.00, 
2445.00, 
2446.00, 
2447.00, 
2448.00, 
2449.00, 
2450.00, 
2451.00, 
2452.00, 
2453.00, 
2454.00, 
2455.00, 
2456.00, 
2457.00, 
2458.00, 
2459.00, 
2460.00, 
2461.00, 
2462.00, 
2463.00, 
2464.00, 
2465.00, 
2466.00, 
2467.00, 
2468.00, 
2469.00, 
2470.00, 
2471.00, 
2472.00, 
2473.00, 
2474.00, 
2475.00, 
2476.00, 
2477.00, 
2478.00, 
2479.00, 
2480.00, 
2481.00, 
2482.00, 
2483.00, 
2484.00, 
2485.00, 
2486.00, 
2487.00, 
2488.00, 
2489.00, 
2490.00, 
2491.00, 
2492.00, 
2493.00, 
2494.00, 
2495.00, 
2496.00, 
2497.00, 
2498.00, 
2499.00, 
2500.00, 
2501.00, 
2502.00, 
2503.00, 
2504.00, 
2505.00, 
2506.00, 
2507.00, 
2508.00, 
2509.00, 
2510.00, 
2511.00, 
2512.00, 
2513.00, 
2514.00, 
2515.00, 
2516.00, 
2517.00, 
2518.00, 
2519.00, 
2520.00, 
2521.00, 
2522.00, 
2523.00, 
2524.00, 
2525.00, 
2526.00, 
2527.00, 
2528.00, 
2529.00, 
2530.00, 
2531.00, 
2532.00, 
2533.00, 
2534.00, 
2535.00, 
2536.00, 
2537.00, 
2538.00, 
2539.00, 
2540.00, 
2541.00, 
2542.00, 
2543.00, 
2544.00, 
2545.00, 
2546.00, 
2547.00, 
2548.00, 
2549.00, 
2550.00, 
2551.00, 
2552.00, 
2553.00, 
2554.00, 
2555.00, 
2556.00, 
2557.00, 
2558.00, 
2559.00, 
2560.00, 
2561.00, 
2562.00, 
2563.00, 
2564.00, 
2565.00, 
2566.00, 
2567.00, 
2568.00, 
2569.00, 
2570.00, 
2571.00, 
2572.00, 
2573.00, 
2574.00, 
2575.00, 
2576.00, 
2577.00, 
2578.00, 
2579.00, 
2580.00, 
2581.00, 
2582.00, 
2583.00, 
2584.00, 
2585.00, 
2586.00, 
2587.00, 
2588.00, 
2589.00, 
2590.00, 
2591.00, 
2592.00, 
2593.00, 
2594.00, 
2595.00, 
2596.00, 
2597.00, 
2598.00, 
2599.00, 
2600.00, 
