"2cP4 - RawData"
"Wavelength nm.","T%"
200.00,0.002
201.00,0.003
202.00,-0.000
203.00,0.003
204.00,0.003
205.00,0.002
206.00,-0.001
207.00,0.001
208.00,0.002
209.00,0.003
210.00,-0.000
211.00,0.000
212.00,0.002
213.00,0.002
214.00,0.002
215.00,0.000
216.00,-0.001
217.00,0.002
218.00,0.001
219.00,0.002
220.00,0.001
221.00,0.001
222.00,0.003
223.00,-0.001
224.00,-0.002
225.00,-0.000
226.00,0.003
227.00,0.001
228.00,-0.000
229.00,-0.000
230.00,-0.001
231.00,-0.001
232.00,0.001
233.00,0.002
234.00,0.003
235.00,0.002
236.00,0.000
237.00,-0.002
238.00,-0.001
239.00,0.000
240.00,0.001
241.00,0.001
242.00,-0.001
243.00,0.002
244.00,0.000
245.00,0.002
246.00,0.001
247.00,0.001
248.00,0.000
249.00,-0.001
250.00,-0.000
251.00,0.001
252.00,0.001
253.00,0.000
254.00,0.001
255.00,0.000
256.00,-0.000
257.00,0.001
258.00,0.001
259.00,-0.001
260.00,0.002
261.00,-0.000
262.00,0.000
263.00,0.001
264.00,-0.000
265.00,0.002
266.00,0.001
267.00,-0.000
268.00,0.001
269.00,0.001
270.00,0.001
271.00,-0.001
272.00,0.000
273.00,-0.000
274.00,0.001
275.00,0.002
276.00,0.000
277.00,-0.001
278.00,0.000
279.00,0.000
280.00,0.001
281.00,0.001
282.00,0.001
283.00,0.001
284.00,-0.001
285.00,-0.001
286.00,0.001
287.00,0.001
288.00,0.001
289.00,0.000
290.00,0.003
291.00,-0.000
292.00,0.000
293.00,0.000
294.00,0.001
295.00,0.001
296.00,0.001
297.00,0.001
298.00,-0.000
299.00,0.002
300.00,0.003
301.00,0.004
302.00,0.004
303.00,0.009
304.00,0.012
305.00,0.019
306.00,0.031
307.00,0.044
308.00,0.068
309.00,0.107
310.00,0.147
311.00,0.203
312.00,0.275
313.00,0.378
314.00,0.492
315.00,0.640
316.00,0.809
317.00,1.025
318.00,1.274
319.00,1.557
320.00,1.910
321.00,2.274
322.00,2.692
323.00,3.171
324.00,3.664
325.00,4.189
326.00,4.720
327.00,5.326
328.00,5.962
329.00,6.608
330.00,7.248
331.00,7.930
332.00,8.586
333.00,9.318
334.00,9.994
335.00,10.718
336.00,11.407
337.00,12.106
338.00,12.795
339.00,13.439
340.00,14.098
341.00,14.749
342.00,15.316
343.00,15.886
344.00,16.454
345.00,17.004
346.00,17.515
347.00,17.963
348.00,18.406
349.00,18.865
350.00,19.254
351.00,19.625
352.00,19.982
353.00,20.294
354.00,20.613
355.00,20.896
356.00,21.187
357.00,21.432
358.00,21.670
359.00,21.929
360.00,22.189
361.00,22.262
362.00,22.514
363.00,22.696
364.00,22.775
365.00,22.891
366.00,23.029
367.00,23.082
368.00,23.151
369.00,23.249
370.00,23.292
371.00,23.340
372.00,23.370
373.00,23.368
374.00,23.401
375.00,23.378
376.00,23.325
377.00,23.288
378.00,23.231
379.00,23.223
380.00,23.230
381.00,23.199
382.00,23.215
383.00,23.234
384.00,23.242
385.00,23.301
386.00,23.325
387.00,23.415
388.00,23.484
389.00,23.462
390.00,23.501
391.00,23.534
392.00,23.568
393.00,23.568
394.00,23.612
395.00,23.657
396.00,23.650
397.00,23.690
398.00,23.695
399.00,23.669
400.00,23.684
401.00,23.724
402.00,23.698
403.00,23.727
404.00,23.714
405.00,23.711
406.00,23.735
407.00,23.683
408.00,23.714
409.00,23.651
410.00,23.621
411.00,23.599
412.00,23.612
413.00,23.621
414.00,23.571
415.00,23.665
416.00,23.683
417.00,23.650
418.00,23.697
419.00,23.765
420.00,23.838
421.00,23.868
422.00,23.871
423.00,23.921
424.00,23.975
425.00,24.020
426.00,24.059
427.00,24.094
428.00,24.152
429.00,24.186
430.00,24.255
431.00,24.313
432.00,24.367
433.00,24.364
434.00,24.432
435.00,24.535
436.00,24.607
437.00,24.697
438.00,24.779
439.00,24.840
440.00,24.906
441.00,24.987
442.00,25.078
443.00,25.166
444.00,25.266
445.00,25.334
446.00,25.444
447.00,25.536
448.00,25.608
449.00,25.746
450.00,25.875
451.00,25.960
452.00,26.056
453.00,26.194
454.00,26.272
455.00,26.349
456.00,26.525
457.00,26.604
458.00,26.711
459.00,26.825
460.00,26.986
461.00,27.144
462.00,27.242
463.00,27.385
464.00,27.497
465.00,27.635
466.00,27.816
467.00,27.916
468.00,28.015
469.00,28.110
470.00,28.202
471.00,28.294
472.00,28.434
473.00,28.514
474.00,28.643
475.00,28.763
476.00,28.842
477.00,28.960
478.00,29.066
479.00,29.271
480.00,29.392
481.00,29.513
482.00,29.691
483.00,29.806
484.00,29.990
485.00,30.130
486.00,30.327
487.00,30.417
488.00,30.563
489.00,30.710
490.00,30.810
491.00,30.961
492.00,31.183
493.00,31.346
494.00,31.329
495.00,31.499
496.00,31.606
497.00,31.708
498.00,31.881
499.00,32.001
500.00,32.131
501.00,32.228
502.00,32.382
503.00,32.460
504.00,32.515
505.00,32.712
506.00,32.774
507.00,32.900
508.00,33.114
509.00,33.209
510.00,33.329
511.00,33.397
512.00,33.544
513.00,33.664
514.00,33.727
515.00,33.903
516.00,33.989
517.00,34.016
518.00,34.256
519.00,34.286
520.00,34.271
521.00,34.373
522.00,34.503
523.00,34.589
524.00,34.711
525.00,34.758
526.00,34.863
527.00,34.911
528.00,34.993
529.00,35.113
530.00,35.323
531.00,35.414
532.00,35.512
533.00,35.550
534.00,35.632
535.00,35.733
536.00,35.796
537.00,35.876
538.00,35.926
539.00,35.990
540.00,36.033
541.00,36.071
542.00,36.149
543.00,36.224
544.00,36.285
545.00,36.370
546.00,36.489
547.00,36.568
548.00,36.633
549.00,36.663
550.00,36.762
551.00,36.801
552.00,36.886
553.00,36.930
554.00,36.980
555.00,36.981
556.00,37.092
557.00,37.194
558.00,37.249
559.00,37.269
560.00,37.358
561.00,37.354
562.00,37.465
563.00,37.525
564.00,37.517
565.00,37.493
566.00,37.632
567.00,37.580
568.00,37.695
569.00,37.760
570.00,37.817
571.00,37.817
572.00,37.867
573.00,37.806
574.00,37.884
575.00,37.899
576.00,37.894
577.00,37.973
578.00,38.087
579.00,38.171
580.00,38.191
581.00,38.328
582.00,38.399
583.00,38.411
584.00,38.524
585.00,38.555
586.00,38.600
587.00,38.684
588.00,38.698
589.00,38.632
590.00,38.766
591.00,38.878
592.00,38.799
593.00,38.866
594.00,38.958
595.00,39.066
596.00,39.067
597.00,39.111
598.00,39.197
599.00,39.202
600.00,39.265
601.00,39.294
602.00,39.264
603.00,39.287
604.00,39.308
605.00,39.412
606.00,39.440
607.00,39.458
608.00,39.621
609.00,39.732
610.00,39.645
611.00,39.636
612.00,39.663
613.00,39.786
614.00,39.788
615.00,39.880
616.00,40.016
617.00,39.970
618.00,39.965
619.00,40.064
620.00,40.084
621.00,40.140
622.00,40.205
623.00,40.311
624.00,40.418
625.00,40.434
626.00,40.534
627.00,40.541
628.00,40.583
629.00,40.560
630.00,40.683
631.00,40.753
632.00,40.826
633.00,40.976
634.00,41.032
635.00,41.082
636.00,41.158
637.00,41.156
638.00,41.174
639.00,41.360
640.00,41.356
641.00,41.383
642.00,41.451
643.00,41.580
644.00,41.648
645.00,41.660
646.00,41.818
647.00,41.938
648.00,41.870
649.00,42.026
650.00,42.101
651.00,42.168
652.00,42.221
653.00,42.319
654.00,42.281
655.00,42.594
656.00,42.761
657.00,42.624
658.00,42.772
659.00,42.870
660.00,42.823
661.00,42.878
662.00,43.064
663.00,43.117
664.00,43.311
665.00,43.525
666.00,43.559
667.00,43.510
668.00,43.459
669.00,43.807
670.00,43.985
671.00,43.705
672.00,43.821
673.00,44.353
674.00,44.125
675.00,44.192
676.00,44.427
677.00,44.542
678.00,44.379
679.00,44.583
680.00,44.697
681.00,44.864
682.00,44.826
683.00,44.844
684.00,45.009
685.00,45.007
686.00,45.021
687.00,45.187
688.00,45.276
689.00,45.262
690.00,45.415
691.00,45.734
692.00,45.453
693.00,45.338
694.00,45.814
695.00,46.200
696.00,46.036
697.00,45.927
698.00,46.031
699.00,46.212
700.00,46.182
701.00,46.269
702.00,46.369
703.00,46.583
704.00,46.590
705.00,46.578
706.00,46.681
707.00,46.750
708.00,46.634
709.00,46.918
710.00,47.376
711.00,46.979
712.00,46.954
713.00,47.182
714.00,47.184
715.00,47.181
716.00,47.172
717.00,47.449
718.00,47.663
719.00,47.565
720.00,47.571
721.00,52.050
722.00,52.067
723.00,52.143
724.00,52.090
725.00,52.236
726.00,52.211
727.00,52.193
728.00,52.260
729.00,52.266
730.00,52.258
731.00,52.258
732.00,52.275
733.00,52.399
734.00,52.357
735.00,52.472
736.00,52.391
737.00,52.412
738.00,52.529
739.00,52.545
740.00,52.471
741.00,52.529
742.00,52.630
743.00,52.547
744.00,52.583
745.00,52.600
746.00,52.649
747.00,52.645
748.00,52.571
749.00,52.588
750.00,52.564
751.00,52.603
752.00,52.566
753.00,52.588
754.00,52.612
755.00,52.580
756.00,52.578
757.00,52.643
758.00,52.656
759.00,52.631
760.00,52.648
761.00,52.682
762.00,52.664
763.00,52.673
764.00,52.639
765.00,52.710
766.00,52.696
767.00,52.742
768.00,52.681
769.00,52.762
770.00,52.708
771.00,52.744
772.00,52.795
773.00,52.693
774.00,52.814
775.00,52.777
776.00,52.825
777.00,52.793
778.00,52.796
779.00,52.761
780.00,52.817
781.00,52.758
782.00,52.813
783.00,52.777
784.00,52.742
785.00,52.705
786.00,52.712
787.00,52.727
788.00,52.797
789.00,52.761
790.00,52.725
791.00,52.751
792.00,52.702
793.00,52.736
794.00,52.658
795.00,52.682
796.00,52.661
797.00,52.664
798.00,52.594
799.00,52.573
800.00,52.629
801.00,52.593
802.00,52.538
803.00,52.592
804.00,52.607
805.00,52.540
806.00,52.523
807.00,52.496
808.00,52.483
809.00,52.463
810.00,52.352
811.00,52.486
812.00,52.422
813.00,52.376
814.00,52.330
815.00,52.461
816.00,52.421
817.00,52.355
818.00,52.305
819.00,52.270
820.00,52.300
821.00,52.264
822.00,52.257
823.00,52.184
824.00,52.252
825.00,52.207
826.00,52.256
827.00,52.200
828.00,52.204
829.00,52.225
830.00,52.202
831.00,54.390
832.00,54.391
833.00,54.326
834.00,54.337
835.00,54.283
836.00,54.299
837.00,54.238
838.00,54.231
839.00,54.238
840.00,54.200
841.00,54.207
842.00,54.192
843.00,54.164
844.00,54.159
845.00,54.089
846.00,54.119
847.00,54.095
848.00,54.071
849.00,54.010
850.00,54.007
851.00,53.947
852.00,53.936
853.00,53.846
854.00,53.893
855.00,53.801
856.00,53.821
857.00,53.782
858.00,53.742
859.00,53.731
860.00,53.688
861.00,53.679
862.00,53.663
863.00,53.692
864.00,53.634
865.00,53.673
866.00,53.648
867.00,53.647
868.00,53.574
869.00,53.563
870.00,53.775
871.00,53.600
872.00,53.576
873.00,53.569
874.00,53.543
875.00,53.523
876.00,53.546
877.00,53.504
878.00,53.527
879.00,53.460
880.00,53.447
881.00,53.427
882.00,53.469
883.00,53.442
884.00,53.379
885.00,53.358
886.00,53.352
887.00,53.337
888.00,53.300
889.00,53.292
890.00,53.292
891.00,53.225
892.00,53.230
893.00,53.219
894.00,53.206
895.00,53.175
896.00,53.166
897.00,53.150
898.00,53.115
899.00,53.108
900.00,53.087
901.00,53.072
902.00,53.092
903.00,53.036
904.00,53.044
905.00,53.005
906.00,53.033
907.00,52.916
908.00,52.935
909.00,52.946
910.00,52.899
911.00,52.911
912.00,52.912
913.00,52.850
914.00,52.828
915.00,52.808
916.00,52.797
917.00,52.773
918.00,52.768
919.00,52.743
920.00,52.712
921.00,52.690
922.00,52.679
923.00,52.659
924.00,52.648
925.00,52.642
926.00,52.614
927.00,52.598
928.00,52.569
929.00,52.563
930.00,52.521
931.00,52.508
932.00,52.465
933.00,52.498
934.00,52.445
935.00,52.435
936.00,52.445
937.00,52.423
938.00,52.376
939.00,52.376
940.00,52.472
941.00,52.347
942.00,52.318
943.00,52.303
944.00,52.268
945.00,52.279
946.00,52.244
947.00,52.231
948.00,52.209
949.00,52.183
950.00,52.176
951.00,52.128
952.00,52.115
953.00,52.090
954.00,52.059
955.00,52.023
956.00,52.015
957.00,51.982
958.00,51.997
959.00,51.949
960.00,51.928
961.00,51.905
962.00,51.905
963.00,51.861
964.00,51.862
965.00,51.847
966.00,51.844
967.00,51.846
968.00,51.809
969.00,51.839
970.00,51.819
971.00,51.835
972.00,51.790
973.00,51.827
974.00,51.859
975.00,51.808
976.00,51.830
977.00,51.806
978.00,51.858
979.00,51.799
980.00,51.827
981.00,51.834
982.00,51.796
983.00,51.797
984.00,51.775
985.00,51.802
986.00,51.749
987.00,51.761
988.00,51.746
989.00,51.729
990.00,51.724
991.00,51.714
992.00,51.761
993.00,51.709
994.00,51.687
995.00,51.696
996.00,51.678
997.00,51.668
998.00,51.643
999.00,51.664
1000.00,51.613
1001.00,51.595
1002.00,51.616
1003.00,51.633
1004.00,51.570
1005.00,51.543
1006.00,51.572
1007.00,51.530
1008.00,51.514
1009.00,51.496
1010.00,51.480
1011.00,51.485
1012.00,51.450
1013.00,51.459
1014.00,51.421
1015.00,51.452
1016.00,51.467
1017.00,51.388
1018.00,51.389
1019.00,51.357
1020.00,51.336
1021.00,51.332
1022.00,51.338
1023.00,51.292
1024.00,51.299
1025.00,51.287
1026.00,51.262
1027.00,51.241
1028.00,51.217
1029.00,51.211
1030.00,51.194
1031.00,51.192
1032.00,51.138
1033.00,51.148
1034.00,51.126
1035.00,51.085
1036.00,51.076
1037.00,51.045
1038.00,51.033
1039.00,51.005
1040.00,50.996
1041.00,50.962
1042.00,50.947
1043.00,50.930
1044.00,50.959
1045.00,50.936
1046.00,50.919
1047.00,50.946
1048.00,50.950
1049.00,50.970
1050.00,50.952
1051.00,50.997
1052.00,51.001
1053.00,51.004
1054.00,50.994
1055.00,51.026
1056.00,51.028
1057.00,51.025
1058.00,51.023
1059.00,51.007
1060.00,51.015
1061.00,50.995
1062.00,50.986
1063.00,50.997
1064.00,50.983
1065.00,50.978
1066.00,50.974
1067.00,50.954
1068.00,50.989
1069.00,50.948
1070.00,50.924
1071.00,50.900
1072.00,50.916
1073.00,50.896
1074.00,50.889
1075.00,50.871
1076.00,50.880
1077.00,50.878
1078.00,50.840
1079.00,50.845
1080.00,50.847
1081.00,50.826
1082.00,50.835
1083.00,50.824
1084.00,50.801
1085.00,50.796
1086.00,50.783
1087.00,50.784
1088.00,50.766
1089.00,50.752
1090.00,50.755
1091.00,50.757
1092.00,50.752
1093.00,50.768
1094.00,50.688
1095.00,50.675
1096.00,50.657
1097.00,50.652
1098.00,50.657
1099.00,50.643
1100.00,50.636
1101.00,50.634
1102.00,50.638
1103.00,50.625
1104.00,50.610
1105.00,50.600
1106.00,50.582
1107.00,50.585
1108.00,50.571
1109.00,50.566
1110.00,50.569
1111.00,50.552
1112.00,50.550
1113.00,50.550
1114.00,50.542
1115.00,50.543
1116.00,50.527
1117.00,50.502
1118.00,50.497
1119.00,50.489
1120.00,50.486
1121.00,50.500
1122.00,50.469
1123.00,50.452
1124.00,50.461
1125.00,50.434
1126.00,50.439
1127.00,50.446
1128.00,50.424
1129.00,50.406
1130.00,50.389
1131.00,50.399
1132.00,50.400
1133.00,50.397
1134.00,50.370
1135.00,50.369
1136.00,50.363
1137.00,50.364
1138.00,50.364
1139.00,50.360
1140.00,50.354
1141.00,50.329
1142.00,50.334
1143.00,50.366
1144.00,50.327
1145.00,50.334
1146.00,50.341
1147.00,50.330
1148.00,50.317
1149.00,50.317
1150.00,50.327
1151.00,50.308
1152.00,50.281
1153.00,50.308
1154.00,50.322
1155.00,50.276
1156.00,50.269
1157.00,50.287
1158.00,50.275
1159.00,50.265
1160.00,50.263
1161.00,50.272
1162.00,50.265
1163.00,50.250
1164.00,50.257
1165.00,50.263
1166.00,50.259
1167.00,50.258
1168.00,50.305
1169.00,50.261
1170.00,50.246
1171.00,50.225
1172.00,50.241
1173.00,50.238
1174.00,50.234
1175.00,50.241
1176.00,50.248
1177.00,50.228
1178.00,50.230
1179.00,50.260
1180.00,50.235
1181.00,50.260
1182.00,50.243
1183.00,50.217
1184.00,50.205
1185.00,50.213
1186.00,50.211
1187.00,50.214
1188.00,50.208
1189.00,50.208
1190.00,50.213
1191.00,50.199
1192.00,50.225
1193.00,50.198
1194.00,50.212
1195.00,50.177
1196.00,50.195
1197.00,50.197
1198.00,50.188
1199.00,50.200
1200.00,50.197
1201.00,50.215
1202.00,50.180
1203.00,50.193
1204.00,50.177
1205.00,50.193
1206.00,50.188
1207.00,50.174
1208.00,50.174
1209.00,50.170
1210.00,50.175
1211.00,50.170
1212.00,50.186
1213.00,50.141
1214.00,50.185
1215.00,50.187
1216.00,50.156
1217.00,50.175
1218.00,50.164
1219.00,50.190
1220.00,50.175
1221.00,50.171
1222.00,50.164
1223.00,50.187
1224.00,50.176
1225.00,50.155
1226.00,50.165
1227.00,50.150
1228.00,50.173
1229.00,50.165
1230.00,50.194
1231.00,50.189
1232.00,50.192
1233.00,50.216
1234.00,50.227
1235.00,50.214
1236.00,50.209
1237.00,50.211
1238.00,50.214
1239.00,50.229
1240.00,50.203
1241.00,50.209
1242.00,50.221
1243.00,50.227
1244.00,50.206
1245.00,50.244
1246.00,50.246
1247.00,50.221
1248.00,50.223
1249.00,50.229
1250.00,50.245
1251.00,50.227
1252.00,50.237
1253.00,50.232
1254.00,50.240
1255.00,50.247
1256.00,50.239
1257.00,50.230
1258.00,50.264
1259.00,50.252
1260.00,50.277
1261.00,50.268
1262.00,50.254
1263.00,50.251
1264.00,50.262
1265.00,50.262
1266.00,50.250
1267.00,50.275
1268.00,50.275
1269.00,50.278
1270.00,50.281
1271.00,50.288
1272.00,50.297
1273.00,50.294
1274.00,50.303
1275.00,50.324
1276.00,50.312
1277.00,50.324
1278.00,50.348
1279.00,50.329
1280.00,50.323
1281.00,50.340
1282.00,50.344
1283.00,50.337
1284.00,50.325
1285.00,50.327
1286.00,50.348
1287.00,50.332
1288.00,50.339
1289.00,50.349
1290.00,50.370
1291.00,50.363
1292.00,50.364
1293.00,50.368
1294.00,50.376
1295.00,50.381
1296.00,50.389
1297.00,50.406
1298.00,50.405
1299.00,50.395
1300.00,50.416
1301.00,50.399
1302.00,50.427
1303.00,50.437
1304.00,50.412
1305.00,50.444
1306.00,50.438
1307.00,50.442
1308.00,50.455
1309.00,50.457
1310.00,50.469
1311.00,50.460
1312.00,50.456
1313.00,50.457
1314.00,50.479
1315.00,50.487
1316.00,50.478
1317.00,50.485
1318.00,50.496
1319.00,50.513
1320.00,50.534
1321.00,50.673
1322.00,50.673
1323.00,50.651
1324.00,50.660
1325.00,50.624
1326.00,50.639
1327.00,50.668
1328.00,50.625
1329.00,50.637
1330.00,50.646
1331.00,50.638
1332.00,50.661
1333.00,50.634
1334.00,50.673
1335.00,50.701
1336.00,50.704
1337.00,50.743
1338.00,50.803
1339.00,50.838
1340.00,50.888
1341.00,50.957
1342.00,51.017
1343.00,51.093
1344.00,51.125
1345.00,51.194
1346.00,51.240
1347.00,51.254
1348.00,51.265
1349.00,51.300
1350.00,51.314
1351.00,51.335
1352.00,51.313
1353.00,51.329
1354.00,51.339
1355.00,51.306
1356.00,51.353
1357.00,51.366
1358.00,51.364
1359.00,51.376
1360.00,51.422
1361.00,51.414
1362.00,51.316
1363.00,51.470
1364.00,51.523
1365.00,51.385
1366.00,51.435
1367.00,51.349
1368.00,51.323
1369.00,51.328
1370.00,51.345
1371.00,51.299
1372.00,51.327
1373.00,51.352
1374.00,51.363
1375.00,51.353
1376.00,51.331
1377.00,51.329
1378.00,51.335
1379.00,51.382
1380.00,51.364
1381.00,51.697
1382.00,51.379
1383.00,51.359
1384.00,51.316
1385.00,51.305
1386.00,51.300
1387.00,51.287
1388.00,51.290
1389.00,51.374
1390.00,51.333
1391.00,51.288
1392.00,51.359
1393.00,51.390
1394.00,51.335
1395.00,51.277
1396.00,51.274
1397.00,51.203
1398.00,51.378
1399.00,51.463
1400.00,51.265
1401.00,51.280
1402.00,51.426
1403.00,51.346
1404.00,51.306
1405.00,51.371
1406.00,51.337
1407.00,51.389
1408.00,51.413
1409.00,51.368
1410.00,51.394
1411.00,51.382
1412.00,51.461
1413.00,51.392
1414.00,51.395
1415.00,51.433
1416.00,51.432
1417.00,51.481
1418.00,51.450
1419.00,51.410
1420.00,51.480
1421.00,51.526
1422.00,51.500
1423.00,51.516
1424.00,51.518
1425.00,51.521
1426.00,51.530
1427.00,51.549
1428.00,51.561
1429.00,51.569
1430.00,51.551
1431.00,51.581
1432.00,51.629
1433.00,51.642
1434.00,51.632
1435.00,51.670
1436.00,51.677
1437.00,51.673
1438.00,51.684
1439.00,51.714
1440.00,51.738
1441.00,51.725
1442.00,51.758
1443.00,51.770
1444.00,51.832
1445.00,51.797
1446.00,51.801
1447.00,51.821
1448.00,51.855
1449.00,51.847
1450.00,51.840
1451.00,51.854
1452.00,51.864
1453.00,51.895
1454.00,51.916
1455.00,51.925
1456.00,51.952
1457.00,51.950
1458.00,51.967
1459.00,51.991
1460.00,52.011
1461.00,52.011
1462.00,52.065
1463.00,52.044
1464.00,52.070
1465.00,52.091
1466.00,52.080
1467.00,52.112
1468.00,52.166
1469.00,52.133
1470.00,52.145
1471.00,52.146
1472.00,52.157
1473.00,52.175
1474.00,52.199
1475.00,52.218
1476.00,52.245
1477.00,52.227
1478.00,52.245
1479.00,52.282
1480.00,52.277
1481.00,52.282
1482.00,52.314
1483.00,52.307
1484.00,52.332
1485.00,52.320
1486.00,52.340
1487.00,52.357
1488.00,52.359
1489.00,52.368
1490.00,52.393
1491.00,52.407
1492.00,52.442
1493.00,52.397
1494.00,52.441
1495.00,52.449
1496.00,52.443
1497.00,52.463
1498.00,52.466
1499.00,52.480
1500.00,52.513
1501.00, 
1502.00, 
1503.00, 
1504.00, 
1505.00, 
1506.00, 
1507.00, 
1508.00, 
1509.00, 
1510.00, 
1511.00, 
1512.00, 
1513.00, 
1514.00, 
1515.00, 
1516.00, 
1517.00, 
1518.00, 
1519.00, 
1520.00, 
1521.00, 
1522.00, 
1523.00, 
1524.00, 
1525.00, 
1526.00, 
1527.00, 
1528.00, 
1529.00, 
1530.00, 
1531.00, 
1532.00, 
1533.00, 
1534.00, 
1535.00, 
1536.00, 
1537.00, 
1538.00, 
1539.00, 
1540.00, 
1541.00, 
1542.00, 
1543.00, 
1544.00, 
1545.00, 
1546.00, 
1547.00, 
1548.00, 
1549.00, 
1550.00, 
1551.00, 
1552.00, 
1553.00, 
1554.00, 
1555.00, 
1556.00, 
1557.00, 
1558.00, 
1559.00, 
1560.00, 
1561.00, 
1562.00, 
1563.00, 
1564.00, 
1565.00, 
1566.00, 
1567.00, 
1568.00, 
1569.00, 
1570.00, 
1571.00, 
1572.00, 
1573.00, 
1574.00, 
1575.00, 
1576.00, 
1577.00, 
1578.00, 
1579.00, 
1580.00, 
1581.00, 
1582.00, 
1583.00, 
1584.00, 
1585.00, 
1586.00, 
1587.00, 
1588.00, 
1589.00, 
1590.00, 
1591.00, 
1592.00, 
1593.00, 
1594.00, 
1595.00, 
1596.00, 
1597.00, 
1598.00, 
1599.00, 
1600.00, 
1601.00, 
1602.00, 
1603.00, 
1604.00, 
1605.00, 
1606.00, 
1607.00, 
1608.00, 
1609.00, 
1610.00, 
1611.00, 
1612.00, 
1613.00, 
1614.00, 
1615.00, 
1616.00, 
1617.00, 
1618.00, 
1619.00, 
1620.00, 
1621.00, 
1622.00, 
1623.00, 
1624.00, 
1625.00, 
1626.00, 
1627.00, 
1628.00, 
1629.00, 
1630.00, 
1631.00, 
1632.00, 
1633.00, 
1634.00, 
1635.00, 
1636.00, 
1637.00, 
1638.00, 
1639.00, 
1640.00, 
1641.00, 
1642.00, 
1643.00, 
1644.00, 
1645.00, 
1646.00, 
1647.00, 
1648.00, 
1649.00, 
1650.00, 
1651.00, 
1652.00, 
1653.00, 
1654.00, 
1655.00, 
1656.00, 
1657.00, 
1658.00, 
1659.00, 
1660.00, 
1661.00, 
1662.00, 
1663.00, 
1664.00, 
1665.00, 
1666.00, 
1667.00, 
1668.00, 
1669.00, 
1670.00, 
1671.00, 
1672.00, 
1673.00, 
1674.00, 
1675.00, 
1676.00, 
1677.00, 
1678.00, 
1679.00, 
1680.00, 
1681.00, 
1682.00, 
1683.00, 
1684.00, 
1685.00, 
1686.00, 
1687.00, 
1688.00, 
1689.00, 
1690.00, 
1691.00, 
1692.00, 
1693.00, 
1694.00, 
1695.00, 
1696.00, 
1697.00, 
1698.00, 
1699.00, 
1700.00, 
1701.00, 
1702.00, 
1703.00, 
1704.00, 
1705.00, 
1706.00, 
1707.00, 
1708.00, 
1709.00, 
1710.00, 
1711.00, 
1712.00, 
1713.00, 
1714.00, 
1715.00, 
1716.00, 
1717.00, 
1718.00, 
1719.00, 
1720.00, 
1721.00, 
1722.00, 
1723.00, 
1724.00, 
1725.00, 
1726.00, 
1727.00, 
1728.00, 
1729.00, 
1730.00, 
1731.00, 
1732.00, 
1733.00, 
1734.00, 
1735.00, 
1736.00, 
1737.00, 
1738.00, 
1739.00, 
1740.00, 
1741.00, 
1742.00, 
1743.00, 
1744.00, 
1745.00, 
1746.00, 
1747.00, 
1748.00, 
1749.00, 
1750.00, 
1751.00, 
1752.00, 
1753.00, 
1754.00, 
1755.00, 
1756.00, 
1757.00, 
1758.00, 
1759.00, 
1760.00, 
1761.00, 
1762.00, 
1763.00, 
1764.00, 
1765.00, 
1766.00, 
1767.00, 
1768.00, 
1769.00, 
1770.00, 
1771.00, 
1772.00, 
1773.00, 
1774.00, 
1775.00, 
1776.00, 
1777.00, 
1778.00, 
1779.00, 
1780.00, 
1781.00, 
1782.00, 
1783.00, 
1784.00, 
1785.00, 
1786.00, 
1787.00, 
1788.00, 
1789.00, 
1790.00, 
1791.00, 
1792.00, 
1793.00, 
1794.00, 
1795.00, 
1796.00, 
1797.00, 
1798.00, 
1799.00, 
1800.00, 
1801.00, 
1802.00, 
1803.00, 
1804.00, 
1805.00, 
1806.00, 
1807.00, 
1808.00, 
1809.00, 
1810.00, 
1811.00, 
1812.00, 
1813.00, 
1814.00, 
1815.00, 
1816.00, 
1817.00, 
1818.00, 
1819.00, 
1820.00, 
1821.00, 
1822.00, 
1823.00, 
1824.00, 
1825.00, 
1826.00, 
1827.00, 
1828.00, 
1829.00, 
1830.00, 
1831.00, 
1832.00, 
1833.00, 
1834.00, 
1835.00, 
1836.00, 
1837.00, 
1838.00, 
1839.00, 
1840.00, 
1841.00, 
1842.00, 
1843.00, 
1844.00, 
1845.00, 
1846.00, 
1847.00, 
1848.00, 
1849.00, 
1850.00, 
1851.00, 
1852.00, 
1853.00, 
1854.00, 
1855.00, 
1856.00, 
1857.00, 
1858.00, 
1859.00, 
1860.00, 
1861.00, 
1862.00, 
1863.00, 
1864.00, 
1865.00, 
1866.00, 
1867.00, 
1868.00, 
1869.00, 
1870.00, 
1871.00, 
1872.00, 
1873.00, 
1874.00, 
1875.00, 
1876.00, 
1877.00, 
1878.00, 
1879.00, 
1880.00, 
1881.00, 
1882.00, 
1883.00, 
1884.00, 
1885.00, 
1886.00, 
1887.00, 
1888.00, 
1889.00, 
1890.00, 
1891.00, 
1892.00, 
1893.00, 
1894.00, 
1895.00, 
1896.00, 
1897.00, 
1898.00, 
1899.00, 
1900.00, 
1901.00, 
1902.00, 
1903.00, 
1904.00, 
1905.00, 
1906.00, 
1907.00, 
1908.00, 
1909.00, 
1910.00, 
1911.00, 
1912.00, 
1913.00, 
1914.00, 
1915.00, 
1916.00, 
1917.00, 
1918.00, 
1919.00, 
1920.00, 
1921.00, 
1922.00, 
1923.00, 
1924.00, 
1925.00, 
1926.00, 
1927.00, 
1928.00, 
1929.00, 
1930.00, 
1931.00, 
1932.00, 
1933.00, 
1934.00, 
1935.00, 
1936.00, 
1937.00, 
1938.00, 
1939.00, 
1940.00, 
1941.00, 
1942.00, 
1943.00, 
1944.00, 
1945.00, 
1946.00, 
1947.00, 
1948.00, 
1949.00, 
1950.00, 
1951.00, 
1952.00, 
1953.00, 
1954.00, 
1955.00, 
1956.00, 
1957.00, 
1958.00, 
1959.00, 
1960.00, 
1961.00, 
1962.00, 
1963.00, 
1964.00, 
1965.00, 
1966.00, 
1967.00, 
1968.00, 
1969.00, 
1970.00, 
1971.00, 
1972.00, 
1973.00, 
1974.00, 
1975.00, 
1976.00, 
1977.00, 
1978.00, 
1979.00, 
1980.00, 
1981.00, 
1982.00, 
1983.00, 
1984.00, 
1985.00, 
1986.00, 
1987.00, 
1988.00, 
1989.00, 
1990.00, 
1991.00, 
1992.00, 
1993.00, 
1994.00, 
1995.00, 
1996.00, 
1997.00, 
1998.00, 
1999.00, 
2000.00, 
2001.00, 
2002.00, 
2003.00, 
2004.00, 
2005.00, 
2006.00, 
2007.00, 
2008.00, 
2009.00, 
2010.00, 
2011.00, 
2012.00, 
2013.00, 
2014.00, 
2015.00, 
2016.00, 
2017.00, 
2018.00, 
2019.00, 
2020.00, 
2021.00, 
2022.00, 
2023.00, 
2024.00, 
2025.00, 
2026.00, 
2027.00, 
2028.00, 
2029.00, 
2030.00, 
2031.00, 
2032.00, 
2033.00, 
2034.00, 
2035.00, 
2036.00, 
2037.00, 
2038.00, 
2039.00, 
2040.00, 
2041.00, 
2042.00, 
2043.00, 
2044.00, 
2045.00, 
2046.00, 
2047.00, 
2048.00, 
2049.00, 
2050.00, 
2051.00, 
2052.00, 
2053.00, 
2054.00, 
2055.00, 
2056.00, 
2057.00, 
2058.00, 
2059.00, 
2060.00, 
2061.00, 
2062.00, 
2063.00, 
2064.00, 
2065.00, 
2066.00, 
2067.00, 
2068.00, 
2069.00, 
2070.00, 
2071.00, 
2072.00, 
2073.00, 
2074.00, 
2075.00, 
2076.00, 
2077.00, 
2078.00, 
2079.00, 
2080.00, 
2081.00, 
2082.00, 
2083.00, 
2084.00, 
2085.00, 
2086.00, 
2087.00, 
2088.00, 
2089.00, 
2090.00, 
2091.00, 
2092.00, 
2093.00, 
2094.00, 
2095.00, 
2096.00, 
2097.00, 
2098.00, 
2099.00, 
2100.00, 
2101.00, 
2102.00, 
2103.00, 
2104.00, 
2105.00, 
2106.00, 
2107.00, 
2108.00, 
2109.00, 
2110.00, 
2111.00, 
2112.00, 
2113.00, 
2114.00, 
2115.00, 
2116.00, 
2117.00, 
2118.00, 
2119.00, 
2120.00, 
2121.00, 
2122.00, 
2123.00, 
2124.00, 
2125.00, 
2126.00, 
2127.00, 
2128.00, 
2129.00, 
2130.00, 
2131.00, 
2132.00, 
2133.00, 
2134.00, 
2135.00, 
2136.00, 
2137.00, 
2138.00, 
2139.00, 
2140.00, 
2141.00, 
2142.00, 
2143.00, 
2144.00, 
2145.00, 
2146.00, 
2147.00, 
2148.00, 
2149.00, 
2150.00, 
2151.00, 
2152.00, 
2153.00, 
2154.00, 
2155.00, 
2156.00, 
2157.00, 
2158.00, 
2159.00, 
2160.00, 
2161.00, 
2162.00, 
2163.00, 
2164.00, 
2165.00, 
2166.00, 
2167.00, 
2168.00, 
2169.00, 
2170.00, 
2171.00, 
2172.00, 
2173.00, 
2174.00, 
2175.00, 
2176.00, 
2177.00, 
2178.00, 
2179.00, 
2180.00, 
2181.00, 
2182.00, 
2183.00, 
2184.00, 
2185.00, 
2186.00, 
2187.00, 
2188.00, 
2189.00, 
2190.00, 
2191.00, 
2192.00, 
2193.00, 
2194.00, 
2195.00, 
2196.00, 
2197.00, 
2198.00, 
2199.00, 
2200.00, 
2201.00, 
2202.00, 
2203.00, 
2204.00, 
2205.00, 
2206.00, 
2207.00, 
2208.00, 
2209.00, 
2210.00, 
2211.00, 
2212.00, 
2213.00, 
2214.00, 
2215.00, 
2216.00, 
2217.00, 
2218.00, 
2219.00, 
2220.00, 
2221.00, 
2222.00, 
2223.00, 
2224.00, 
2225.00, 
2226.00, 
2227.00, 
2228.00, 
2229.00, 
2230.00, 
2231.00, 
2232.00, 
2233.00, 
2234.00, 
2235.00, 
2236.00, 
2237.00, 
2238.00, 
2239.00, 
2240.00, 
2241.00, 
2242.00, 
2243.00, 
2244.00, 
2245.00, 
2246.00, 
2247.00, 
2248.00, 
2249.00, 
2250.00, 
2251.00, 
2252.00, 
2253.00, 
2254.00, 
2255.00, 
2256.00, 
2257.00, 
2258.00, 
2259.00, 
2260.00, 
2261.00, 
2262.00, 
2263.00, 
2264.00, 
2265.00, 
2266.00, 
2267.00, 
2268.00, 
2269.00, 
2270.00, 
2271.00, 
2272.00, 
2273.00, 
2274.00, 
2275.00, 
2276.00, 
2277.00, 
2278.00, 
2279.00, 
2280.00, 
2281.00, 
2282.00, 
2283.00, 
2284.00, 
2285.00, 
2286.00, 
2287.00, 
2288.00, 
2289.00, 
2290.00, 
2291.00, 
2292.00, 
2293.00, 
2294.00, 
2295.00, 
2296.00, 
2297.00, 
2298.00, 
2299.00, 
2300.00, 
2301.00, 
2302.00, 
2303.00, 
2304.00, 
2305.00, 
2306.00, 
2307.00, 
2308.00, 
2309.00, 
2310.00, 
2311.00, 
2312.00, 
2313.00, 
2314.00, 
2315.00, 
2316.00, 
2317.00, 
2318.00, 
2319.00, 
2320.00, 
2321.00, 
2322.00, 
2323.00, 
2324.00, 
2325.00, 
2326.00, 
2327.00, 
2328.00, 
2329.00, 
2330.00, 
2331.00, 
2332.00, 
2333.00, 
2334.00, 
2335.00, 
2336.00, 
2337.00, 
2338.00, 
2339.00, 
2340.00, 
2341.00, 
2342.00, 
2343.00, 
2344.00, 
2345.00, 
2346.00, 
2347.00, 
2348.00, 
2349.00, 
2350.00, 
2351.00, 
2352.00, 
2353.00, 
2354.00, 
2355.00, 
2356.00, 
2357.00, 
2358.00, 
2359.00, 
2360.00, 
2361.00, 
2362.00, 
2363.00, 
2364.00, 
2365.00, 
2366.00, 
2367.00, 
2368.00, 
2369.00, 
2370.00, 
2371.00, 
2372.00, 
2373.00, 
2374.00, 
2375.00, 
2376.00, 
2377.00, 
2378.00, 
2379.00, 
2380.00, 
2381.00, 
2382.00, 
2383.00, 
2384.00, 
2385.00, 
2386.00, 
2387.00, 
2388.00, 
2389.00, 
2390.00, 
2391.00, 
2392.00, 
2393.00, 
2394.00, 
2395.00, 
2396.00, 
2397.00, 
2398.00, 
2399.00, 
2400.00, 
2401.00, 
2402.00, 
2403.00, 
2404.00, 
2405.00, 
2406.00, 
2407.00, 
2408.00, 
2409.00, 
2410.00, 
2411.00, 
2412.00, 
2413.00, 
2414.00, 
2415.00, 
2416.00, 
2417.00, 
2418.00, 
2419.00, 
2420.00, 
2421.00, 
2422.00, 
2423.00, 
2424.00, 
2425.00, 
2426.00, 
2427.00, 
2428.00, 
2429.00, 
2430.00, 
2431.00, 
2432.00, 
2433.00, 
2434.00, 
2435.00, 
2436.00, 
2437.00, 
2438.00, 
2439.00, 
2440.00, 
2441.00, 
2442.00, 
2443.00, 
2444.00, 
2445.00, 
2446.00, 
2447.00, 
2448.00, 
2449.00, 
2450.00, 
2451.00, 
2452.00, 
2453.00, 
2454.00, 
2455.00, 
2456.00, 
2457.00, 
2458.00, 
2459.00, 
2460.00, 
2461.00, 
2462.00, 
2463.00, 
2464.00, 
2465.00, 
2466.00, 
2467.00, 
2468.00, 
2469.00, 
2470.00, 
2471.00, 
2472.00, 
2473.00, 
2474.00, 
2475.00, 
2476.00, 
2477.00, 
2478.00, 
2479.00, 
2480.00, 
2481.00, 
2482.00, 
2483.00, 
2484.00, 
2485.00, 
2486.00, 
2487.00, 
2488.00, 
2489.00, 
2490.00, 
2491.00, 
2492.00, 
2493.00, 
2494.00, 
2495.00, 
2496.00, 
2497.00, 
2498.00, 
2499.00, 
2500.00, 
2501.00, 
2502.00, 
2503.00, 
2504.00, 
2505.00, 
2506.00, 
2507.00, 
2508.00, 
2509.00, 
2510.00, 
2511.00, 
2512.00, 
2513.00, 
2514.00, 
2515.00, 
2516.00, 
2517.00, 
2518.00, 
2519.00, 
2520.00, 
2521.00, 
2522.00, 
2523.00, 
2524.00, 
2525.00, 
2526.00, 
2527.00, 
2528.00, 
2529.00, 
2530.00, 
2531.00, 
2532.00, 
2533.00, 
2534.00, 
2535.00, 
2536.00, 
2537.00, 
2538.00, 
2539.00, 
2540.00, 
2541.00, 
2542.00, 
2543.00, 
2544.00, 
2545.00, 
2546.00, 
2547.00, 
2548.00, 
2549.00, 
2550.00, 
2551.00, 
2552.00, 
2553.00, 
2554.00, 
2555.00, 
2556.00, 
2557.00, 
2558.00, 
2559.00, 
2560.00, 
2561.00, 
2562.00, 
2563.00, 
2564.00, 
2565.00, 
2566.00, 
2567.00, 
2568.00, 
2569.00, 
2570.00, 
2571.00, 
2572.00, 
2573.00, 
2574.00, 
2575.00, 
2576.00, 
2577.00, 
2578.00, 
2579.00, 
2580.00, 
2581.00, 
2582.00, 
2583.00, 
2584.00, 
2585.00, 
2586.00, 
2587.00, 
2588.00, 
2589.00, 
2590.00, 
2591.00, 
2592.00, 
2593.00, 
2594.00, 
2595.00, 
2596.00, 
2597.00, 
2598.00, 
2599.00, 
2600.00, 
