"2cP5 - RawData"
"Wavelength nm.","T%"
200.00,0.001
201.00,0.002
202.00,-0.001
203.00,0.002
204.00,0.003
205.00,0.002
206.00,0.000
207.00,0.000
208.00,0.002
209.00,-0.002
210.00,0.005
211.00,0.001
212.00,0.003
213.00,0.001
214.00,0.002
215.00,0.001
216.00,0.003
217.00,0.002
218.00,0.000
219.00,0.000
220.00,0.002
221.00,-0.001
222.00,0.002
223.00,0.002
224.00,0.002
225.00,0.001
226.00,0.001
227.00,-0.002
228.00,0.002
229.00,0.001
230.00,-0.001
231.00,0.001
232.00,0.003
233.00,-0.001
234.00,-0.001
235.00,0.001
236.00,0.001
237.00,0.003
238.00,0.002
239.00,-0.001
240.00,-0.000
241.00,-0.001
242.00,0.001
243.00,0.000
244.00,0.002
245.00,0.001
246.00,-0.001
247.00,-0.002
248.00,0.001
249.00,-0.000
250.00,0.001
251.00,0.000
252.00,-0.001
253.00,0.001
254.00,-0.000
255.00,0.001
256.00,-0.000
257.00,0.002
258.00,0.002
259.00,0.002
260.00,0.001
261.00,0.001
262.00,0.002
263.00,-0.001
264.00,-0.001
265.00,0.002
266.00,0.002
267.00,-0.001
268.00,0.001
269.00,-0.001
270.00,0.000
271.00,0.001
272.00,-0.000
273.00,0.001
274.00,0.001
275.00,0.000
276.00,-0.000
277.00,-0.000
278.00,0.001
279.00,0.001
280.00,-0.001
281.00,-0.001
282.00,0.002
283.00,0.001
284.00,-0.000
285.00,0.000
286.00,0.001
287.00,0.002
288.00,0.001
289.00,-0.002
290.00,0.003
291.00,0.001
292.00,0.000
293.00,0.001
294.00,-0.001
295.00,0.000
296.00,0.001
297.00,0.001
298.00,0.002
299.00,0.001
300.00,0.002
301.00,0.003
302.00,0.005
303.00,0.006
304.00,0.012
305.00,0.018
306.00,0.027
307.00,0.040
308.00,0.063
309.00,0.098
310.00,0.138
311.00,0.186
312.00,0.256
313.00,0.343
314.00,0.451
315.00,0.587
316.00,0.758
317.00,0.967
318.00,1.190
319.00,1.441
320.00,1.763
321.00,2.115
322.00,2.499
323.00,2.943
324.00,3.417
325.00,3.888
326.00,4.380
327.00,4.962
328.00,5.540
329.00,6.124
330.00,6.734
331.00,7.320
332.00,7.932
333.00,8.645
334.00,9.282
335.00,9.960
336.00,10.588
337.00,11.242
338.00,11.870
339.00,12.465
340.00,13.066
341.00,13.638
342.00,14.200
343.00,14.754
344.00,15.261
345.00,15.783
346.00,16.241
347.00,16.663
348.00,17.047
349.00,17.442
350.00,17.814
351.00,18.178
352.00,18.481
353.00,18.777
354.00,19.074
355.00,19.320
356.00,19.592
357.00,19.816
358.00,19.996
359.00,20.245
360.00,20.502
361.00,20.547
362.00,20.755
363.00,20.925
364.00,20.998
365.00,21.085
366.00,21.218
367.00,21.288
368.00,21.352
369.00,21.381
370.00,21.434
371.00,21.484
372.00,21.496
373.00,21.469
374.00,21.508
375.00,21.511
376.00,21.453
377.00,21.419
378.00,21.352
379.00,21.308
380.00,21.311
381.00,21.301
382.00,21.300
383.00,21.280
384.00,21.278
385.00,21.383
386.00,21.360
387.00,21.429
388.00,21.448
389.00,21.514
390.00,21.544
391.00,21.542
392.00,21.553
393.00,21.543
394.00,21.574
395.00,21.623
396.00,21.595
397.00,21.619
398.00,21.620
399.00,21.626
400.00,21.621
401.00,21.632
402.00,21.600
403.00,21.630
404.00,21.626
405.00,21.635
406.00,21.635
407.00,21.600
408.00,21.616
409.00,21.559
410.00,21.522
411.00,21.517
412.00,21.507
413.00,21.525
414.00,21.482
415.00,21.542
416.00,21.552
417.00,21.551
418.00,21.602
419.00,21.660
420.00,21.720
421.00,21.763
422.00,21.789
423.00,21.822
424.00,21.854
425.00,21.898
426.00,21.951
427.00,21.966
428.00,22.020
429.00,22.050
430.00,22.129
431.00,22.187
432.00,22.218
433.00,22.250
434.00,22.330
435.00,22.406
436.00,22.472
437.00,22.546
438.00,22.637
439.00,22.704
440.00,22.771
441.00,22.853
442.00,22.925
443.00,23.001
444.00,23.123
445.00,23.197
446.00,23.297
447.00,23.407
448.00,23.517
449.00,23.607
450.00,23.733
451.00,23.799
452.00,23.902
453.00,24.051
454.00,24.132
455.00,24.208
456.00,24.366
457.00,24.484
458.00,24.575
459.00,24.713
460.00,24.862
461.00,24.976
462.00,25.105
463.00,25.269
464.00,25.385
465.00,25.479
466.00,25.637
467.00,25.773
468.00,25.892
469.00,25.959
470.00,26.029
471.00,26.154
472.00,26.339
473.00,26.389
474.00,26.576
475.00,26.689
476.00,26.766
477.00,26.926
478.00,27.022
479.00,27.202
480.00,27.365
481.00,27.474
482.00,27.629
483.00,27.774
484.00,27.937
485.00,28.103
486.00,28.284
487.00,28.424
488.00,28.515
489.00,28.710
490.00,28.833
491.00,28.935
492.00,29.171
493.00,29.329
494.00,29.309
495.00,29.516
496.00,29.637
497.00,29.781
498.00,29.896
499.00,30.031
500.00,30.185
501.00,30.270
502.00,30.406
503.00,30.564
504.00,30.649
505.00,30.801
506.00,30.885
507.00,31.012
508.00,31.162
509.00,31.245
510.00,31.414
511.00,31.559
512.00,31.595
513.00,31.694
514.00,31.916
515.00,32.010
516.00,32.167
517.00,32.256
518.00,32.438
519.00,32.493
520.00,32.551
521.00,32.662
522.00,32.704
523.00,32.773
524.00,32.846
525.00,32.978
526.00,33.093
527.00,33.133
528.00,33.226
529.00,33.353
530.00,33.562
531.00,33.666
532.00,33.697
533.00,33.823
534.00,33.906
535.00,33.985
536.00,34.081
537.00,34.180
538.00,34.224
539.00,34.283
540.00,34.384
541.00,34.391
542.00,34.448
543.00,34.567
544.00,34.613
545.00,34.707
546.00,34.731
547.00,34.869
548.00,34.943
549.00,35.007
550.00,35.102
551.00,35.196
552.00,35.253
553.00,35.304
554.00,35.371
555.00,35.359
556.00,35.465
557.00,35.517
558.00,35.612
559.00,35.677
560.00,35.707
561.00,35.779
562.00,35.822
563.00,35.876
564.00,35.912
565.00,35.932
566.00,35.960
567.00,36.039
568.00,36.015
569.00,36.175
570.00,36.247
571.00,36.091
572.00,36.186
573.00,36.250
574.00,36.201
575.00,36.278
576.00,36.264
577.00,36.380
578.00,36.478
579.00,36.515
580.00,36.589
581.00,36.738
582.00,36.785
583.00,36.776
584.00,36.909
585.00,36.951
586.00,36.991
587.00,37.134
588.00,37.077
589.00,37.042
590.00,37.166
591.00,37.208
592.00,37.184
593.00,37.215
594.00,37.315
595.00,37.418
596.00,37.434
597.00,37.514
598.00,37.515
599.00,37.553
600.00,37.628
601.00,37.620
602.00,37.570
603.00,37.727
604.00,37.768
605.00,37.795
606.00,37.812
607.00,37.825
608.00,37.996
609.00,38.124
610.00,38.066
611.00,38.087
612.00,38.085
613.00,38.191
614.00,38.207
615.00,38.303
616.00,38.389
617.00,38.353
618.00,38.331
619.00,38.490
620.00,38.488
621.00,38.577
622.00,38.609
623.00,38.710
624.00,38.772
625.00,38.834
626.00,38.877
627.00,38.932
628.00,39.007
629.00,38.992
630.00,39.063
631.00,39.143
632.00,39.246
633.00,39.379
634.00,39.428
635.00,39.534
636.00,39.618
637.00,39.588
638.00,39.643
639.00,39.788
640.00,39.771
641.00,39.848
642.00,39.945
643.00,40.006
644.00,40.058
645.00,40.152
646.00,40.331
647.00,40.399
648.00,40.343
649.00,40.477
650.00,40.519
651.00,40.657
652.00,40.697
653.00,40.753
654.00,40.804
655.00,41.012
656.00,41.252
657.00,41.169
658.00,41.295
659.00,41.386
660.00,41.389
661.00,41.352
662.00,41.487
663.00,41.573
664.00,41.744
665.00,42.048
666.00,41.764
667.00,41.693
668.00,41.992
669.00,42.673
670.00,42.541
671.00,42.478
672.00,42.301
673.00,42.571
674.00,42.654
675.00,42.743
676.00,42.963
677.00,43.152
678.00,43.014
679.00,43.176
680.00,43.339
681.00,43.496
682.00,43.504
683.00,43.520
684.00,43.670
685.00,43.701
686.00,43.585
687.00,43.854
688.00,43.967
689.00,43.903
690.00,44.212
691.00,44.480
692.00,44.262
693.00,44.277
694.00,44.497
695.00,44.726
696.00,44.833
697.00,44.730
698.00,44.831
699.00,44.957
700.00,44.941
701.00,45.031
702.00,45.213
703.00,45.383
704.00,45.432
705.00,45.410
706.00,45.547
707.00,45.682
708.00,45.536
709.00,45.806
710.00,46.261
711.00,45.887
712.00,45.861
713.00,46.105
714.00,46.175
715.00,46.058
716.00,46.191
717.00,46.350
718.00,46.656
719.00,46.575
720.00,46.539
721.00,51.062
722.00,51.125
723.00,51.127
724.00,51.161
725.00,51.247
726.00,51.275
727.00,51.268
728.00,51.275
729.00,51.338
730.00,51.375
731.00,51.393
732.00,51.439
733.00,51.477
734.00,51.512
735.00,51.605
736.00,51.580
737.00,51.624
738.00,51.692
739.00,51.713
740.00,51.724
741.00,51.776
742.00,51.879
743.00,51.780
744.00,51.842
745.00,51.836
746.00,51.902
747.00,51.906
748.00,51.825
749.00,51.936
750.00,51.974
751.00,51.941
752.00,51.924
753.00,51.965
754.00,51.927
755.00,51.943
756.00,52.054
757.00,51.966
758.00,52.007
759.00,52.008
760.00,52.059
761.00,52.037
762.00,51.995
763.00,52.095
764.00,52.058
765.00,52.152
766.00,52.164
767.00,52.231
768.00,52.132
769.00,52.165
770.00,52.151
771.00,52.210
772.00,52.229
773.00,52.268
774.00,52.319
775.00,52.200
776.00,52.299
777.00,52.306
778.00,52.360
779.00,52.342
780.00,52.291
781.00,52.295
782.00,52.362
783.00,52.344
784.00,52.353
785.00,52.280
786.00,52.341
787.00,52.344
788.00,52.357
789.00,52.348
790.00,52.274
791.00,52.333
792.00,52.246
793.00,52.369
794.00,52.201
795.00,52.270
796.00,52.294
797.00,52.204
798.00,52.221
799.00,52.219
800.00,52.167
801.00,52.145
802.00,52.171
803.00,52.139
804.00,52.187
805.00,52.173
806.00,52.151
807.00,52.137
808.00,52.080
809.00,52.128
810.00,52.120
811.00,52.059
812.00,52.110
813.00,52.057
814.00,52.047
815.00,52.051
816.00,52.106
817.00,52.006
818.00,51.932
819.00,51.958
820.00,51.939
821.00,51.943
822.00,51.963
823.00,51.897
824.00,51.907
825.00,51.914
826.00,51.909
827.00,51.942
828.00,51.870
829.00,51.896
830.00,51.885
831.00,54.032
832.00,54.057
833.00,54.015
834.00,54.002
835.00,53.936
836.00,54.040
837.00,53.958
838.00,53.970
839.00,53.932
840.00,53.907
841.00,53.908
842.00,53.885
843.00,53.875
844.00,53.860
845.00,53.805
846.00,53.808
847.00,53.787
848.00,53.800
849.00,53.722
850.00,53.739
851.00,53.640
852.00,53.647
853.00,53.616
854.00,53.609
855.00,53.514
856.00,53.534
857.00,53.521
858.00,53.493
859.00,53.448
860.00,53.455
861.00,53.434
862.00,53.396
863.00,53.503
864.00,53.385
865.00,53.444
866.00,53.379
867.00,53.390
868.00,53.349
869.00,53.363
870.00,53.320
871.00,53.325
872.00,53.324
873.00,53.300
874.00,53.280
875.00,53.293
876.00,53.308
877.00,53.201
878.00,53.406
879.00,53.218
880.00,53.232
881.00,53.215
882.00,53.235
883.00,53.180
884.00,53.156
885.00,53.142
886.00,53.125
887.00,53.098
888.00,53.093
889.00,53.077
890.00,53.090
891.00,53.029
892.00,53.002
893.00,53.058
894.00,52.986
895.00,52.954
896.00,52.956
897.00,52.929
898.00,52.904
899.00,52.872
900.00,52.874
901.00,52.851
902.00,52.895
903.00,52.840
904.00,52.847
905.00,52.798
906.00,52.836
907.00,52.710
908.00,52.745
909.00,52.744
910.00,52.693
911.00,52.699
912.00,52.696
913.00,52.647
914.00,52.647
915.00,52.627
916.00,52.592
917.00,52.545
918.00,52.718
919.00,52.527
920.00,52.523
921.00,52.497
922.00,52.475
923.00,52.458
924.00,52.443
925.00,52.435
926.00,52.422
927.00,52.430
928.00,52.369
929.00,52.387
930.00,52.350
931.00,52.338
932.00,52.237
933.00,52.380
934.00,52.261
935.00,52.261
936.00,52.218
937.00,52.224
938.00,52.203
939.00,52.202
940.00,52.170
941.00,52.176
942.00,52.131
943.00,52.131
944.00,52.070
945.00,52.103
946.00,52.063
947.00,52.026
948.00,52.018
949.00,51.989
950.00,51.992
951.00,51.971
952.00,51.953
953.00,51.915
954.00,51.883
955.00,51.813
956.00,51.812
957.00,51.788
958.00,51.812
959.00,51.764
960.00,51.770
961.00,51.751
962.00,51.747
963.00,51.694
964.00,51.695
965.00,51.684
966.00,51.656
967.00,51.673
968.00,51.624
969.00,51.649
970.00,51.643
971.00,51.667
972.00,51.620
973.00,51.655
974.00,51.677
975.00,51.649
976.00,51.668
977.00,51.639
978.00,51.714
979.00,51.737
980.00,51.650
981.00,51.659
982.00,51.636
983.00,51.641
984.00,51.629
985.00,51.642
986.00,51.583
987.00,51.616
988.00,51.576
989.00,51.569
990.00,51.553
991.00,51.558
992.00,51.581
993.00,51.507
994.00,51.528
995.00,51.530
996.00,51.497
997.00,51.492
998.00,51.468
999.00,51.485
1000.00,51.435
1001.00,51.415
1002.00,51.435
1003.00,51.459
1004.00,51.410
1005.00,51.386
1006.00,51.434
1007.00,51.382
1008.00,51.382
1009.00,51.394
1010.00,51.337
1011.00,51.337
1012.00,51.290
1013.00,51.299
1014.00,51.270
1015.00,51.278
1016.00,51.240
1017.00,51.234
1018.00,51.230
1019.00,51.211
1020.00,51.180
1021.00,51.157
1022.00,51.177
1023.00,51.125
1024.00,51.142
1025.00,51.166
1026.00,51.087
1027.00,51.062
1028.00,51.061
1029.00,51.045
1030.00,51.012
1031.00,51.008
1032.00,50.967
1033.00,50.984
1034.00,50.954
1035.00,50.905
1036.00,50.904
1037.00,50.893
1038.00,50.866
1039.00,50.852
1040.00,50.851
1041.00,50.800
1042.00,50.790
1043.00,50.766
1044.00,50.809
1045.00,50.786
1046.00,50.758
1047.00,50.802
1048.00,50.802
1049.00,50.814
1050.00,50.819
1051.00,50.851
1052.00,50.848
1053.00,50.870
1054.00,50.865
1055.00,50.902
1056.00,50.876
1057.00,50.876
1058.00,50.866
1059.00,50.854
1060.00,50.863
1061.00,50.854
1062.00,50.835
1063.00,50.849
1064.00,50.837
1065.00,50.815
1066.00,50.815
1067.00,50.793
1068.00,50.815
1069.00,50.794
1070.00,50.778
1071.00,50.747
1072.00,50.773
1073.00,50.735
1074.00,50.734
1075.00,50.717
1076.00,50.708
1077.00,50.710
1078.00,50.680
1079.00,50.680
1080.00,50.695
1081.00,50.675
1082.00,50.671
1083.00,50.672
1084.00,50.658
1085.00,50.641
1086.00,50.631
1087.00,50.615
1088.00,50.602
1089.00,50.589
1090.00,50.585
1091.00,50.595
1092.00,50.572
1093.00,50.563
1094.00,50.552
1095.00,50.543
1096.00,50.521
1097.00,50.517
1098.00,50.518
1099.00,50.510
1100.00,50.514
1101.00,50.537
1102.00,50.494
1103.00,50.487
1104.00,50.467
1105.00,50.461
1106.00,50.439
1107.00,50.435
1108.00,50.425
1109.00,50.418
1110.00,50.431
1111.00,50.417
1112.00,50.399
1113.00,50.404
1114.00,50.393
1115.00,50.385
1116.00,50.386
1117.00,50.365
1118.00,50.353
1119.00,50.341
1120.00,50.317
1121.00,50.336
1122.00,50.311
1123.00,50.300
1124.00,50.325
1125.00,50.300
1126.00,50.299
1127.00,50.311
1128.00,50.291
1129.00,50.269
1130.00,50.255
1131.00,50.252
1132.00,50.239
1133.00,50.248
1134.00,50.211
1135.00,50.216
1136.00,50.211
1137.00,50.203
1138.00,50.213
1139.00,50.210
1140.00,50.205
1141.00,50.182
1142.00,50.173
1143.00,50.203
1144.00,50.156
1145.00,50.164
1146.00,50.180
1147.00,50.166
1148.00,50.160
1149.00,50.173
1150.00,50.160
1151.00,50.155
1152.00,50.145
1153.00,50.133
1154.00,50.134
1155.00,50.131
1156.00,50.115
1157.00,50.141
1158.00,50.128
1159.00,50.141
1160.00,50.127
1161.00,50.137
1162.00,50.152
1163.00,50.125
1164.00,50.128
1165.00,50.118
1166.00,50.116
1167.00,50.094
1168.00,50.132
1169.00,50.110
1170.00,50.116
1171.00,50.096
1172.00,50.098
1173.00,50.104
1174.00,50.101
1175.00,50.084
1176.00,50.101
1177.00,50.074
1178.00,50.064
1179.00,50.098
1180.00,50.075
1181.00,50.087
1182.00,50.082
1183.00,50.065
1184.00,50.060
1185.00,50.076
1186.00,50.060
1187.00,50.077
1188.00,50.061
1189.00,50.063
1190.00,50.070
1191.00,50.053
1192.00,50.085
1193.00,50.063
1194.00,50.070
1195.00,50.029
1196.00,50.054
1197.00,50.050
1198.00,50.031
1199.00,50.024
1200.00,50.037
1201.00,50.074
1202.00,50.038
1203.00,50.042
1204.00,50.042
1205.00,50.051
1206.00,50.047
1207.00,50.033
1208.00,50.018
1209.00,50.030
1210.00,50.028
1211.00,50.024
1212.00,50.059
1213.00,50.020
1214.00,50.043
1215.00,50.033
1216.00,50.031
1217.00,50.032
1218.00,50.020
1219.00,50.033
1220.00,50.043
1221.00,50.026
1222.00,50.010
1223.00,50.072
1224.00,50.034
1225.00,50.009
1226.00,50.020
1227.00,50.011
1228.00,50.025
1229.00,50.017
1230.00,50.034
1231.00,50.043
1232.00,50.048
1233.00,50.048
1234.00,50.067
1235.00,50.060
1236.00,50.051
1237.00,50.067
1238.00,50.059
1239.00,50.063
1240.00,50.034
1241.00,50.038
1242.00,50.062
1243.00,50.069
1244.00,50.045
1245.00,50.097
1246.00,50.092
1247.00,50.067
1248.00,50.075
1249.00,50.075
1250.00,50.111
1251.00,50.104
1252.00,50.111
1253.00,50.119
1254.00,50.111
1255.00,50.106
1256.00,50.089
1257.00,50.066
1258.00,50.122
1259.00,50.107
1260.00,50.124
1261.00,50.109
1262.00,50.111
1263.00,50.095
1264.00,50.115
1265.00,50.120
1266.00,50.113
1267.00,50.138
1268.00,50.133
1269.00,50.132
1270.00,50.150
1271.00,50.141
1272.00,50.146
1273.00,50.146
1274.00,50.143
1275.00,50.163
1276.00,50.141
1277.00,50.135
1278.00,50.172
1279.00,50.158
1280.00,50.160
1281.00,50.179
1282.00,50.202
1283.00,50.155
1284.00,50.172
1285.00,50.158
1286.00,50.195
1287.00,50.177
1288.00,50.168
1289.00,50.180
1290.00,50.202
1291.00,50.197
1292.00,50.205
1293.00,50.203
1294.00,50.217
1295.00,50.230
1296.00,50.211
1297.00,50.258
1298.00,50.279
1299.00,50.245
1300.00,50.269
1301.00,50.247
1302.00,50.273
1303.00,50.277
1304.00,50.250
1305.00,50.285
1306.00,50.272
1307.00,50.273
1308.00,50.292
1309.00,50.298
1310.00,50.304
1311.00,50.293
1312.00,50.309
1313.00,50.316
1314.00,50.335
1315.00,50.329
1316.00,50.331
1317.00,50.363
1318.00,50.365
1319.00,50.382
1320.00,50.387
1321.00,50.513
1322.00,50.514
1323.00,50.498
1324.00,50.482
1325.00,50.506
1326.00,50.503
1327.00,50.532
1328.00,50.540
1329.00,50.510
1330.00,50.521
1331.00,50.511
1332.00,50.499
1333.00,50.540
1334.00,50.533
1335.00,50.560
1336.00,50.585
1337.00,50.625
1338.00,50.684
1339.00,50.729
1340.00,50.789
1341.00,50.850
1342.00,50.911
1343.00,50.966
1344.00,51.010
1345.00,51.072
1346.00,51.094
1347.00,51.115
1348.00,51.130
1349.00,51.157
1350.00,51.173
1351.00,51.188
1352.00,51.178
1353.00,51.159
1354.00,51.199
1355.00,51.159
1356.00,51.225
1357.00,51.209
1358.00,51.245
1359.00,51.260
1360.00,51.223
1361.00,51.107
1362.00,51.235
1363.00,51.290
1364.00,51.288
1365.00,51.224
1366.00,51.265
1367.00,51.162
1368.00,51.159
1369.00,51.234
1370.00,51.180
1371.00,51.124
1372.00,51.176
1373.00,51.218
1374.00,51.215
1375.00,51.186
1376.00,51.161
1377.00,51.218
1378.00,51.252
1379.00,51.222
1380.00,51.193
1381.00,51.210
1382.00,51.194
1383.00,51.207
1384.00,51.150
1385.00,51.134
1386.00,51.189
1387.00,51.165
1388.00,51.156
1389.00,51.146
1390.00,51.170
1391.00,51.166
1392.00,51.203
1393.00,51.263
1394.00,51.177
1395.00,51.173
1396.00,51.142
1397.00,51.108
1398.00,51.177
1399.00,51.177
1400.00,51.092
1401.00,51.075
1402.00,51.203
1403.00,51.162
1404.00,51.148
1405.00,51.139
1406.00,51.198
1407.00,51.259
1408.00,51.278
1409.00,51.208
1410.00,51.253
1411.00,51.258
1412.00,51.300
1413.00,51.217
1414.00,51.253
1415.00,51.282
1416.00,51.290
1417.00,51.330
1418.00,51.281
1419.00,51.272
1420.00,51.309
1421.00,51.373
1422.00,51.333
1423.00,51.348
1424.00,51.368
1425.00,51.380
1426.00,51.388
1427.00,51.427
1428.00,51.406
1429.00,51.398
1430.00,51.423
1431.00,51.415
1432.00,51.477
1433.00,51.481
1434.00,51.467
1435.00,51.546
1436.00,51.519
1437.00,51.522
1438.00,51.547
1439.00,51.567
1440.00,51.577
1441.00,51.578
1442.00,51.584
1443.00,51.624
1444.00,51.704
1445.00,51.632
1446.00,51.628
1447.00,51.655
1448.00,51.699
1449.00,51.720
1450.00,51.697
1451.00,51.713
1452.00,51.731
1453.00,51.753
1454.00,51.781
1455.00,51.789
1456.00,51.802
1457.00,51.799
1458.00,51.811
1459.00,51.833
1460.00,51.851
1461.00,51.851
1462.00,51.897
1463.00,51.886
1464.00,51.908
1465.00,51.925
1466.00,51.910
1467.00,51.938
1468.00,52.009
1469.00,51.967
1470.00,51.987
1471.00,52.004
1472.00,52.005
1473.00,52.013
1474.00,52.037
1475.00,52.045
1476.00,52.076
1477.00,52.055
1478.00,52.087
1479.00,52.143
1480.00,52.140
1481.00,52.151
1482.00,52.158
1483.00,52.151
1484.00,52.177
1485.00,52.172
1486.00,52.186
1487.00,52.209
1488.00,52.218
1489.00,52.210
1490.00,52.225
1491.00,52.234
1492.00,52.271
1493.00,52.252
1494.00,52.287
1495.00,52.286
1496.00,52.290
1497.00,52.295
1498.00,52.313
1499.00,52.316
1500.00,52.340
1501.00, 
1502.00, 
1503.00, 
1504.00, 
1505.00, 
1506.00, 
1507.00, 
1508.00, 
1509.00, 
1510.00, 
1511.00, 
1512.00, 
1513.00, 
1514.00, 
1515.00, 
1516.00, 
1517.00, 
1518.00, 
1519.00, 
1520.00, 
1521.00, 
1522.00, 
1523.00, 
1524.00, 
1525.00, 
1526.00, 
1527.00, 
1528.00, 
1529.00, 
1530.00, 
1531.00, 
1532.00, 
1533.00, 
1534.00, 
1535.00, 
1536.00, 
1537.00, 
1538.00, 
1539.00, 
1540.00, 
1541.00, 
1542.00, 
1543.00, 
1544.00, 
1545.00, 
1546.00, 
1547.00, 
1548.00, 
1549.00, 
1550.00, 
1551.00, 
1552.00, 
1553.00, 
1554.00, 
1555.00, 
1556.00, 
1557.00, 
1558.00, 
1559.00, 
1560.00, 
1561.00, 
1562.00, 
1563.00, 
1564.00, 
1565.00, 
1566.00, 
1567.00, 
1568.00, 
1569.00, 
1570.00, 
1571.00, 
1572.00, 
1573.00, 
1574.00, 
1575.00, 
1576.00, 
1577.00, 
1578.00, 
1579.00, 
1580.00, 
1581.00, 
1582.00, 
1583.00, 
1584.00, 
1585.00, 
1586.00, 
1587.00, 
1588.00, 
1589.00, 
1590.00, 
1591.00, 
1592.00, 
1593.00, 
1594.00, 
1595.00, 
1596.00, 
1597.00, 
1598.00, 
1599.00, 
1600.00, 
1601.00, 
1602.00, 
1603.00, 
1604.00, 
1605.00, 
1606.00, 
1607.00, 
1608.00, 
1609.00, 
1610.00, 
1611.00, 
1612.00, 
1613.00, 
1614.00, 
1615.00, 
1616.00, 
1617.00, 
1618.00, 
1619.00, 
1620.00, 
1621.00, 
1622.00, 
1623.00, 
1624.00, 
1625.00, 
1626.00, 
1627.00, 
1628.00, 
1629.00, 
1630.00, 
1631.00, 
1632.00, 
1633.00, 
1634.00, 
1635.00, 
1636.00, 
1637.00, 
1638.00, 
1639.00, 
1640.00, 
1641.00, 
1642.00, 
1643.00, 
1644.00, 
1645.00, 
1646.00, 
1647.00, 
1648.00, 
1649.00, 
1650.00, 
1651.00, 
1652.00, 
1653.00, 
1654.00, 
1655.00, 
1656.00, 
1657.00, 
1658.00, 
1659.00, 
1660.00, 
1661.00, 
1662.00, 
1663.00, 
1664.00, 
1665.00, 
1666.00, 
1667.00, 
1668.00, 
1669.00, 
1670.00, 
1671.00, 
1672.00, 
1673.00, 
1674.00, 
1675.00, 
1676.00, 
1677.00, 
1678.00, 
1679.00, 
1680.00, 
1681.00, 
1682.00, 
1683.00, 
1684.00, 
1685.00, 
1686.00, 
1687.00, 
1688.00, 
1689.00, 
1690.00, 
1691.00, 
1692.00, 
1693.00, 
1694.00, 
1695.00, 
1696.00, 
1697.00, 
1698.00, 
1699.00, 
1700.00, 
1701.00, 
1702.00, 
1703.00, 
1704.00, 
1705.00, 
1706.00, 
1707.00, 
1708.00, 
1709.00, 
1710.00, 
1711.00, 
1712.00, 
1713.00, 
1714.00, 
1715.00, 
1716.00, 
1717.00, 
1718.00, 
1719.00, 
1720.00, 
1721.00, 
1722.00, 
1723.00, 
1724.00, 
1725.00, 
1726.00, 
1727.00, 
1728.00, 
1729.00, 
1730.00, 
1731.00, 
1732.00, 
1733.00, 
1734.00, 
1735.00, 
1736.00, 
1737.00, 
1738.00, 
1739.00, 
1740.00, 
1741.00, 
1742.00, 
1743.00, 
1744.00, 
1745.00, 
1746.00, 
1747.00, 
1748.00, 
1749.00, 
1750.00, 
1751.00, 
1752.00, 
1753.00, 
1754.00, 
1755.00, 
1756.00, 
1757.00, 
1758.00, 
1759.00, 
1760.00, 
1761.00, 
1762.00, 
1763.00, 
1764.00, 
1765.00, 
1766.00, 
1767.00, 
1768.00, 
1769.00, 
1770.00, 
1771.00, 
1772.00, 
1773.00, 
1774.00, 
1775.00, 
1776.00, 
1777.00, 
1778.00, 
1779.00, 
1780.00, 
1781.00, 
1782.00, 
1783.00, 
1784.00, 
1785.00, 
1786.00, 
1787.00, 
1788.00, 
1789.00, 
1790.00, 
1791.00, 
1792.00, 
1793.00, 
1794.00, 
1795.00, 
1796.00, 
1797.00, 
1798.00, 
1799.00, 
1800.00, 
1801.00, 
1802.00, 
1803.00, 
1804.00, 
1805.00, 
1806.00, 
1807.00, 
1808.00, 
1809.00, 
1810.00, 
1811.00, 
1812.00, 
1813.00, 
1814.00, 
1815.00, 
1816.00, 
1817.00, 
1818.00, 
1819.00, 
1820.00, 
1821.00, 
1822.00, 
1823.00, 
1824.00, 
1825.00, 
1826.00, 
1827.00, 
1828.00, 
1829.00, 
1830.00, 
1831.00, 
1832.00, 
1833.00, 
1834.00, 
1835.00, 
1836.00, 
1837.00, 
1838.00, 
1839.00, 
1840.00, 
1841.00, 
1842.00, 
1843.00, 
1844.00, 
1845.00, 
1846.00, 
1847.00, 
1848.00, 
1849.00, 
1850.00, 
1851.00, 
1852.00, 
1853.00, 
1854.00, 
1855.00, 
1856.00, 
1857.00, 
1858.00, 
1859.00, 
1860.00, 
1861.00, 
1862.00, 
1863.00, 
1864.00, 
1865.00, 
1866.00, 
1867.00, 
1868.00, 
1869.00, 
1870.00, 
1871.00, 
1872.00, 
1873.00, 
1874.00, 
1875.00, 
1876.00, 
1877.00, 
1878.00, 
1879.00, 
1880.00, 
1881.00, 
1882.00, 
1883.00, 
1884.00, 
1885.00, 
1886.00, 
1887.00, 
1888.00, 
1889.00, 
1890.00, 
1891.00, 
1892.00, 
1893.00, 
1894.00, 
1895.00, 
1896.00, 
1897.00, 
1898.00, 
1899.00, 
1900.00, 
1901.00, 
1902.00, 
1903.00, 
1904.00, 
1905.00, 
1906.00, 
1907.00, 
1908.00, 
1909.00, 
1910.00, 
1911.00, 
1912.00, 
1913.00, 
1914.00, 
1915.00, 
1916.00, 
1917.00, 
1918.00, 
1919.00, 
1920.00, 
1921.00, 
1922.00, 
1923.00, 
1924.00, 
1925.00, 
1926.00, 
1927.00, 
1928.00, 
1929.00, 
1930.00, 
1931.00, 
1932.00, 
1933.00, 
1934.00, 
1935.00, 
1936.00, 
1937.00, 
1938.00, 
1939.00, 
1940.00, 
1941.00, 
1942.00, 
1943.00, 
1944.00, 
1945.00, 
1946.00, 
1947.00, 
1948.00, 
1949.00, 
1950.00, 
1951.00, 
1952.00, 
1953.00, 
1954.00, 
1955.00, 
1956.00, 
1957.00, 
1958.00, 
1959.00, 
1960.00, 
1961.00, 
1962.00, 
1963.00, 
1964.00, 
1965.00, 
1966.00, 
1967.00, 
1968.00, 
1969.00, 
1970.00, 
1971.00, 
1972.00, 
1973.00, 
1974.00, 
1975.00, 
1976.00, 
1977.00, 
1978.00, 
1979.00, 
1980.00, 
1981.00, 
1982.00, 
1983.00, 
1984.00, 
1985.00, 
1986.00, 
1987.00, 
1988.00, 
1989.00, 
1990.00, 
1991.00, 
1992.00, 
1993.00, 
1994.00, 
1995.00, 
1996.00, 
1997.00, 
1998.00, 
1999.00, 
2000.00, 
2001.00, 
2002.00, 
2003.00, 
2004.00, 
2005.00, 
2006.00, 
2007.00, 
2008.00, 
2009.00, 
2010.00, 
2011.00, 
2012.00, 
2013.00, 
2014.00, 
2015.00, 
2016.00, 
2017.00, 
2018.00, 
2019.00, 
2020.00, 
2021.00, 
2022.00, 
2023.00, 
2024.00, 
2025.00, 
2026.00, 
2027.00, 
2028.00, 
2029.00, 
2030.00, 
2031.00, 
2032.00, 
2033.00, 
2034.00, 
2035.00, 
2036.00, 
2037.00, 
2038.00, 
2039.00, 
2040.00, 
2041.00, 
2042.00, 
2043.00, 
2044.00, 
2045.00, 
2046.00, 
2047.00, 
2048.00, 
2049.00, 
2050.00, 
2051.00, 
2052.00, 
2053.00, 
2054.00, 
2055.00, 
2056.00, 
2057.00, 
2058.00, 
2059.00, 
2060.00, 
2061.00, 
2062.00, 
2063.00, 
2064.00, 
2065.00, 
2066.00, 
2067.00, 
2068.00, 
2069.00, 
2070.00, 
2071.00, 
2072.00, 
2073.00, 
2074.00, 
2075.00, 
2076.00, 
2077.00, 
2078.00, 
2079.00, 
2080.00, 
2081.00, 
2082.00, 
2083.00, 
2084.00, 
2085.00, 
2086.00, 
2087.00, 
2088.00, 
2089.00, 
2090.00, 
2091.00, 
2092.00, 
2093.00, 
2094.00, 
2095.00, 
2096.00, 
2097.00, 
2098.00, 
2099.00, 
2100.00, 
2101.00, 
2102.00, 
2103.00, 
2104.00, 
2105.00, 
2106.00, 
2107.00, 
2108.00, 
2109.00, 
2110.00, 
2111.00, 
2112.00, 
2113.00, 
2114.00, 
2115.00, 
2116.00, 
2117.00, 
2118.00, 
2119.00, 
2120.00, 
2121.00, 
2122.00, 
2123.00, 
2124.00, 
2125.00, 
2126.00, 
2127.00, 
2128.00, 
2129.00, 
2130.00, 
2131.00, 
2132.00, 
2133.00, 
2134.00, 
2135.00, 
2136.00, 
2137.00, 
2138.00, 
2139.00, 
2140.00, 
2141.00, 
2142.00, 
2143.00, 
2144.00, 
2145.00, 
2146.00, 
2147.00, 
2148.00, 
2149.00, 
2150.00, 
2151.00, 
2152.00, 
2153.00, 
2154.00, 
2155.00, 
2156.00, 
2157.00, 
2158.00, 
2159.00, 
2160.00, 
2161.00, 
2162.00, 
2163.00, 
2164.00, 
2165.00, 
2166.00, 
2167.00, 
2168.00, 
2169.00, 
2170.00, 
2171.00, 
2172.00, 
2173.00, 
2174.00, 
2175.00, 
2176.00, 
2177.00, 
2178.00, 
2179.00, 
2180.00, 
2181.00, 
2182.00, 
2183.00, 
2184.00, 
2185.00, 
2186.00, 
2187.00, 
2188.00, 
2189.00, 
2190.00, 
2191.00, 
2192.00, 
2193.00, 
2194.00, 
2195.00, 
2196.00, 
2197.00, 
2198.00, 
2199.00, 
2200.00, 
2201.00, 
2202.00, 
2203.00, 
2204.00, 
2205.00, 
2206.00, 
2207.00, 
2208.00, 
2209.00, 
2210.00, 
2211.00, 
2212.00, 
2213.00, 
2214.00, 
2215.00, 
2216.00, 
2217.00, 
2218.00, 
2219.00, 
2220.00, 
2221.00, 
2222.00, 
2223.00, 
2224.00, 
2225.00, 
2226.00, 
2227.00, 
2228.00, 
2229.00, 
2230.00, 
2231.00, 
2232.00, 
2233.00, 
2234.00, 
2235.00, 
2236.00, 
2237.00, 
2238.00, 
2239.00, 
2240.00, 
2241.00, 
2242.00, 
2243.00, 
2244.00, 
2245.00, 
2246.00, 
2247.00, 
2248.00, 
2249.00, 
2250.00, 
2251.00, 
2252.00, 
2253.00, 
2254.00, 
2255.00, 
2256.00, 
2257.00, 
2258.00, 
2259.00, 
2260.00, 
2261.00, 
2262.00, 
2263.00, 
2264.00, 
2265.00, 
2266.00, 
2267.00, 
2268.00, 
2269.00, 
2270.00, 
2271.00, 
2272.00, 
2273.00, 
2274.00, 
2275.00, 
2276.00, 
2277.00, 
2278.00, 
2279.00, 
2280.00, 
2281.00, 
2282.00, 
2283.00, 
2284.00, 
2285.00, 
2286.00, 
2287.00, 
2288.00, 
2289.00, 
2290.00, 
2291.00, 
2292.00, 
2293.00, 
2294.00, 
2295.00, 
2296.00, 
2297.00, 
2298.00, 
2299.00, 
2300.00, 
2301.00, 
2302.00, 
2303.00, 
2304.00, 
2305.00, 
2306.00, 
2307.00, 
2308.00, 
2309.00, 
2310.00, 
2311.00, 
2312.00, 
2313.00, 
2314.00, 
2315.00, 
2316.00, 
2317.00, 
2318.00, 
2319.00, 
2320.00, 
2321.00, 
2322.00, 
2323.00, 
2324.00, 
2325.00, 
2326.00, 
2327.00, 
2328.00, 
2329.00, 
2330.00, 
2331.00, 
2332.00, 
2333.00, 
2334.00, 
2335.00, 
2336.00, 
2337.00, 
2338.00, 
2339.00, 
2340.00, 
2341.00, 
2342.00, 
2343.00, 
2344.00, 
2345.00, 
2346.00, 
2347.00, 
2348.00, 
2349.00, 
2350.00, 
2351.00, 
2352.00, 
2353.00, 
2354.00, 
2355.00, 
2356.00, 
2357.00, 
2358.00, 
2359.00, 
2360.00, 
2361.00, 
2362.00, 
2363.00, 
2364.00, 
2365.00, 
2366.00, 
2367.00, 
2368.00, 
2369.00, 
2370.00, 
2371.00, 
2372.00, 
2373.00, 
2374.00, 
2375.00, 
2376.00, 
2377.00, 
2378.00, 
2379.00, 
2380.00, 
2381.00, 
2382.00, 
2383.00, 
2384.00, 
2385.00, 
2386.00, 
2387.00, 
2388.00, 
2389.00, 
2390.00, 
2391.00, 
2392.00, 
2393.00, 
2394.00, 
2395.00, 
2396.00, 
2397.00, 
2398.00, 
2399.00, 
2400.00, 
2401.00, 
2402.00, 
2403.00, 
2404.00, 
2405.00, 
2406.00, 
2407.00, 
2408.00, 
2409.00, 
2410.00, 
2411.00, 
2412.00, 
2413.00, 
2414.00, 
2415.00, 
2416.00, 
2417.00, 
2418.00, 
2419.00, 
2420.00, 
2421.00, 
2422.00, 
2423.00, 
2424.00, 
2425.00, 
2426.00, 
2427.00, 
2428.00, 
2429.00, 
2430.00, 
2431.00, 
2432.00, 
2433.00, 
2434.00, 
2435.00, 
2436.00, 
2437.00, 
2438.00, 
2439.00, 
2440.00, 
2441.00, 
2442.00, 
2443.00, 
2444.00, 
2445.00, 
2446.00, 
2447.00, 
2448.00, 
2449.00, 
2450.00, 
2451.00, 
2452.00, 
2453.00, 
2454.00, 
2455.00, 
2456.00, 
2457.00, 
2458.00, 
2459.00, 
2460.00, 
2461.00, 
2462.00, 
2463.00, 
2464.00, 
2465.00, 
2466.00, 
2467.00, 
2468.00, 
2469.00, 
2470.00, 
2471.00, 
2472.00, 
2473.00, 
2474.00, 
2475.00, 
2476.00, 
2477.00, 
2478.00, 
2479.00, 
2480.00, 
2481.00, 
2482.00, 
2483.00, 
2484.00, 
2485.00, 
2486.00, 
2487.00, 
2488.00, 
2489.00, 
2490.00, 
2491.00, 
2492.00, 
2493.00, 
2494.00, 
2495.00, 
2496.00, 
2497.00, 
2498.00, 
2499.00, 
2500.00, 
2501.00, 
2502.00, 
2503.00, 
2504.00, 
2505.00, 
2506.00, 
2507.00, 
2508.00, 
2509.00, 
2510.00, 
2511.00, 
2512.00, 
2513.00, 
2514.00, 
2515.00, 
2516.00, 
2517.00, 
2518.00, 
2519.00, 
2520.00, 
2521.00, 
2522.00, 
2523.00, 
2524.00, 
2525.00, 
2526.00, 
2527.00, 
2528.00, 
2529.00, 
2530.00, 
2531.00, 
2532.00, 
2533.00, 
2534.00, 
2535.00, 
2536.00, 
2537.00, 
2538.00, 
2539.00, 
2540.00, 
2541.00, 
2542.00, 
2543.00, 
2544.00, 
2545.00, 
2546.00, 
2547.00, 
2548.00, 
2549.00, 
2550.00, 
2551.00, 
2552.00, 
2553.00, 
2554.00, 
2555.00, 
2556.00, 
2557.00, 
2558.00, 
2559.00, 
2560.00, 
2561.00, 
2562.00, 
2563.00, 
2564.00, 
2565.00, 
2566.00, 
2567.00, 
2568.00, 
2569.00, 
2570.00, 
2571.00, 
2572.00, 
2573.00, 
2574.00, 
2575.00, 
2576.00, 
2577.00, 
2578.00, 
2579.00, 
2580.00, 
2581.00, 
2582.00, 
2583.00, 
2584.00, 
2585.00, 
2586.00, 
2587.00, 
2588.00, 
2589.00, 
2590.00, 
2591.00, 
2592.00, 
2593.00, 
2594.00, 
2595.00, 
2596.00, 
2597.00, 
2598.00, 
2599.00, 
2600.00, 
