"1aP2 - RawData"
"Wavelength nm.","T%"
200.00,0.002
201.00,0.001
202.00,0.002
203.00,0.002
204.00,-0.001
205.00,0.001
206.00,0.004
207.00,0.003
208.00,0.001
209.00,0.002
210.00,-0.001
211.00,0.005
212.00,-0.000
213.00,0.000
214.00,0.001
215.00,0.002
216.00,0.001
217.00,-0.001
218.00,0.001
219.00,-0.001
220.00,0.002
221.00,-0.001
222.00,0.002
223.00,0.000
224.00,0.001
225.00,0.001
226.00,-0.002
227.00,0.000
228.00,-0.001
229.00,0.001
230.00,-0.001
231.00,-0.001
232.00,-0.000
233.00,0.001
234.00,0.000
235.00,-0.000
236.00,-0.001
237.00,0.000
238.00,0.001
239.00,0.001
240.00,-0.000
241.00,-0.001
242.00,0.001
243.00,0.001
244.00,-0.001
245.00,-0.001
246.00,0.000
247.00,0.000
248.00,0.001
249.00,-0.000
250.00,0.002
251.00,0.001
252.00,-0.001
253.00,-0.001
254.00,0.000
255.00,0.000
256.00,0.001
257.00,0.001
258.00,-0.001
259.00,0.002
260.00,0.001
261.00,-0.002
262.00,0.000
263.00,-0.000
264.00,0.001
265.00,0.002
266.00,0.002
267.00,0.001
268.00,0.001
269.00,0.002
270.00,-0.002
271.00,-0.001
272.00,-0.000
273.00,0.000
274.00,-0.001
275.00,-0.001
276.00,0.000
277.00,-0.000
278.00,0.000
279.00,0.001
280.00,0.001
281.00,0.000
282.00,-0.000
283.00,-0.001
284.00,-0.000
285.00,-0.000
286.00,-0.001
287.00,0.000
288.00,0.000
289.00,-0.000
290.00,0.000
291.00,0.000
292.00,0.002
293.00,0.001
294.00,-0.000
295.00,0.000
296.00,-0.000
297.00,-0.000
298.00,0.001
299.00,0.003
300.00,0.003
301.00,0.005
302.00,0.007
303.00,0.010
304.00,0.017
305.00,0.027
306.00,0.039
307.00,0.060
308.00,0.093
309.00,0.141
310.00,0.195
311.00,0.264
312.00,0.354
313.00,0.475
314.00,0.626
315.00,0.794
316.00,1.015
317.00,1.256
318.00,1.536
319.00,1.886
320.00,2.282
321.00,2.710
322.00,3.160
323.00,3.689
324.00,4.239
325.00,4.798
326.00,5.397
327.00,6.015
328.00,6.691
329.00,7.323
330.00,8.051
331.00,8.695
332.00,9.418
333.00,10.138
334.00,10.794
335.00,11.495
336.00,12.183
337.00,12.923
338.00,13.532
339.00,14.115
340.00,14.750
341.00,15.348
342.00,15.899
343.00,16.428
344.00,16.988
345.00,17.409
346.00,17.881
347.00,18.270
348.00,18.703
349.00,18.955
350.00,19.365
351.00,19.708
352.00,19.969
353.00,20.249
354.00,20.510
355.00,20.726
356.00,21.004
357.00,21.140
358.00,21.325
359.00,21.548
360.00,21.667
361.00,21.778
362.00,21.816
363.00,22.043
364.00,22.108
365.00,22.228
366.00,22.275
367.00,22.297
368.00,22.333
369.00,22.364
370.00,22.372
371.00,22.428
372.00,22.338
373.00,22.369
374.00,22.333
375.00,22.298
376.00,22.215
377.00,22.186
378.00,22.101
379.00,22.026
380.00,21.981
381.00,21.934
382.00,21.917
383.00,21.922
384.00,21.918
385.00,21.938
386.00,21.927
387.00,21.985
388.00,22.006
389.00,21.981
390.00,21.996
391.00,22.010
392.00,22.037
393.00,22.032
394.00,21.987
395.00,22.032
396.00,22.003
397.00,22.045
398.00,21.999
399.00,21.984
400.00,21.995
401.00,21.957
402.00,22.016
403.00,21.999
404.00,22.000
405.00,21.987
406.00,22.009
407.00,21.919
408.00,21.909
409.00,21.868
410.00,21.800
411.00,21.847
412.00,21.779
413.00,21.790
414.00,21.773
415.00,21.807
416.00,21.828
417.00,21.809
418.00,21.913
419.00,21.876
420.00,21.906
421.00,21.879
422.00,21.938
423.00,22.005
424.00,21.970
425.00,22.014
426.00,22.047
427.00,22.123
428.00,22.141
429.00,22.147
430.00,22.215
431.00,22.282
432.00,22.314
433.00,22.375
434.00,22.420
435.00,22.475
436.00,22.553
437.00,22.609
438.00,22.695
439.00,22.728
440.00,22.835
441.00,22.859
442.00,22.919
443.00,22.998
444.00,23.157
445.00,23.242
446.00,23.339
447.00,23.436
448.00,23.537
449.00,23.645
450.00,23.780
451.00,23.876
452.00,23.974
453.00,24.125
454.00,24.183
455.00,24.278
456.00,24.420
457.00,24.532
458.00,24.601
459.00,24.760
460.00,24.888
461.00,25.011
462.00,25.138
463.00,25.270
464.00,25.431
465.00,25.543
466.00,25.674
467.00,25.806
468.00,25.928
469.00,26.045
470.00,26.136
471.00,26.228
472.00,26.380
473.00,26.465
474.00,26.595
475.00,26.723
476.00,26.829
477.00,26.987
478.00,27.096
479.00,27.275
480.00,27.424
481.00,27.552
482.00,27.702
483.00,27.843
484.00,28.025
485.00,28.181
486.00,28.320
487.00,28.484
488.00,28.637
489.00,28.698
490.00,28.924
491.00,29.078
492.00,29.245
493.00,29.443
494.00,29.558
495.00,29.640
496.00,29.762
497.00,29.913
498.00,30.067
499.00,30.181
500.00,30.363
501.00,30.425
502.00,30.532
503.00,30.734
504.00,30.745
505.00,30.932
506.00,31.065
507.00,31.138
508.00,31.237
509.00,31.405
510.00,31.541
511.00,31.665
512.00,31.798
513.00,31.999
514.00,32.106
515.00,32.190
516.00,32.326
517.00,32.430
518.00,32.533
519.00,32.668
520.00,32.715
521.00,32.796
522.00,32.907
523.00,33.002
524.00,33.081
525.00,33.195
526.00,33.284
527.00,33.405
528.00,33.435
529.00,33.621
530.00,33.715
531.00,33.876
532.00,33.941
533.00,34.084
534.00,34.136
535.00,34.241
536.00,34.308
537.00,34.379
538.00,34.487
539.00,34.532
540.00,34.593
541.00,34.704
542.00,34.793
543.00,34.719
544.00,34.829
545.00,34.968
546.00,34.983
547.00,35.099
548.00,35.138
549.00,35.228
550.00,35.295
551.00,35.396
552.00,35.498
553.00,35.484
554.00,35.609
555.00,35.650
556.00,35.764
557.00,35.796
558.00,35.808
559.00,35.900
560.00,35.931
561.00,36.019
562.00,36.063
563.00,36.080
564.00,36.131
565.00,36.193
566.00,36.216
567.00,36.268
568.00,36.315
569.00,36.301
570.00,36.315
571.00,36.397
572.00,36.426
573.00,36.408
574.00,36.425
575.00,36.435
576.00,36.536
577.00,36.627
578.00,36.690
579.00,36.781
580.00,36.826
581.00,36.922
582.00,37.012
583.00,37.042
584.00,37.139
585.00,37.193
586.00,37.249
587.00,37.304
588.00,37.298
589.00,37.240
590.00,37.384
591.00,37.423
592.00,37.394
593.00,37.447
594.00,37.491
595.00,37.550
596.00,37.628
597.00,37.724
598.00,37.740
599.00,37.828
600.00,37.957
601.00,37.928
602.00,37.882
603.00,37.960
604.00,37.977
605.00,38.003
606.00,38.074
607.00,38.127
608.00,38.196
609.00,38.205
610.00,38.377
611.00,38.292
612.00,38.290
613.00,38.369
614.00,38.427
615.00,38.448
616.00,38.624
617.00,38.602
618.00,38.646
619.00,38.758
620.00,38.736
621.00,38.814
622.00,38.931
623.00,38.925
624.00,39.004
625.00,39.077
626.00,39.091
627.00,39.146
628.00,39.144
629.00,39.262
630.00,39.156
631.00,39.336
632.00,39.453
633.00,39.617
634.00,39.688
635.00,39.808
636.00,39.878
637.00,39.891
638.00,39.975
639.00,40.047
640.00,40.213
641.00,40.231
642.00,40.233
643.00,40.346
644.00,40.418
645.00,40.501
646.00,40.662
647.00,40.686
648.00,40.730
649.00,40.877
650.00,40.865
651.00,40.905
652.00,41.019
653.00,41.231
654.00,41.054
655.00,41.347
656.00,41.470
657.00,41.744
658.00,41.784
659.00,41.740
660.00,41.728
661.00,41.803
662.00,41.962
663.00,42.034
664.00,42.189
665.00,42.484
666.00,42.278
667.00,42.549
668.00,42.515
669.00,42.678
670.00,42.958
671.00,42.895
672.00,42.972
673.00,43.111
674.00,43.257
675.00,43.210
676.00,43.494
677.00,43.527
678.00,43.480
679.00,43.740
680.00,43.866
681.00,43.997
682.00,44.068
683.00,44.082
684.00,44.242
685.00,44.388
686.00,44.277
687.00,44.428
688.00,44.628
689.00,44.548
690.00,44.784
691.00,45.000
692.00,44.862
693.00,44.963
694.00,45.144
695.00,45.264
696.00,45.376
697.00,45.452
698.00,45.450
699.00,45.589
700.00,45.789
701.00,45.865
702.00,46.044
703.00,46.151
704.00,46.193
705.00,46.077
706.00,46.180
707.00,46.407
708.00,46.131
709.00,46.527
710.00,46.863
711.00,46.561
712.00,46.646
713.00,46.800
714.00,46.843
715.00,46.990
716.00,46.998
717.00,47.007
718.00,47.294
719.00,47.282
720.00,47.435
721.00,51.554
722.00,51.559
723.00,51.578
724.00,51.664
725.00,51.783
726.00,51.702
727.00,51.735
728.00,51.898
729.00,51.824
730.00,51.961
731.00,51.957
732.00,51.991
733.00,52.083
734.00,52.139
735.00,52.133
736.00,52.120
737.00,52.221
738.00,52.314
739.00,52.251
740.00,52.288
741.00,52.407
742.00,52.375
743.00,52.370
744.00,52.462
745.00,52.492
746.00,52.546
747.00,52.463
748.00,52.542
749.00,52.553
750.00,52.586
751.00,52.517
752.00,52.594
753.00,52.601
754.00,52.584
755.00,52.616
756.00,52.581
757.00,52.678
758.00,52.777
759.00,52.713
760.00,52.733
761.00,52.740
762.00,52.796
763.00,52.818
764.00,52.789
765.00,52.777
766.00,52.912
767.00,52.965
768.00,52.877
769.00,52.812
770.00,52.959
771.00,52.957
772.00,53.004
773.00,52.864
774.00,52.988
775.00,53.106
776.00,52.986
777.00,53.117
778.00,53.066
779.00,53.120
780.00,53.040
781.00,53.097
782.00,53.114
783.00,53.003
784.00,53.073
785.00,53.012
786.00,53.170
787.00,53.040
788.00,53.017
789.00,53.046
790.00,53.119
791.00,53.196
792.00,53.015
793.00,53.162
794.00,53.048
795.00,52.969
796.00,53.015
797.00,52.982
798.00,53.047
799.00,52.976
800.00,53.009
801.00,52.997
802.00,53.045
803.00,52.995
804.00,52.979
805.00,53.101
806.00,52.925
807.00,52.947
808.00,52.988
809.00,52.921
810.00,53.007
811.00,52.857
812.00,52.928
813.00,52.952
814.00,52.954
815.00,52.885
816.00,52.916
817.00,52.887
818.00,52.844
819.00,52.869
820.00,52.788
821.00,52.917
822.00,52.866
823.00,52.772
824.00,52.833
825.00,52.788
826.00,52.755
827.00,52.848
828.00,52.798
829.00,52.644
830.00,52.884
831.00,55.415
832.00,55.399
833.00,55.320
834.00,55.388
835.00,55.354
836.00,55.329
837.00,55.302
838.00,55.312
839.00,55.294
840.00,55.245
841.00,55.249
842.00,55.252
843.00,55.262
844.00,55.218
845.00,55.243
846.00,55.223
847.00,55.166
848.00,55.215
849.00,55.131
850.00,55.124
851.00,55.100
852.00,55.105
853.00,55.067
854.00,55.071
855.00,55.008
856.00,54.982
857.00,54.976
858.00,54.927
859.00,54.933
860.00,54.910
861.00,54.924
862.00,54.951
863.00,54.905
864.00,54.861
865.00,54.907
866.00,54.892
867.00,54.854
868.00,54.877
869.00,54.856
870.00,54.878
871.00,54.830
872.00,54.836
873.00,54.816
874.00,54.822
875.00,54.784
876.00,54.824
877.00,54.779
878.00,54.767
879.00,54.776
880.00,54.750
881.00,54.743
882.00,54.809
883.00,54.751
884.00,54.700
885.00,54.687
886.00,54.731
887.00,54.696
888.00,54.650
889.00,54.656
890.00,54.654
891.00,54.612
892.00,54.614
893.00,54.569
894.00,54.573
895.00,54.543
896.00,54.529
897.00,54.543
898.00,54.482
899.00,54.487
900.00,54.465
901.00,54.481
902.00,54.491
903.00,54.440
904.00,54.426
905.00,54.411
906.00,54.410
907.00,54.374
908.00,54.351
909.00,54.350
910.00,54.305
911.00,54.307
912.00,54.315
913.00,54.295
914.00,54.276
915.00,54.274
916.00,54.203
917.00,54.246
918.00,54.218
919.00,54.175
920.00,54.143
921.00,54.153
922.00,54.166
923.00,54.103
924.00,54.085
925.00,54.115
926.00,54.057
927.00,54.026
928.00,54.020
929.00,54.038
930.00,53.969
931.00,53.987
932.00,54.003
933.00,53.971
934.00,53.960
935.00,53.919
936.00,53.896
937.00,53.904
938.00,53.886
939.00,53.892
940.00,53.844
941.00,53.839
942.00,53.842
943.00,53.788
944.00,53.769
945.00,53.798
946.00,53.755
947.00,53.664
948.00,53.766
949.00,53.699
950.00,53.685
951.00,53.654
952.00,53.647
953.00,53.597
954.00,53.572
955.00,53.541
956.00,53.524
957.00,53.522
958.00,53.533
959.00,53.465
960.00,53.471
961.00,53.473
962.00,53.448
963.00,53.461
964.00,53.423
965.00,53.439
966.00,53.400
967.00,53.403
968.00,53.392
969.00,53.425
970.00,53.358
971.00,53.381
972.00,53.365
973.00,53.381
974.00,53.400
975.00,53.349
976.00,53.370
977.00,53.454
978.00,53.484
979.00,53.380
980.00,53.393
981.00,53.399
982.00,53.349
983.00,53.388
984.00,53.366
985.00,53.384
986.00,53.383
987.00,53.355
988.00,53.343
989.00,53.320
990.00,53.328
991.00,53.311
992.00,53.315
993.00,53.300
994.00,53.276
995.00,53.269
996.00,53.256
997.00,53.256
998.00,53.225
999.00,53.241
1000.00,53.196
1001.00,53.189
1002.00,53.204
1003.00,53.183
1004.00,53.173
1005.00,53.153
1006.00,53.178
1007.00,53.148
1008.00,53.135
1009.00,53.120
1010.00,53.105
1011.00,53.097
1012.00,53.067
1013.00,53.061
1014.00,53.039
1015.00,53.051
1016.00,53.013
1017.00,53.006
1018.00,53.004
1019.00,52.997
1020.00,52.979
1021.00,52.993
1022.00,52.963
1023.00,52.922
1024.00,52.946
1025.00,52.909
1026.00,52.901
1027.00,52.893
1028.00,52.886
1029.00,52.875
1030.00,52.840
1031.00,52.848
1032.00,52.824
1033.00,52.814
1034.00,52.793
1035.00,52.756
1036.00,52.722
1037.00,52.711
1038.00,52.695
1039.00,52.669
1040.00,52.665
1041.00,52.634
1042.00,52.627
1043.00,52.598
1044.00,52.630
1045.00,52.612
1046.00,52.605
1047.00,52.625
1048.00,52.631
1049.00,52.652
1050.00,52.639
1051.00,52.687
1052.00,52.704
1053.00,52.701
1054.00,52.717
1055.00,52.717
1056.00,52.740
1057.00,52.743
1058.00,52.733
1059.00,52.730
1060.00,52.746
1061.00,52.714
1062.00,52.711
1063.00,52.706
1064.00,52.700
1065.00,52.678
1066.00,52.674
1067.00,52.673
1068.00,52.697
1069.00,52.646
1070.00,52.637
1071.00,52.638
1072.00,52.645
1073.00,52.637
1074.00,52.631
1075.00,52.618
1076.00,52.623
1077.00,52.612
1078.00,52.590
1079.00,52.605
1080.00,52.602
1081.00,52.590
1082.00,52.604
1083.00,52.572
1084.00,52.573
1085.00,52.601
1086.00,52.561
1087.00,52.569
1088.00,52.546
1089.00,52.548
1090.00,52.552
1091.00,52.549
1092.00,52.543
1093.00,52.532
1094.00,52.518
1095.00,52.522
1096.00,52.509
1097.00,52.488
1098.00,52.481
1099.00,52.460
1100.00,52.440
1101.00,52.444
1102.00,52.410
1103.00,52.422
1104.00,52.407
1105.00,52.402
1106.00,52.393
1107.00,52.397
1108.00,52.381
1109.00,52.382
1110.00,52.368
1111.00,52.353
1112.00,52.351
1113.00,52.351
1114.00,52.336
1115.00,52.362
1116.00,52.336
1117.00,52.325
1118.00,52.323
1119.00,52.317
1120.00,52.318
1121.00,52.309
1122.00,52.295
1123.00,52.287
1124.00,52.273
1125.00,52.288
1126.00,52.278
1127.00,52.269
1128.00,52.245
1129.00,52.245
1130.00,52.219
1131.00,52.232
1132.00,52.203
1133.00,52.211
1134.00,52.222
1135.00,52.200
1136.00,52.210
1137.00,52.222
1138.00,52.214
1139.00,52.224
1140.00,52.217
1141.00,52.190
1142.00,52.172
1143.00,52.194
1144.00,52.173
1145.00,52.187
1146.00,52.192
1147.00,52.178
1148.00,52.175
1149.00,52.167
1150.00,52.174
1151.00,52.183
1152.00,52.176
1153.00,52.179
1154.00,52.163
1155.00,52.173
1156.00,52.163
1157.00,52.162
1158.00,52.168
1159.00,52.161
1160.00,52.162
1161.00,52.186
1162.00,52.186
1163.00,52.162
1164.00,52.167
1165.00,52.144
1166.00,52.152
1167.00,52.142
1168.00,52.151
1169.00,52.154
1170.00,52.153
1171.00,52.142
1172.00,52.141
1173.00,52.158
1174.00,52.162
1175.00,52.157
1176.00,52.160
1177.00,52.147
1178.00,52.156
1179.00,52.162
1180.00,52.164
1181.00,52.185
1182.00,52.159
1183.00,52.163
1184.00,52.141
1185.00,52.144
1186.00,52.140
1187.00,52.137
1188.00,52.115
1189.00,52.123
1190.00,52.108
1191.00,52.119
1192.00,52.153
1193.00,52.116
1194.00,52.134
1195.00,52.124
1196.00,52.150
1197.00,52.165
1198.00,52.140
1199.00,52.145
1200.00,52.150
1201.00,52.159
1202.00,52.152
1203.00,52.134
1204.00,52.148
1205.00,52.149
1206.00,52.154
1207.00,52.148
1208.00,52.134
1209.00,52.139
1210.00,52.141
1211.00,52.142
1212.00,52.151
1213.00,52.119
1214.00,52.162
1215.00,52.135
1216.00,52.152
1217.00,52.162
1218.00,52.141
1219.00,52.146
1220.00,52.147
1221.00,52.137
1222.00,52.143
1223.00,52.184
1224.00,52.157
1225.00,52.146
1226.00,52.150
1227.00,52.144
1228.00,52.177
1229.00,52.168
1230.00,52.208
1231.00,52.183
1232.00,52.197
1233.00,52.211
1234.00,52.194
1235.00,52.201
1236.00,52.205
1237.00,52.192
1238.00,52.179
1239.00,52.193
1240.00,52.172
1241.00,52.178
1242.00,52.177
1243.00,52.188
1244.00,52.180
1245.00,52.195
1246.00,52.212
1247.00,52.217
1248.00,52.216
1249.00,52.228
1250.00,52.238
1251.00,52.192
1252.00,52.207
1253.00,52.197
1254.00,52.210
1255.00,52.206
1256.00,52.209
1257.00,52.192
1258.00,52.251
1259.00,52.235
1260.00,52.259
1261.00,52.281
1262.00,52.257
1263.00,52.273
1264.00,52.269
1265.00,52.284
1266.00,52.281
1267.00,52.288
1268.00,52.286
1269.00,52.301
1270.00,52.318
1271.00,52.319
1272.00,52.336
1273.00,52.347
1274.00,52.357
1275.00,52.356
1276.00,52.357
1277.00,52.365
1278.00,52.351
1279.00,52.367
1280.00,52.366
1281.00,52.375
1282.00,52.376
1283.00,52.378
1284.00,52.376
1285.00,52.377
1286.00,52.383
1287.00,52.386
1288.00,52.404
1289.00,52.392
1290.00,52.416
1291.00,52.417
1292.00,52.422
1293.00,52.424
1294.00,52.445
1295.00,52.454
1296.00,52.448
1297.00,52.454
1298.00,52.483
1299.00,52.447
1300.00,52.467
1301.00,52.458
1302.00,52.483
1303.00,52.472
1304.00,52.464
1305.00,52.505
1306.00,52.492
1307.00,52.510
1308.00,52.507
1309.00,52.497
1310.00,52.507
1311.00,52.492
1312.00,52.501
1313.00,52.501
1314.00,52.514
1315.00,52.543
1316.00,52.539
1317.00,52.567
1318.00,52.574
1319.00,52.581
1320.00,52.562
1321.00,52.762
1322.00,52.750
1323.00,52.732
1324.00,52.723
1325.00,52.700
1326.00,52.731
1327.00,52.715
1328.00,52.718
1329.00,52.705
1330.00,52.702
1331.00,52.696
1332.00,52.692
1333.00,52.696
1334.00,52.729
1335.00,52.765
1336.00,52.781
1337.00,52.798
1338.00,52.861
1339.00,52.887
1340.00,52.943
1341.00,53.022
1342.00,53.094
1343.00,53.170
1344.00,53.168
1345.00,53.243
1346.00,53.280
1347.00,53.280
1348.00,53.315
1349.00,53.346
1350.00,53.355
1351.00,53.380
1352.00,53.391
1353.00,53.396
1354.00,53.388
1355.00,53.389
1356.00,53.418
1357.00,53.421
1358.00,53.401
1359.00,53.401
1360.00,53.452
1361.00,53.503
1362.00,53.393
1363.00,53.467
1364.00,53.496
1365.00,53.442
1366.00,53.453
1367.00,53.452
1368.00,53.404
1369.00,53.439
1370.00,53.426
1371.00,53.414
1372.00,53.375
1373.00,53.379
1374.00,53.425
1375.00,53.410
1376.00,53.407
1377.00,53.371
1378.00,53.478
1379.00,53.462
1380.00,53.430
1381.00,53.484
1382.00,53.452
1383.00,53.441
1384.00,53.374
1385.00,53.355
1386.00,53.419
1387.00,53.426
1388.00,53.377
1389.00,53.356
1390.00,53.411
1391.00,53.435
1392.00,53.394
1393.00,53.425
1394.00,53.429
1395.00,53.392
1396.00,53.358
1397.00,53.360
1398.00,53.400
1399.00,53.422
1400.00,53.429
1401.00,53.375
1402.00,53.435
1403.00,53.429
1404.00,53.433
1405.00,53.433
1406.00,53.481
1407.00,53.458
1408.00,53.487
1409.00,53.465
1410.00,53.496
1411.00,53.458
1412.00,53.541
1413.00,53.503
1414.00,53.477
1415.00,53.498
1416.00,53.537
1417.00,53.545
1418.00,53.547
1419.00,53.602
1420.00,53.559
1421.00,53.590
1422.00,53.588
1423.00,53.605
1424.00,53.595
1425.00,53.622
1426.00,53.617
1427.00,53.649
1428.00,53.641
1429.00,53.666
1430.00,53.650
1431.00,53.683
1432.00,53.709
1433.00,53.723
1434.00,53.712
1435.00,53.753
1436.00,53.783
1437.00,53.760
1438.00,53.776
1439.00,53.806
1440.00,53.816
1441.00,53.812
1442.00,53.834
1443.00,53.867
1444.00,53.901
1445.00,53.877
1446.00,53.909
1447.00,53.924
1448.00,53.964
1449.00,53.952
1450.00,53.969
1451.00,53.974
1452.00,54.002
1453.00,54.011
1454.00,54.024
1455.00,54.048
1456.00,54.050
1457.00,54.042
1458.00,54.091
1459.00,54.093
1460.00,54.114
1461.00,54.089
1462.00,54.132
1463.00,54.129
1464.00,54.172
1465.00,54.195
1466.00,54.187
1467.00,54.216
1468.00,54.265
1469.00,54.237
1470.00,54.268
1471.00,54.279
1472.00,54.289
1473.00,54.313
1474.00,54.312
1475.00,54.308
1476.00,54.304
1477.00,54.316
1478.00,54.336
1479.00,54.375
1480.00,54.375
1481.00,54.369
1482.00,54.401
1483.00,54.404
1484.00,54.418
1485.00,54.415
1486.00,54.436
1487.00,54.449
1488.00,54.475
1489.00,54.467
1490.00,54.487
1491.00,54.483
1492.00,54.503
1493.00,54.487
1494.00,54.542
1495.00,54.509
1496.00,54.540
1497.00,54.541
1498.00,54.546
1499.00,54.554
1500.00,54.572
1501.00, 
1502.00, 
1503.00, 
1504.00, 
1505.00, 
1506.00, 
1507.00, 
1508.00, 
1509.00, 
1510.00, 
1511.00, 
1512.00, 
1513.00, 
1514.00, 
1515.00, 
1516.00, 
1517.00, 
1518.00, 
1519.00, 
1520.00, 
1521.00, 
1522.00, 
1523.00, 
1524.00, 
1525.00, 
1526.00, 
1527.00, 
1528.00, 
1529.00, 
1530.00, 
1531.00, 
1532.00, 
1533.00, 
1534.00, 
1535.00, 
1536.00, 
1537.00, 
1538.00, 
1539.00, 
1540.00, 
1541.00, 
1542.00, 
1543.00, 
1544.00, 
1545.00, 
1546.00, 
1547.00, 
1548.00, 
1549.00, 
1550.00, 
1551.00, 
1552.00, 
1553.00, 
1554.00, 
1555.00, 
1556.00, 
1557.00, 
1558.00, 
1559.00, 
1560.00, 
1561.00, 
1562.00, 
1563.00, 
1564.00, 
1565.00, 
1566.00, 
1567.00, 
1568.00, 
1569.00, 
1570.00, 
1571.00, 
1572.00, 
1573.00, 
1574.00, 
1575.00, 
1576.00, 
1577.00, 
1578.00, 
1579.00, 
1580.00, 
1581.00, 
1582.00, 
1583.00, 
1584.00, 
1585.00, 
1586.00, 
1587.00, 
1588.00, 
1589.00, 
1590.00, 
1591.00, 
1592.00, 
1593.00, 
1594.00, 
1595.00, 
1596.00, 
1597.00, 
1598.00, 
1599.00, 
1600.00, 
1601.00, 
1602.00, 
1603.00, 
1604.00, 
1605.00, 
1606.00, 
1607.00, 
1608.00, 
1609.00, 
1610.00, 
1611.00, 
1612.00, 
1613.00, 
1614.00, 
1615.00, 
1616.00, 
1617.00, 
1618.00, 
1619.00, 
1620.00, 
1621.00, 
1622.00, 
1623.00, 
1624.00, 
1625.00, 
1626.00, 
1627.00, 
1628.00, 
1629.00, 
1630.00, 
1631.00, 
1632.00, 
1633.00, 
1634.00, 
1635.00, 
1636.00, 
1637.00, 
1638.00, 
1639.00, 
1640.00, 
1641.00, 
1642.00, 
1643.00, 
1644.00, 
1645.00, 
1646.00, 
1647.00, 
1648.00, 
1649.00, 
1650.00, 
1651.00, 
1652.00, 
1653.00, 
1654.00, 
1655.00, 
1656.00, 
1657.00, 
1658.00, 
1659.00, 
1660.00, 
1661.00, 
1662.00, 
1663.00, 
1664.00, 
1665.00, 
1666.00, 
1667.00, 
1668.00, 
1669.00, 
1670.00, 
1671.00, 
1672.00, 
1673.00, 
1674.00, 
1675.00, 
1676.00, 
1677.00, 
1678.00, 
1679.00, 
1680.00, 
1681.00, 
1682.00, 
1683.00, 
1684.00, 
1685.00, 
1686.00, 
1687.00, 
1688.00, 
1689.00, 
1690.00, 
1691.00, 
1692.00, 
1693.00, 
1694.00, 
1695.00, 
1696.00, 
1697.00, 
1698.00, 
1699.00, 
1700.00, 
1701.00, 
1702.00, 
1703.00, 
1704.00, 
1705.00, 
1706.00, 
1707.00, 
1708.00, 
1709.00, 
1710.00, 
1711.00, 
1712.00, 
1713.00, 
1714.00, 
1715.00, 
1716.00, 
1717.00, 
1718.00, 
1719.00, 
1720.00, 
1721.00, 
1722.00, 
1723.00, 
1724.00, 
1725.00, 
1726.00, 
1727.00, 
1728.00, 
1729.00, 
1730.00, 
1731.00, 
1732.00, 
1733.00, 
1734.00, 
1735.00, 
1736.00, 
1737.00, 
1738.00, 
1739.00, 
1740.00, 
1741.00, 
1742.00, 
1743.00, 
1744.00, 
1745.00, 
1746.00, 
1747.00, 
1748.00, 
1749.00, 
1750.00, 
1751.00, 
1752.00, 
1753.00, 
1754.00, 
1755.00, 
1756.00, 
1757.00, 
1758.00, 
1759.00, 
1760.00, 
1761.00, 
1762.00, 
1763.00, 
1764.00, 
1765.00, 
1766.00, 
1767.00, 
1768.00, 
1769.00, 
1770.00, 
1771.00, 
1772.00, 
1773.00, 
1774.00, 
1775.00, 
1776.00, 
1777.00, 
1778.00, 
1779.00, 
1780.00, 
1781.00, 
1782.00, 
1783.00, 
1784.00, 
1785.00, 
1786.00, 
1787.00, 
1788.00, 
1789.00, 
1790.00, 
1791.00, 
1792.00, 
1793.00, 
1794.00, 
1795.00, 
1796.00, 
1797.00, 
1798.00, 
1799.00, 
1800.00, 
1801.00, 
1802.00, 
1803.00, 
1804.00, 
1805.00, 
1806.00, 
1807.00, 
1808.00, 
1809.00, 
1810.00, 
1811.00, 
1812.00, 
1813.00, 
1814.00, 
1815.00, 
1816.00, 
1817.00, 
1818.00, 
1819.00, 
1820.00, 
1821.00, 
1822.00, 
1823.00, 
1824.00, 
1825.00, 
1826.00, 
1827.00, 
1828.00, 
1829.00, 
1830.00, 
1831.00, 
1832.00, 
1833.00, 
1834.00, 
1835.00, 
1836.00, 
1837.00, 
1838.00, 
1839.00, 
1840.00, 
1841.00, 
1842.00, 
1843.00, 
1844.00, 
1845.00, 
1846.00, 
1847.00, 
1848.00, 
1849.00, 
1850.00, 
1851.00, 
1852.00, 
1853.00, 
1854.00, 
1855.00, 
1856.00, 
1857.00, 
1858.00, 
1859.00, 
1860.00, 
1861.00, 
1862.00, 
1863.00, 
1864.00, 
1865.00, 
1866.00, 
1867.00, 
1868.00, 
1869.00, 
1870.00, 
1871.00, 
1872.00, 
1873.00, 
1874.00, 
1875.00, 
1876.00, 
1877.00, 
1878.00, 
1879.00, 
1880.00, 
1881.00, 
1882.00, 
1883.00, 
1884.00, 
1885.00, 
1886.00, 
1887.00, 
1888.00, 
1889.00, 
1890.00, 
1891.00, 
1892.00, 
1893.00, 
1894.00, 
1895.00, 
1896.00, 
1897.00, 
1898.00, 
1899.00, 
1900.00, 
1901.00, 
1902.00, 
1903.00, 
1904.00, 
1905.00, 
1906.00, 
1907.00, 
1908.00, 
1909.00, 
1910.00, 
1911.00, 
1912.00, 
1913.00, 
1914.00, 
1915.00, 
1916.00, 
1917.00, 
1918.00, 
1919.00, 
1920.00, 
1921.00, 
1922.00, 
1923.00, 
1924.00, 
1925.00, 
1926.00, 
1927.00, 
1928.00, 
1929.00, 
1930.00, 
1931.00, 
1932.00, 
1933.00, 
1934.00, 
1935.00, 
1936.00, 
1937.00, 
1938.00, 
1939.00, 
1940.00, 
1941.00, 
1942.00, 
1943.00, 
1944.00, 
1945.00, 
1946.00, 
1947.00, 
1948.00, 
1949.00, 
1950.00, 
1951.00, 
1952.00, 
1953.00, 
1954.00, 
1955.00, 
1956.00, 
1957.00, 
1958.00, 
1959.00, 
1960.00, 
1961.00, 
1962.00, 
1963.00, 
1964.00, 
1965.00, 
1966.00, 
1967.00, 
1968.00, 
1969.00, 
1970.00, 
1971.00, 
1972.00, 
1973.00, 
1974.00, 
1975.00, 
1976.00, 
1977.00, 
1978.00, 
1979.00, 
1980.00, 
1981.00, 
1982.00, 
1983.00, 
1984.00, 
1985.00, 
1986.00, 
1987.00, 
1988.00, 
1989.00, 
1990.00, 
1991.00, 
1992.00, 
1993.00, 
1994.00, 
1995.00, 
1996.00, 
1997.00, 
1998.00, 
1999.00, 
2000.00, 
2001.00, 
2002.00, 
2003.00, 
2004.00, 
2005.00, 
2006.00, 
2007.00, 
2008.00, 
2009.00, 
2010.00, 
2011.00, 
2012.00, 
2013.00, 
2014.00, 
2015.00, 
2016.00, 
2017.00, 
2018.00, 
2019.00, 
2020.00, 
2021.00, 
2022.00, 
2023.00, 
2024.00, 
2025.00, 
2026.00, 
2027.00, 
2028.00, 
2029.00, 
2030.00, 
2031.00, 
2032.00, 
2033.00, 
2034.00, 
2035.00, 
2036.00, 
2037.00, 
2038.00, 
2039.00, 
2040.00, 
2041.00, 
2042.00, 
2043.00, 
2044.00, 
2045.00, 
2046.00, 
2047.00, 
2048.00, 
2049.00, 
2050.00, 
2051.00, 
2052.00, 
2053.00, 
2054.00, 
2055.00, 
2056.00, 
2057.00, 
2058.00, 
2059.00, 
2060.00, 
2061.00, 
2062.00, 
2063.00, 
2064.00, 
2065.00, 
2066.00, 
2067.00, 
2068.00, 
2069.00, 
2070.00, 
2071.00, 
2072.00, 
2073.00, 
2074.00, 
2075.00, 
2076.00, 
2077.00, 
2078.00, 
2079.00, 
2080.00, 
2081.00, 
2082.00, 
2083.00, 
2084.00, 
2085.00, 
2086.00, 
2087.00, 
2088.00, 
2089.00, 
2090.00, 
2091.00, 
2092.00, 
2093.00, 
2094.00, 
2095.00, 
2096.00, 
2097.00, 
2098.00, 
2099.00, 
2100.00, 
2101.00, 
2102.00, 
2103.00, 
2104.00, 
2105.00, 
2106.00, 
2107.00, 
2108.00, 
2109.00, 
2110.00, 
2111.00, 
2112.00, 
2113.00, 
2114.00, 
2115.00, 
2116.00, 
2117.00, 
2118.00, 
2119.00, 
2120.00, 
2121.00, 
2122.00, 
2123.00, 
2124.00, 
2125.00, 
2126.00, 
2127.00, 
2128.00, 
2129.00, 
2130.00, 
2131.00, 
2132.00, 
2133.00, 
2134.00, 
2135.00, 
2136.00, 
2137.00, 
2138.00, 
2139.00, 
2140.00, 
2141.00, 
2142.00, 
2143.00, 
2144.00, 
2145.00, 
2146.00, 
2147.00, 
2148.00, 
2149.00, 
2150.00, 
2151.00, 
2152.00, 
2153.00, 
2154.00, 
2155.00, 
2156.00, 
2157.00, 
2158.00, 
2159.00, 
2160.00, 
2161.00, 
2162.00, 
2163.00, 
2164.00, 
2165.00, 
2166.00, 
2167.00, 
2168.00, 
2169.00, 
2170.00, 
2171.00, 
2172.00, 
2173.00, 
2174.00, 
2175.00, 
2176.00, 
2177.00, 
2178.00, 
2179.00, 
2180.00, 
2181.00, 
2182.00, 
2183.00, 
2184.00, 
2185.00, 
2186.00, 
2187.00, 
2188.00, 
2189.00, 
2190.00, 
2191.00, 
2192.00, 
2193.00, 
2194.00, 
2195.00, 
2196.00, 
2197.00, 
2198.00, 
2199.00, 
2200.00, 
2201.00, 
2202.00, 
2203.00, 
2204.00, 
2205.00, 
2206.00, 
2207.00, 
2208.00, 
2209.00, 
2210.00, 
2211.00, 
2212.00, 
2213.00, 
2214.00, 
2215.00, 
2216.00, 
2217.00, 
2218.00, 
2219.00, 
2220.00, 
2221.00, 
2222.00, 
2223.00, 
2224.00, 
2225.00, 
2226.00, 
2227.00, 
2228.00, 
2229.00, 
2230.00, 
2231.00, 
2232.00, 
2233.00, 
2234.00, 
2235.00, 
2236.00, 
2237.00, 
2238.00, 
2239.00, 
2240.00, 
2241.00, 
2242.00, 
2243.00, 
2244.00, 
2245.00, 
2246.00, 
2247.00, 
2248.00, 
2249.00, 
2250.00, 
2251.00, 
2252.00, 
2253.00, 
2254.00, 
2255.00, 
2256.00, 
2257.00, 
2258.00, 
2259.00, 
2260.00, 
2261.00, 
2262.00, 
2263.00, 
2264.00, 
2265.00, 
2266.00, 
2267.00, 
2268.00, 
2269.00, 
2270.00, 
2271.00, 
2272.00, 
2273.00, 
2274.00, 
2275.00, 
2276.00, 
2277.00, 
2278.00, 
2279.00, 
2280.00, 
2281.00, 
2282.00, 
2283.00, 
2284.00, 
2285.00, 
2286.00, 
2287.00, 
2288.00, 
2289.00, 
2290.00, 
2291.00, 
2292.00, 
2293.00, 
2294.00, 
2295.00, 
2296.00, 
2297.00, 
2298.00, 
2299.00, 
2300.00, 
2301.00, 
2302.00, 
2303.00, 
2304.00, 
2305.00, 
2306.00, 
2307.00, 
2308.00, 
2309.00, 
2310.00, 
2311.00, 
2312.00, 
2313.00, 
2314.00, 
2315.00, 
2316.00, 
2317.00, 
2318.00, 
2319.00, 
2320.00, 
2321.00, 
2322.00, 
2323.00, 
2324.00, 
2325.00, 
2326.00, 
2327.00, 
2328.00, 
2329.00, 
2330.00, 
2331.00, 
2332.00, 
2333.00, 
2334.00, 
2335.00, 
2336.00, 
2337.00, 
2338.00, 
2339.00, 
2340.00, 
2341.00, 
2342.00, 
2343.00, 
2344.00, 
2345.00, 
2346.00, 
2347.00, 
2348.00, 
2349.00, 
2350.00, 
2351.00, 
2352.00, 
2353.00, 
2354.00, 
2355.00, 
2356.00, 
2357.00, 
2358.00, 
2359.00, 
2360.00, 
2361.00, 
2362.00, 
2363.00, 
2364.00, 
2365.00, 
2366.00, 
2367.00, 
2368.00, 
2369.00, 
2370.00, 
2371.00, 
2372.00, 
2373.00, 
2374.00, 
2375.00, 
2376.00, 
2377.00, 
2378.00, 
2379.00, 
2380.00, 
2381.00, 
2382.00, 
2383.00, 
2384.00, 
2385.00, 
2386.00, 
2387.00, 
2388.00, 
2389.00, 
2390.00, 
2391.00, 
2392.00, 
2393.00, 
2394.00, 
2395.00, 
2396.00, 
2397.00, 
2398.00, 
2399.00, 
2400.00, 
2401.00, 
2402.00, 
2403.00, 
2404.00, 
2405.00, 
2406.00, 
2407.00, 
2408.00, 
2409.00, 
2410.00, 
2411.00, 
2412.00, 
2413.00, 
2414.00, 
2415.00, 
2416.00, 
2417.00, 
2418.00, 
2419.00, 
2420.00, 
2421.00, 
2422.00, 
2423.00, 
2424.00, 
2425.00, 
2426.00, 
2427.00, 
2428.00, 
2429.00, 
2430.00, 
2431.00, 
2432.00, 
2433.00, 
2434.00, 
2435.00, 
2436.00, 
2437.00, 
2438.00, 
2439.00, 
2440.00, 
2441.00, 
2442.00, 
2443.00, 
2444.00, 
2445.00, 
2446.00, 
2447.00, 
2448.00, 
2449.00, 
2450.00, 
2451.00, 
2452.00, 
2453.00, 
2454.00, 
2455.00, 
2456.00, 
2457.00, 
2458.00, 
2459.00, 
2460.00, 
2461.00, 
2462.00, 
2463.00, 
2464.00, 
2465.00, 
2466.00, 
2467.00, 
2468.00, 
2469.00, 
2470.00, 
2471.00, 
2472.00, 
2473.00, 
2474.00, 
2475.00, 
2476.00, 
2477.00, 
2478.00, 
2479.00, 
2480.00, 
2481.00, 
2482.00, 
2483.00, 
2484.00, 
2485.00, 
2486.00, 
2487.00, 
2488.00, 
2489.00, 
2490.00, 
2491.00, 
2492.00, 
2493.00, 
2494.00, 
2495.00, 
2496.00, 
2497.00, 
2498.00, 
2499.00, 
2500.00, 
2501.00, 
2502.00, 
2503.00, 
2504.00, 
2505.00, 
2506.00, 
2507.00, 
2508.00, 
2509.00, 
2510.00, 
2511.00, 
2512.00, 
2513.00, 
2514.00, 
2515.00, 
2516.00, 
2517.00, 
2518.00, 
2519.00, 
2520.00, 
2521.00, 
2522.00, 
2523.00, 
2524.00, 
2525.00, 
2526.00, 
2527.00, 
2528.00, 
2529.00, 
2530.00, 
2531.00, 
2532.00, 
2533.00, 
2534.00, 
2535.00, 
2536.00, 
2537.00, 
2538.00, 
2539.00, 
2540.00, 
2541.00, 
2542.00, 
2543.00, 
2544.00, 
2545.00, 
2546.00, 
2547.00, 
2548.00, 
2549.00, 
2550.00, 
2551.00, 
2552.00, 
2553.00, 
2554.00, 
2555.00, 
2556.00, 
2557.00, 
2558.00, 
2559.00, 
2560.00, 
2561.00, 
2562.00, 
2563.00, 
2564.00, 
2565.00, 
2566.00, 
2567.00, 
2568.00, 
2569.00, 
2570.00, 
2571.00, 
2572.00, 
2573.00, 
2574.00, 
2575.00, 
2576.00, 
2577.00, 
2578.00, 
2579.00, 
2580.00, 
2581.00, 
2582.00, 
2583.00, 
2584.00, 
2585.00, 
2586.00, 
2587.00, 
2588.00, 
2589.00, 
2590.00, 
2591.00, 
2592.00, 
2593.00, 
2594.00, 
2595.00, 
2596.00, 
2597.00, 
2598.00, 
2599.00, 
2600.00, 
