"1bP2 - RawData"
"Wavelength nm.","T%"
200.00,-0.001
201.00,0.004
202.00,0.003
203.00,0.003
204.00,0.004
205.00,0.001
206.00,-0.000
207.00,0.000
208.00,0.001
209.00,-0.001
210.00,0.003
211.00,-0.000
212.00,0.000
213.00,0.001
214.00,0.003
215.00,0.001
216.00,0.002
217.00,0.005
218.00,0.004
219.00,-0.001
220.00,0.000
221.00,0.001
222.00,0.001
223.00,-0.001
224.00,0.001
225.00,0.001
226.00,0.001
227.00,-0.001
228.00,0.000
229.00,-0.001
230.00,0.001
231.00,0.001
232.00,0.003
233.00,-0.000
234.00,0.000
235.00,0.001
236.00,0.001
237.00,0.002
238.00,0.002
239.00,0.000
240.00,0.002
241.00,0.000
242.00,0.000
243.00,0.000
244.00,-0.001
245.00,0.001
246.00,-0.000
247.00,0.002
248.00,0.002
249.00,-0.000
250.00,0.000
251.00,-0.000
252.00,0.001
253.00,-0.000
254.00,0.001
255.00,0.000
256.00,0.001
257.00,0.001
258.00,0.000
259.00,0.000
260.00,0.001
261.00,-0.001
262.00,0.001
263.00,-0.002
264.00,0.000
265.00,0.000
266.00,-0.002
267.00,-0.001
268.00,0.000
269.00,-0.001
270.00,0.000
271.00,-0.000
272.00,-0.000
273.00,0.001
274.00,0.001
275.00,0.000
276.00,0.001
277.00,0.000
278.00,-0.000
279.00,-0.001
280.00,-0.001
281.00,-0.001
282.00,0.001
283.00,-0.000
284.00,0.000
285.00,0.001
286.00,-0.001
287.00,0.001
288.00,0.001
289.00,0.001
290.00,-0.002
291.00,-0.001
292.00,-0.002
293.00,0.000
294.00,-0.000
295.00,-0.000
296.00,0.000
297.00,0.000
298.00,0.002
299.00,0.003
300.00,0.003
301.00,0.006
302.00,0.011
303.00,0.013
304.00,0.017
305.00,0.029
306.00,0.045
307.00,0.065
308.00,0.104
309.00,0.155
310.00,0.210
311.00,0.285
312.00,0.380
313.00,0.516
314.00,0.667
315.00,0.868
316.00,1.102
317.00,1.353
318.00,1.653
319.00,2.010
320.00,2.430
321.00,2.877
322.00,3.393
323.00,3.955
324.00,4.528
325.00,5.136
326.00,5.727
327.00,6.433
328.00,7.126
329.00,7.797
330.00,8.523
331.00,9.242
332.00,9.991
333.00,10.769
334.00,11.475
335.00,12.215
336.00,12.916
337.00,13.681
338.00,14.304
339.00,14.960
340.00,15.594
341.00,16.231
342.00,16.799
343.00,17.380
344.00,17.987
345.00,18.455
346.00,18.885
347.00,19.276
348.00,19.762
349.00,20.098
350.00,20.476
351.00,20.764
352.00,21.102
353.00,21.397
354.00,21.652
355.00,21.886
356.00,22.129
357.00,22.311
358.00,22.504
359.00,22.759
360.00,22.900
361.00,23.020
362.00,23.147
363.00,23.298
364.00,23.303
365.00,23.392
366.00,23.496
367.00,23.555
368.00,23.545
369.00,23.554
370.00,23.643
371.00,23.611
372.00,23.597
373.00,23.636
374.00,23.639
375.00,23.550
376.00,23.505
377.00,23.456
378.00,23.341
379.00,23.247
380.00,23.236
381.00,23.175
382.00,23.134
383.00,23.150
384.00,23.169
385.00,23.169
386.00,23.162
387.00,23.260
388.00,23.266
389.00,23.253
390.00,23.258
391.00,23.284
392.00,23.291
393.00,23.250
394.00,23.292
395.00,23.315
396.00,23.191
397.00,23.262
398.00,23.189
399.00,23.254
400.00,23.226
401.00,23.203
402.00,23.255
403.00,23.280
404.00,23.276
405.00,23.208
406.00,23.222
407.00,23.154
408.00,23.158
409.00,23.101
410.00,23.048
411.00,23.058
412.00,22.990
413.00,22.982
414.00,22.932
415.00,22.992
416.00,23.035
417.00,23.001
418.00,23.126
419.00,23.108
420.00,23.133
421.00,23.081
422.00,23.084
423.00,23.166
424.00,23.119
425.00,23.180
426.00,23.195
427.00,23.256
428.00,23.286
429.00,23.303
430.00,23.371
431.00,23.431
432.00,23.447
433.00,23.503
434.00,23.530
435.00,23.631
436.00,23.677
437.00,23.749
438.00,23.838
439.00,23.851
440.00,23.943
441.00,23.957
442.00,24.057
443.00,24.157
444.00,24.239
445.00,24.308
446.00,24.408
447.00,24.506
448.00,24.603
449.00,24.725
450.00,24.789
451.00,24.847
452.00,25.016
453.00,25.112
454.00,25.201
455.00,25.281
456.00,25.436
457.00,25.529
458.00,25.589
459.00,25.749
460.00,25.857
461.00,26.000
462.00,26.088
463.00,26.240
464.00,26.376
465.00,26.470
466.00,26.603
467.00,26.804
468.00,26.777
469.00,26.965
470.00,27.046
471.00,27.149
472.00,27.310
473.00,27.330
474.00,27.493
475.00,27.607
476.00,27.679
477.00,27.824
478.00,27.930
479.00,28.135
480.00,28.275
481.00,28.376
482.00,28.534
483.00,28.687
484.00,28.859
485.00,29.006
486.00,29.133
487.00,29.295
488.00,29.430
489.00,29.558
490.00,29.716
491.00,29.823
492.00,29.980
493.00,30.229
494.00,30.346
495.00,30.414
496.00,30.496
497.00,30.631
498.00,30.761
499.00,30.881
500.00,31.058
501.00,31.129
502.00,31.240
503.00,31.401
504.00,31.431
505.00,31.583
506.00,31.710
507.00,31.776
508.00,31.870
509.00,32.076
510.00,32.172
511.00,32.228
512.00,32.444
513.00,32.597
514.00,32.695
515.00,32.845
516.00,32.917
517.00,33.025
518.00,33.121
519.00,33.183
520.00,33.241
521.00,33.353
522.00,33.407
523.00,33.465
524.00,33.590
525.00,33.740
526.00,33.828
527.00,33.913
528.00,33.962
529.00,34.175
530.00,34.287
531.00,34.379
532.00,34.470
533.00,34.608
534.00,34.629
535.00,34.749
536.00,34.775
537.00,34.877
538.00,34.965
539.00,34.978
540.00,35.062
541.00,35.142
542.00,35.261
543.00,35.218
544.00,35.296
545.00,35.340
546.00,35.390
547.00,35.558
548.00,35.598
549.00,35.652
550.00,35.712
551.00,35.829
552.00,35.901
553.00,35.886
554.00,35.956
555.00,36.000
556.00,36.128
557.00,36.142
558.00,36.202
559.00,36.239
560.00,36.312
561.00,36.409
562.00,36.423
563.00,36.400
564.00,36.491
565.00,36.550
566.00,36.524
567.00,36.542
568.00,36.643
569.00,36.634
570.00,36.745
571.00,36.788
572.00,36.791
573.00,36.785
574.00,36.824
575.00,36.858
576.00,36.849
577.00,36.914
578.00,37.021
579.00,37.094
580.00,37.108
581.00,37.259
582.00,37.323
583.00,37.337
584.00,37.417
585.00,37.505
586.00,37.570
587.00,37.626
588.00,37.591
589.00,37.552
590.00,37.665
591.00,37.728
592.00,37.614
593.00,37.716
594.00,37.834
595.00,37.905
596.00,37.872
597.00,38.020
598.00,38.069
599.00,38.102
600.00,38.249
601.00,38.190
602.00,38.144
603.00,38.162
604.00,38.166
605.00,38.252
606.00,38.248
607.00,38.342
608.00,38.371
609.00,38.362
610.00,38.667
611.00,38.601
612.00,38.477
613.00,38.573
614.00,38.618
615.00,38.696
616.00,38.821
617.00,38.770
618.00,38.765
619.00,38.872
620.00,38.904
621.00,38.989
622.00,39.137
623.00,39.125
624.00,39.109
625.00,39.279
626.00,39.259
627.00,39.349
628.00,39.320
629.00,39.339
630.00,39.408
631.00,39.509
632.00,39.635
633.00,39.704
634.00,39.840
635.00,39.946
636.00,39.985
637.00,39.967
638.00,40.046
639.00,40.145
640.00,40.286
641.00,40.325
642.00,40.272
643.00,40.354
644.00,40.445
645.00,40.495
646.00,40.703
647.00,40.737
648.00,40.738
649.00,40.795
650.00,40.824
651.00,40.969
652.00,41.019
653.00,41.093
654.00,41.134
655.00,41.367
656.00,41.610
657.00,41.602
658.00,41.626
659.00,41.666
660.00,41.687
661.00,41.654
662.00,41.782
663.00,41.919
664.00,42.152
665.00,42.346
666.00,42.253
667.00,42.368
668.00,42.351
669.00,42.586
670.00,42.820
671.00,42.617
672.00,42.766
673.00,42.903
674.00,42.955
675.00,43.023
676.00,43.235
677.00,43.355
678.00,43.124
679.00,43.428
680.00,43.542
681.00,43.706
682.00,43.719
683.00,43.702
684.00,43.851
685.00,43.947
686.00,43.827
687.00,44.065
688.00,44.180
689.00,44.156
690.00,44.402
691.00,44.679
692.00,44.340
693.00,44.440
694.00,44.726
695.00,44.866
696.00,44.925
697.00,44.865
698.00,44.896
699.00,45.080
700.00,45.192
701.00,45.189
702.00,45.412
703.00,45.512
704.00,45.537
705.00,45.448
706.00,45.590
707.00,45.658
708.00,45.481
709.00,45.904
710.00,46.275
711.00,45.835
712.00,45.924
713.00,46.143
714.00,46.184
715.00,46.151
716.00,46.213
717.00,46.430
718.00,46.547
719.00,46.577
720.00,46.656
721.00,51.171
722.00,51.176
723.00,51.116
724.00,51.256
725.00,51.283
726.00,51.289
727.00,51.272
728.00,51.405
729.00,51.374
730.00,51.430
731.00,51.410
732.00,51.418
733.00,51.540
734.00,51.640
735.00,51.546
736.00,51.556
737.00,51.663
738.00,51.714
739.00,51.673
740.00,51.755
741.00,51.757
742.00,51.763
743.00,51.727
744.00,51.841
745.00,51.887
746.00,51.799
747.00,51.824
748.00,51.875
749.00,51.920
750.00,51.886
751.00,51.814
752.00,51.871
753.00,51.886
754.00,51.856
755.00,51.814
756.00,51.876
757.00,51.963
758.00,51.967
759.00,51.999
760.00,52.012
761.00,51.948
762.00,52.025
763.00,51.976
764.00,52.026
765.00,52.066
766.00,52.083
767.00,52.135
768.00,52.057
769.00,52.058
770.00,52.117
771.00,52.088
772.00,52.193
773.00,52.093
774.00,52.164
775.00,52.210
776.00,52.148
777.00,52.240
778.00,52.280
779.00,52.193
780.00,52.198
781.00,52.230
782.00,52.244
783.00,52.099
784.00,52.173
785.00,52.112
786.00,52.252
787.00,52.167
788.00,52.153
789.00,52.137
790.00,52.091
791.00,52.265
792.00,52.139
793.00,52.182
794.00,52.129
795.00,52.109
796.00,52.087
797.00,52.030
798.00,52.120
799.00,52.032
800.00,52.067
801.00,52.047
802.00,52.051
803.00,52.076
804.00,51.995
805.00,52.072
806.00,52.035
807.00,51.989
808.00,52.066
809.00,51.949
810.00,51.988
811.00,51.935
812.00,51.966
813.00,51.964
814.00,51.977
815.00,51.912
816.00,51.938
817.00,51.903
818.00,51.851
819.00,51.822
820.00,51.820
821.00,51.901
822.00,51.850
823.00,51.737
824.00,51.857
825.00,51.833
826.00,51.765
827.00,51.855
828.00,51.906
829.00,51.645
830.00,51.878
831.00,54.449
832.00,54.428
833.00,54.409
834.00,54.425
835.00,54.360
836.00,54.381
837.00,54.358
838.00,54.341
839.00,54.301
840.00,54.251
841.00,54.266
842.00,54.279
843.00,54.272
844.00,54.264
845.00,54.226
846.00,54.261
847.00,54.200
848.00,54.204
849.00,54.120
850.00,54.142
851.00,54.092
852.00,54.112
853.00,54.032
854.00,54.047
855.00,53.987
856.00,54.004
857.00,53.991
858.00,53.913
859.00,53.946
860.00,53.917
861.00,53.926
862.00,53.891
863.00,53.922
864.00,53.875
865.00,53.905
866.00,53.883
867.00,53.835
868.00,53.863
869.00,53.841
870.00,53.846
871.00,53.831
872.00,53.815
873.00,53.829
874.00,53.788
875.00,53.753
876.00,53.797
877.00,53.759
878.00,53.758
879.00,53.749
880.00,53.765
881.00,53.710
882.00,53.788
883.00,53.716
884.00,53.671
885.00,53.693
886.00,53.657
887.00,53.770
888.00,53.625
889.00,53.656
890.00,53.640
891.00,53.604
892.00,53.584
893.00,53.559
894.00,53.573
895.00,53.526
896.00,53.503
897.00,53.483
898.00,53.466
899.00,53.474
900.00,53.435
901.00,53.455
902.00,53.468
903.00,53.413
904.00,53.392
905.00,53.405
906.00,53.383
907.00,53.353
908.00,53.333
909.00,53.353
910.00,53.282
911.00,53.290
912.00,53.290
913.00,53.256
914.00,53.246
915.00,53.235
916.00,53.191
917.00,53.195
918.00,53.170
919.00,53.117
920.00,53.089
921.00,53.121
922.00,53.111
923.00,53.071
924.00,53.023
925.00,53.064
926.00,53.048
927.00,53.011
928.00,52.995
929.00,53.000
930.00,52.950
931.00,52.937
932.00,52.907
933.00,52.945
934.00,52.917
935.00,52.879
936.00,52.855
937.00,52.856
938.00,52.838
939.00,52.859
940.00,52.810
941.00,52.795
942.00,52.901
943.00,52.758
944.00,52.728
945.00,52.752
946.00,52.736
947.00,52.691
948.00,52.672
949.00,52.667
950.00,52.649
951.00,52.619
952.00,52.603
953.00,52.582
954.00,52.545
955.00,52.509
956.00,52.506
957.00,52.468
958.00,52.488
959.00,52.421
960.00,52.417
961.00,52.428
962.00,52.420
963.00,52.390
964.00,52.380
965.00,52.394
966.00,52.366
967.00,52.369
968.00,52.343
969.00,52.383
970.00,52.324
971.00,52.339
972.00,52.300
973.00,52.332
974.00,52.365
975.00,52.340
976.00,52.343
977.00,52.355
978.00,52.393
979.00,52.336
980.00,52.381
981.00,52.390
982.00,52.349
983.00,52.371
984.00,52.333
985.00,52.341
986.00,52.333
987.00,52.306
988.00,52.289
989.00,52.284
990.00,52.270
991.00,52.252
992.00,52.270
993.00,52.241
994.00,52.253
995.00,52.220
996.00,52.236
997.00,52.224
998.00,52.200
999.00,52.216
1000.00,52.170
1001.00,52.156
1002.00,52.165
1003.00,52.150
1004.00,52.120
1005.00,52.112
1006.00,52.143
1007.00,52.111
1008.00,52.102
1009.00,52.065
1010.00,52.067
1011.00,52.068
1012.00,52.018
1013.00,52.031
1014.00,51.999
1015.00,52.005
1016.00,51.965
1017.00,51.961
1018.00,51.948
1019.00,51.936
1020.00,51.914
1021.00,51.911
1022.00,51.917
1023.00,51.877
1024.00,51.902
1025.00,51.890
1026.00,51.873
1027.00,51.861
1028.00,51.832
1029.00,51.814
1030.00,51.782
1031.00,51.796
1032.00,51.761
1033.00,51.760
1034.00,51.728
1035.00,51.707
1036.00,51.681
1037.00,51.671
1038.00,51.661
1039.00,51.620
1040.00,51.630
1041.00,51.584
1042.00,51.569
1043.00,51.548
1044.00,51.591
1045.00,51.549
1046.00,51.558
1047.00,51.581
1048.00,51.586
1049.00,51.598
1050.00,51.593
1051.00,51.650
1052.00,51.648
1053.00,51.646
1054.00,51.660
1055.00,51.676
1056.00,51.677
1057.00,51.688
1058.00,51.668
1059.00,51.673
1060.00,51.692
1061.00,51.664
1062.00,51.665
1063.00,51.664
1064.00,51.662
1065.00,51.656
1066.00,51.640
1067.00,51.623
1068.00,51.648
1069.00,51.599
1070.00,51.576
1071.00,51.575
1072.00,51.586
1073.00,51.580
1074.00,51.576
1075.00,51.561
1076.00,51.586
1077.00,51.568
1078.00,51.544
1079.00,51.571
1080.00,51.576
1081.00,51.543
1082.00,51.563
1083.00,51.539
1084.00,51.533
1085.00,51.535
1086.00,51.507
1087.00,51.518
1088.00,51.502
1089.00,51.494
1090.00,51.502
1091.00,51.496
1092.00,51.503
1093.00,51.490
1094.00,51.469
1095.00,51.501
1096.00,51.448
1097.00,51.433
1098.00,51.423
1099.00,51.403
1100.00,51.389
1101.00,51.397
1102.00,51.368
1103.00,51.367
1104.00,51.367
1105.00,51.346
1106.00,51.348
1107.00,51.344
1108.00,51.330
1109.00,51.356
1110.00,51.368
1111.00,51.326
1112.00,51.318
1113.00,51.312
1114.00,51.278
1115.00,51.296
1116.00,51.281
1117.00,51.268
1118.00,51.265
1119.00,51.248
1120.00,51.260
1121.00,51.263
1122.00,51.233
1123.00,51.242
1124.00,51.227
1125.00,51.222
1126.00,51.216
1127.00,51.203
1128.00,51.197
1129.00,51.189
1130.00,51.160
1131.00,51.177
1132.00,51.156
1133.00,51.159
1134.00,51.164
1135.00,51.147
1136.00,51.157
1137.00,51.167
1138.00,51.155
1139.00,51.179
1140.00,51.180
1141.00,51.158
1142.00,51.145
1143.00,51.166
1144.00,51.124
1145.00,51.133
1146.00,51.117
1147.00,51.109
1148.00,51.122
1149.00,51.131
1150.00,51.124
1151.00,51.139
1152.00,51.123
1153.00,51.119
1154.00,51.112
1155.00,51.120
1156.00,51.120
1157.00,51.101
1158.00,51.093
1159.00,51.101
1160.00,51.078
1161.00,51.104
1162.00,51.099
1163.00,51.093
1164.00,51.111
1165.00,51.109
1166.00,51.101
1167.00,51.087
1168.00,51.109
1169.00,51.097
1170.00,51.114
1171.00,51.095
1172.00,51.094
1173.00,51.088
1174.00,51.079
1175.00,51.092
1176.00,51.095
1177.00,51.061
1178.00,51.086
1179.00,51.087
1180.00,51.074
1181.00,51.097
1182.00,51.082
1183.00,51.122
1184.00,51.108
1185.00,51.095
1186.00,51.083
1187.00,51.093
1188.00,51.069
1189.00,51.086
1190.00,51.083
1191.00,51.072
1192.00,51.099
1193.00,51.071
1194.00,51.088
1195.00,51.067
1196.00,51.092
1197.00,51.097
1198.00,51.097
1199.00,51.080
1200.00,51.090
1201.00,51.106
1202.00,51.080
1203.00,51.083
1204.00,51.060
1205.00,51.100
1206.00,51.090
1207.00,51.080
1208.00,51.083
1209.00,51.103
1210.00,51.084
1211.00,51.096
1212.00,51.108
1213.00,51.054
1214.00,51.101
1215.00,51.059
1216.00,51.085
1217.00,51.094
1218.00,51.049
1219.00,51.082
1220.00,51.071
1221.00,51.072
1222.00,51.076
1223.00,51.090
1224.00,51.077
1225.00,51.080
1226.00,51.069
1227.00,51.067
1228.00,51.076
1229.00,51.091
1230.00,51.126
1231.00,51.101
1232.00,51.133
1233.00,51.140
1234.00,51.135
1235.00,51.133
1236.00,51.146
1237.00,51.145
1238.00,51.138
1239.00,51.148
1240.00,51.122
1241.00,51.129
1242.00,51.119
1243.00,51.119
1244.00,51.097
1245.00,51.113
1246.00,51.124
1247.00,51.133
1248.00,51.120
1249.00,51.150
1250.00,51.172
1251.00,51.137
1252.00,51.149
1253.00,51.139
1254.00,51.159
1255.00,51.138
1256.00,51.130
1257.00,51.142
1258.00,51.206
1259.00,51.158
1260.00,51.193
1261.00,51.197
1262.00,51.183
1263.00,51.184
1264.00,51.186
1265.00,51.190
1266.00,51.191
1267.00,51.210
1268.00,51.213
1269.00,51.222
1270.00,51.259
1271.00,51.231
1272.00,51.254
1273.00,51.279
1274.00,51.255
1275.00,51.263
1276.00,51.264
1277.00,51.288
1278.00,51.297
1279.00,51.288
1280.00,51.288
1281.00,51.285
1282.00,51.303
1283.00,51.294
1284.00,51.295
1285.00,51.301
1286.00,51.321
1287.00,51.304
1288.00,51.318
1289.00,51.304
1290.00,51.334
1291.00,51.330
1292.00,51.347
1293.00,51.332
1294.00,51.344
1295.00,51.347
1296.00,51.348
1297.00,51.366
1298.00,51.385
1299.00,51.353
1300.00,51.379
1301.00,51.357
1302.00,51.390
1303.00,51.372
1304.00,51.367
1305.00,51.396
1306.00,51.384
1307.00,51.414
1308.00,51.406
1309.00,51.412
1310.00,51.422
1311.00,51.397
1312.00,51.417
1313.00,51.441
1314.00,51.448
1315.00,51.483
1316.00,51.473
1317.00,51.490
1318.00,51.485
1319.00,51.493
1320.00,51.480
1321.00,51.689
1322.00,51.654
1323.00,51.642
1324.00,51.624
1325.00,51.611
1326.00,51.619
1327.00,51.607
1328.00,51.610
1329.00,51.591
1330.00,51.609
1331.00,51.602
1332.00,51.620
1333.00,51.621
1334.00,51.608
1335.00,51.675
1336.00,51.728
1337.00,51.698
1338.00,51.800
1339.00,51.827
1340.00,51.902
1341.00,51.954
1342.00,52.021
1343.00,52.071
1344.00,52.130
1345.00,52.157
1346.00,52.196
1347.00,52.227
1348.00,52.229
1349.00,52.270
1350.00,52.286
1351.00,52.299
1352.00,52.308
1353.00,52.311
1354.00,52.322
1355.00,52.291
1356.00,52.330
1357.00,52.328
1358.00,52.365
1359.00,52.331
1360.00,52.384
1361.00,52.444
1362.00,52.305
1363.00,52.377
1364.00,52.377
1365.00,52.352
1366.00,52.391
1367.00,52.358
1368.00,52.338
1369.00,52.350
1370.00,52.315
1371.00,52.301
1372.00,52.307
1373.00,52.326
1374.00,52.337
1375.00,52.298
1376.00,52.314
1377.00,52.290
1378.00,52.420
1379.00,52.330
1380.00,52.310
1381.00,52.348
1382.00,52.250
1383.00,52.318
1384.00,52.265
1385.00,52.230
1386.00,52.307
1387.00,52.295
1388.00,52.257
1389.00,52.231
1390.00,52.257
1391.00,52.311
1392.00,52.247
1393.00,52.302
1394.00,52.300
1395.00,52.279
1396.00,52.215
1397.00,52.297
1398.00,52.050
1399.00,52.312
1400.00,52.271
1401.00,52.261
1402.00,52.345
1403.00,52.314
1404.00,52.332
1405.00,52.312
1406.00,52.362
1407.00,52.325
1408.00,52.339
1409.00,52.334
1410.00,52.383
1411.00,52.324
1412.00,52.430
1413.00,52.366
1414.00,52.360
1415.00,52.391
1416.00,52.385
1417.00,52.419
1418.00,52.397
1419.00,52.402
1420.00,52.429
1421.00,52.467
1422.00,52.459
1423.00,52.486
1424.00,52.486
1425.00,52.490
1426.00,52.491
1427.00,52.504
1428.00,52.501
1429.00,52.517
1430.00,52.502
1431.00,52.538
1432.00,52.569
1433.00,52.582
1434.00,52.579
1435.00,52.623
1436.00,52.640
1437.00,52.634
1438.00,52.646
1439.00,52.674
1440.00,52.672
1441.00,52.681
1442.00,52.709
1443.00,52.738
1444.00,52.772
1445.00,52.757
1446.00,52.783
1447.00,52.786
1448.00,52.828
1449.00,52.821
1450.00,52.837
1451.00,52.840
1452.00,52.866
1453.00,52.855
1454.00,52.885
1455.00,52.902
1456.00,52.918
1457.00,52.918
1458.00,52.939
1459.00,52.952
1460.00,52.952
1461.00,52.945
1462.00,52.997
1463.00,52.973
1464.00,52.993
1465.00,53.024
1466.00,53.001
1467.00,53.037
1468.00,53.078
1469.00,53.048
1470.00,53.090
1471.00,53.108
1472.00,53.106
1473.00,53.122
1474.00,53.128
1475.00,53.139
1476.00,53.159
1477.00,53.121
1478.00,53.165
1479.00,53.182
1480.00,53.160
1481.00,53.175
1482.00,53.201
1483.00,53.219
1484.00,53.241
1485.00,53.243
1486.00,53.259
1487.00,53.295
1488.00,53.294
1489.00,53.293
1490.00,53.313
1491.00,53.313
1492.00,53.338
1493.00,53.303
1494.00,53.372
1495.00,53.350
1496.00,53.374
1497.00,53.384
1498.00,53.403
1499.00,53.401
1500.00,53.423
1501.00, 
1502.00, 
1503.00, 
1504.00, 
1505.00, 
1506.00, 
1507.00, 
1508.00, 
1509.00, 
1510.00, 
1511.00, 
1512.00, 
1513.00, 
1514.00, 
1515.00, 
1516.00, 
1517.00, 
1518.00, 
1519.00, 
1520.00, 
1521.00, 
1522.00, 
1523.00, 
1524.00, 
1525.00, 
1526.00, 
1527.00, 
1528.00, 
1529.00, 
1530.00, 
1531.00, 
1532.00, 
1533.00, 
1534.00, 
1535.00, 
1536.00, 
1537.00, 
1538.00, 
1539.00, 
1540.00, 
1541.00, 
1542.00, 
1543.00, 
1544.00, 
1545.00, 
1546.00, 
1547.00, 
1548.00, 
1549.00, 
1550.00, 
1551.00, 
1552.00, 
1553.00, 
1554.00, 
1555.00, 
1556.00, 
1557.00, 
1558.00, 
1559.00, 
1560.00, 
1561.00, 
1562.00, 
1563.00, 
1564.00, 
1565.00, 
1566.00, 
1567.00, 
1568.00, 
1569.00, 
1570.00, 
1571.00, 
1572.00, 
1573.00, 
1574.00, 
1575.00, 
1576.00, 
1577.00, 
1578.00, 
1579.00, 
1580.00, 
1581.00, 
1582.00, 
1583.00, 
1584.00, 
1585.00, 
1586.00, 
1587.00, 
1588.00, 
1589.00, 
1590.00, 
1591.00, 
1592.00, 
1593.00, 
1594.00, 
1595.00, 
1596.00, 
1597.00, 
1598.00, 
1599.00, 
1600.00, 
1601.00, 
1602.00, 
1603.00, 
1604.00, 
1605.00, 
1606.00, 
1607.00, 
1608.00, 
1609.00, 
1610.00, 
1611.00, 
1612.00, 
1613.00, 
1614.00, 
1615.00, 
1616.00, 
1617.00, 
1618.00, 
1619.00, 
1620.00, 
1621.00, 
1622.00, 
1623.00, 
1624.00, 
1625.00, 
1626.00, 
1627.00, 
1628.00, 
1629.00, 
1630.00, 
1631.00, 
1632.00, 
1633.00, 
1634.00, 
1635.00, 
1636.00, 
1637.00, 
1638.00, 
1639.00, 
1640.00, 
1641.00, 
1642.00, 
1643.00, 
1644.00, 
1645.00, 
1646.00, 
1647.00, 
1648.00, 
1649.00, 
1650.00, 
1651.00, 
1652.00, 
1653.00, 
1654.00, 
1655.00, 
1656.00, 
1657.00, 
1658.00, 
1659.00, 
1660.00, 
1661.00, 
1662.00, 
1663.00, 
1664.00, 
1665.00, 
1666.00, 
1667.00, 
1668.00, 
1669.00, 
1670.00, 
1671.00, 
1672.00, 
1673.00, 
1674.00, 
1675.00, 
1676.00, 
1677.00, 
1678.00, 
1679.00, 
1680.00, 
1681.00, 
1682.00, 
1683.00, 
1684.00, 
1685.00, 
1686.00, 
1687.00, 
1688.00, 
1689.00, 
1690.00, 
1691.00, 
1692.00, 
1693.00, 
1694.00, 
1695.00, 
1696.00, 
1697.00, 
1698.00, 
1699.00, 
1700.00, 
1701.00, 
1702.00, 
1703.00, 
1704.00, 
1705.00, 
1706.00, 
1707.00, 
1708.00, 
1709.00, 
1710.00, 
1711.00, 
1712.00, 
1713.00, 
1714.00, 
1715.00, 
1716.00, 
1717.00, 
1718.00, 
1719.00, 
1720.00, 
1721.00, 
1722.00, 
1723.00, 
1724.00, 
1725.00, 
1726.00, 
1727.00, 
1728.00, 
1729.00, 
1730.00, 
1731.00, 
1732.00, 
1733.00, 
1734.00, 
1735.00, 
1736.00, 
1737.00, 
1738.00, 
1739.00, 
1740.00, 
1741.00, 
1742.00, 
1743.00, 
1744.00, 
1745.00, 
1746.00, 
1747.00, 
1748.00, 
1749.00, 
1750.00, 
1751.00, 
1752.00, 
1753.00, 
1754.00, 
1755.00, 
1756.00, 
1757.00, 
1758.00, 
1759.00, 
1760.00, 
1761.00, 
1762.00, 
1763.00, 
1764.00, 
1765.00, 
1766.00, 
1767.00, 
1768.00, 
1769.00, 
1770.00, 
1771.00, 
1772.00, 
1773.00, 
1774.00, 
1775.00, 
1776.00, 
1777.00, 
1778.00, 
1779.00, 
1780.00, 
1781.00, 
1782.00, 
1783.00, 
1784.00, 
1785.00, 
1786.00, 
1787.00, 
1788.00, 
1789.00, 
1790.00, 
1791.00, 
1792.00, 
1793.00, 
1794.00, 
1795.00, 
1796.00, 
1797.00, 
1798.00, 
1799.00, 
1800.00, 
1801.00, 
1802.00, 
1803.00, 
1804.00, 
1805.00, 
1806.00, 
1807.00, 
1808.00, 
1809.00, 
1810.00, 
1811.00, 
1812.00, 
1813.00, 
1814.00, 
1815.00, 
1816.00, 
1817.00, 
1818.00, 
1819.00, 
1820.00, 
1821.00, 
1822.00, 
1823.00, 
1824.00, 
1825.00, 
1826.00, 
1827.00, 
1828.00, 
1829.00, 
1830.00, 
1831.00, 
1832.00, 
1833.00, 
1834.00, 
1835.00, 
1836.00, 
1837.00, 
1838.00, 
1839.00, 
1840.00, 
1841.00, 
1842.00, 
1843.00, 
1844.00, 
1845.00, 
1846.00, 
1847.00, 
1848.00, 
1849.00, 
1850.00, 
1851.00, 
1852.00, 
1853.00, 
1854.00, 
1855.00, 
1856.00, 
1857.00, 
1858.00, 
1859.00, 
1860.00, 
1861.00, 
1862.00, 
1863.00, 
1864.00, 
1865.00, 
1866.00, 
1867.00, 
1868.00, 
1869.00, 
1870.00, 
1871.00, 
1872.00, 
1873.00, 
1874.00, 
1875.00, 
1876.00, 
1877.00, 
1878.00, 
1879.00, 
1880.00, 
1881.00, 
1882.00, 
1883.00, 
1884.00, 
1885.00, 
1886.00, 
1887.00, 
1888.00, 
1889.00, 
1890.00, 
1891.00, 
1892.00, 
1893.00, 
1894.00, 
1895.00, 
1896.00, 
1897.00, 
1898.00, 
1899.00, 
1900.00, 
1901.00, 
1902.00, 
1903.00, 
1904.00, 
1905.00, 
1906.00, 
1907.00, 
1908.00, 
1909.00, 
1910.00, 
1911.00, 
1912.00, 
1913.00, 
1914.00, 
1915.00, 
1916.00, 
1917.00, 
1918.00, 
1919.00, 
1920.00, 
1921.00, 
1922.00, 
1923.00, 
1924.00, 
1925.00, 
1926.00, 
1927.00, 
1928.00, 
1929.00, 
1930.00, 
1931.00, 
1932.00, 
1933.00, 
1934.00, 
1935.00, 
1936.00, 
1937.00, 
1938.00, 
1939.00, 
1940.00, 
1941.00, 
1942.00, 
1943.00, 
1944.00, 
1945.00, 
1946.00, 
1947.00, 
1948.00, 
1949.00, 
1950.00, 
1951.00, 
1952.00, 
1953.00, 
1954.00, 
1955.00, 
1956.00, 
1957.00, 
1958.00, 
1959.00, 
1960.00, 
1961.00, 
1962.00, 
1963.00, 
1964.00, 
1965.00, 
1966.00, 
1967.00, 
1968.00, 
1969.00, 
1970.00, 
1971.00, 
1972.00, 
1973.00, 
1974.00, 
1975.00, 
1976.00, 
1977.00, 
1978.00, 
1979.00, 
1980.00, 
1981.00, 
1982.00, 
1983.00, 
1984.00, 
1985.00, 
1986.00, 
1987.00, 
1988.00, 
1989.00, 
1990.00, 
1991.00, 
1992.00, 
1993.00, 
1994.00, 
1995.00, 
1996.00, 
1997.00, 
1998.00, 
1999.00, 
2000.00, 
2001.00, 
2002.00, 
2003.00, 
2004.00, 
2005.00, 
2006.00, 
2007.00, 
2008.00, 
2009.00, 
2010.00, 
2011.00, 
2012.00, 
2013.00, 
2014.00, 
2015.00, 
2016.00, 
2017.00, 
2018.00, 
2019.00, 
2020.00, 
2021.00, 
2022.00, 
2023.00, 
2024.00, 
2025.00, 
2026.00, 
2027.00, 
2028.00, 
2029.00, 
2030.00, 
2031.00, 
2032.00, 
2033.00, 
2034.00, 
2035.00, 
2036.00, 
2037.00, 
2038.00, 
2039.00, 
2040.00, 
2041.00, 
2042.00, 
2043.00, 
2044.00, 
2045.00, 
2046.00, 
2047.00, 
2048.00, 
2049.00, 
2050.00, 
2051.00, 
2052.00, 
2053.00, 
2054.00, 
2055.00, 
2056.00, 
2057.00, 
2058.00, 
2059.00, 
2060.00, 
2061.00, 
2062.00, 
2063.00, 
2064.00, 
2065.00, 
2066.00, 
2067.00, 
2068.00, 
2069.00, 
2070.00, 
2071.00, 
2072.00, 
2073.00, 
2074.00, 
2075.00, 
2076.00, 
2077.00, 
2078.00, 
2079.00, 
2080.00, 
2081.00, 
2082.00, 
2083.00, 
2084.00, 
2085.00, 
2086.00, 
2087.00, 
2088.00, 
2089.00, 
2090.00, 
2091.00, 
2092.00, 
2093.00, 
2094.00, 
2095.00, 
2096.00, 
2097.00, 
2098.00, 
2099.00, 
2100.00, 
2101.00, 
2102.00, 
2103.00, 
2104.00, 
2105.00, 
2106.00, 
2107.00, 
2108.00, 
2109.00, 
2110.00, 
2111.00, 
2112.00, 
2113.00, 
2114.00, 
2115.00, 
2116.00, 
2117.00, 
2118.00, 
2119.00, 
2120.00, 
2121.00, 
2122.00, 
2123.00, 
2124.00, 
2125.00, 
2126.00, 
2127.00, 
2128.00, 
2129.00, 
2130.00, 
2131.00, 
2132.00, 
2133.00, 
2134.00, 
2135.00, 
2136.00, 
2137.00, 
2138.00, 
2139.00, 
2140.00, 
2141.00, 
2142.00, 
2143.00, 
2144.00, 
2145.00, 
2146.00, 
2147.00, 
2148.00, 
2149.00, 
2150.00, 
2151.00, 
2152.00, 
2153.00, 
2154.00, 
2155.00, 
2156.00, 
2157.00, 
2158.00, 
2159.00, 
2160.00, 
2161.00, 
2162.00, 
2163.00, 
2164.00, 
2165.00, 
2166.00, 
2167.00, 
2168.00, 
2169.00, 
2170.00, 
2171.00, 
2172.00, 
2173.00, 
2174.00, 
2175.00, 
2176.00, 
2177.00, 
2178.00, 
2179.00, 
2180.00, 
2181.00, 
2182.00, 
2183.00, 
2184.00, 
2185.00, 
2186.00, 
2187.00, 
2188.00, 
2189.00, 
2190.00, 
2191.00, 
2192.00, 
2193.00, 
2194.00, 
2195.00, 
2196.00, 
2197.00, 
2198.00, 
2199.00, 
2200.00, 
2201.00, 
2202.00, 
2203.00, 
2204.00, 
2205.00, 
2206.00, 
2207.00, 
2208.00, 
2209.00, 
2210.00, 
2211.00, 
2212.00, 
2213.00, 
2214.00, 
2215.00, 
2216.00, 
2217.00, 
2218.00, 
2219.00, 
2220.00, 
2221.00, 
2222.00, 
2223.00, 
2224.00, 
2225.00, 
2226.00, 
2227.00, 
2228.00, 
2229.00, 
2230.00, 
2231.00, 
2232.00, 
2233.00, 
2234.00, 
2235.00, 
2236.00, 
2237.00, 
2238.00, 
2239.00, 
2240.00, 
2241.00, 
2242.00, 
2243.00, 
2244.00, 
2245.00, 
2246.00, 
2247.00, 
2248.00, 
2249.00, 
2250.00, 
2251.00, 
2252.00, 
2253.00, 
2254.00, 
2255.00, 
2256.00, 
2257.00, 
2258.00, 
2259.00, 
2260.00, 
2261.00, 
2262.00, 
2263.00, 
2264.00, 
2265.00, 
2266.00, 
2267.00, 
2268.00, 
2269.00, 
2270.00, 
2271.00, 
2272.00, 
2273.00, 
2274.00, 
2275.00, 
2276.00, 
2277.00, 
2278.00, 
2279.00, 
2280.00, 
2281.00, 
2282.00, 
2283.00, 
2284.00, 
2285.00, 
2286.00, 
2287.00, 
2288.00, 
2289.00, 
2290.00, 
2291.00, 
2292.00, 
2293.00, 
2294.00, 
2295.00, 
2296.00, 
2297.00, 
2298.00, 
2299.00, 
2300.00, 
2301.00, 
2302.00, 
2303.00, 
2304.00, 
2305.00, 
2306.00, 
2307.00, 
2308.00, 
2309.00, 
2310.00, 
2311.00, 
2312.00, 
2313.00, 
2314.00, 
2315.00, 
2316.00, 
2317.00, 
2318.00, 
2319.00, 
2320.00, 
2321.00, 
2322.00, 
2323.00, 
2324.00, 
2325.00, 
2326.00, 
2327.00, 
2328.00, 
2329.00, 
2330.00, 
2331.00, 
2332.00, 
2333.00, 
2334.00, 
2335.00, 
2336.00, 
2337.00, 
2338.00, 
2339.00, 
2340.00, 
2341.00, 
2342.00, 
2343.00, 
2344.00, 
2345.00, 
2346.00, 
2347.00, 
2348.00, 
2349.00, 
2350.00, 
2351.00, 
2352.00, 
2353.00, 
2354.00, 
2355.00, 
2356.00, 
2357.00, 
2358.00, 
2359.00, 
2360.00, 
2361.00, 
2362.00, 
2363.00, 
2364.00, 
2365.00, 
2366.00, 
2367.00, 
2368.00, 
2369.00, 
2370.00, 
2371.00, 
2372.00, 
2373.00, 
2374.00, 
2375.00, 
2376.00, 
2377.00, 
2378.00, 
2379.00, 
2380.00, 
2381.00, 
2382.00, 
2383.00, 
2384.00, 
2385.00, 
2386.00, 
2387.00, 
2388.00, 
2389.00, 
2390.00, 
2391.00, 
2392.00, 
2393.00, 
2394.00, 
2395.00, 
2396.00, 
2397.00, 
2398.00, 
2399.00, 
2400.00, 
2401.00, 
2402.00, 
2403.00, 
2404.00, 
2405.00, 
2406.00, 
2407.00, 
2408.00, 
2409.00, 
2410.00, 
2411.00, 
2412.00, 
2413.00, 
2414.00, 
2415.00, 
2416.00, 
2417.00, 
2418.00, 
2419.00, 
2420.00, 
2421.00, 
2422.00, 
2423.00, 
2424.00, 
2425.00, 
2426.00, 
2427.00, 
2428.00, 
2429.00, 
2430.00, 
2431.00, 
2432.00, 
2433.00, 
2434.00, 
2435.00, 
2436.00, 
2437.00, 
2438.00, 
2439.00, 
2440.00, 
2441.00, 
2442.00, 
2443.00, 
2444.00, 
2445.00, 
2446.00, 
2447.00, 
2448.00, 
2449.00, 
2450.00, 
2451.00, 
2452.00, 
2453.00, 
2454.00, 
2455.00, 
2456.00, 
2457.00, 
2458.00, 
2459.00, 
2460.00, 
2461.00, 
2462.00, 
2463.00, 
2464.00, 
2465.00, 
2466.00, 
2467.00, 
2468.00, 
2469.00, 
2470.00, 
2471.00, 
2472.00, 
2473.00, 
2474.00, 
2475.00, 
2476.00, 
2477.00, 
2478.00, 
2479.00, 
2480.00, 
2481.00, 
2482.00, 
2483.00, 
2484.00, 
2485.00, 
2486.00, 
2487.00, 
2488.00, 
2489.00, 
2490.00, 
2491.00, 
2492.00, 
2493.00, 
2494.00, 
2495.00, 
2496.00, 
2497.00, 
2498.00, 
2499.00, 
2500.00, 
2501.00, 
2502.00, 
2503.00, 
2504.00, 
2505.00, 
2506.00, 
2507.00, 
2508.00, 
2509.00, 
2510.00, 
2511.00, 
2512.00, 
2513.00, 
2514.00, 
2515.00, 
2516.00, 
2517.00, 
2518.00, 
2519.00, 
2520.00, 
2521.00, 
2522.00, 
2523.00, 
2524.00, 
2525.00, 
2526.00, 
2527.00, 
2528.00, 
2529.00, 
2530.00, 
2531.00, 
2532.00, 
2533.00, 
2534.00, 
2535.00, 
2536.00, 
2537.00, 
2538.00, 
2539.00, 
2540.00, 
2541.00, 
2542.00, 
2543.00, 
2544.00, 
2545.00, 
2546.00, 
2547.00, 
2548.00, 
2549.00, 
2550.00, 
2551.00, 
2552.00, 
2553.00, 
2554.00, 
2555.00, 
2556.00, 
2557.00, 
2558.00, 
2559.00, 
2560.00, 
2561.00, 
2562.00, 
2563.00, 
2564.00, 
2565.00, 
2566.00, 
2567.00, 
2568.00, 
2569.00, 
2570.00, 
2571.00, 
2572.00, 
2573.00, 
2574.00, 
2575.00, 
2576.00, 
2577.00, 
2578.00, 
2579.00, 
2580.00, 
2581.00, 
2582.00, 
2583.00, 
2584.00, 
2585.00, 
2586.00, 
2587.00, 
2588.00, 
2589.00, 
2590.00, 
2591.00, 
2592.00, 
2593.00, 
2594.00, 
2595.00, 
2596.00, 
2597.00, 
2598.00, 
2599.00, 
2600.00, 
