"1cP1 - RawData"
"Wavelength nm.","T%"
200.00,0.001
201.00,-0.000
202.00,0.001
203.00,-0.000
204.00,0.002
205.00,0.000
206.00,0.001
207.00,0.001
208.00,0.001
209.00,0.002
210.00,0.000
211.00,0.002
212.00,-0.000
213.00,-0.000
214.00,-0.002
215.00,0.002
216.00,0.002
217.00,0.000
218.00,0.005
219.00,-0.000
220.00,0.001
221.00,-0.000
222.00,0.004
223.00,-0.000
224.00,0.002
225.00,0.000
226.00,-0.000
227.00,0.001
228.00,-0.000
229.00,-0.001
230.00,0.002
231.00,0.001
232.00,-0.001
233.00,0.000
234.00,0.001
235.00,0.001
236.00,0.001
237.00,0.001
238.00,0.000
239.00,-0.002
240.00,-0.000
241.00,0.001
242.00,0.002
243.00,-0.002
244.00,0.000
245.00,-0.000
246.00,0.000
247.00,0.001
248.00,0.002
249.00,-0.000
250.00,0.001
251.00,-0.001
252.00,-0.000
253.00,0.001
254.00,0.000
255.00,0.001
256.00,0.000
257.00,-0.000
258.00,0.001
259.00,-0.000
260.00,-0.001
261.00,-0.000
262.00,0.002
263.00,0.001
264.00,-0.000
265.00,0.001
266.00,0.002
267.00,-0.000
268.00,-0.000
269.00,0.001
270.00,0.000
271.00,0.001
272.00,0.001
273.00,-0.001
274.00,-0.002
275.00,-0.001
276.00,0.001
277.00,0.000
278.00,-0.001
279.00,-0.001
280.00,-0.002
281.00,-0.000
282.00,-0.000
283.00,0.002
284.00,-0.001
285.00,0.000
286.00,0.001
287.00,-0.002
288.00,-0.000
289.00,-0.000
290.00,-0.001
291.00,-0.000
292.00,0.000
293.00,-0.002
294.00,-0.000
295.00,-0.000
296.00,-0.001
297.00,0.001
298.00,0.001
299.00,0.001
300.00,-0.001
301.00,-0.001
302.00,-0.001
303.00,0.000
304.00,-0.000
305.00,0.001
306.00,0.003
307.00,0.002
308.00,0.005
309.00,0.010
310.00,0.014
311.00,0.020
312.00,0.034
313.00,0.053
314.00,0.076
315.00,0.112
316.00,0.163
317.00,0.228
318.00,0.308
319.00,0.412
320.00,0.547
321.00,0.716
322.00,0.909
323.00,1.143
324.00,1.414
325.00,1.709
326.00,2.033
327.00,2.410
328.00,2.814
329.00,3.235
330.00,3.729
331.00,4.200
332.00,4.711
333.00,5.275
334.00,5.817
335.00,6.374
336.00,6.962
337.00,7.549
338.00,8.120
339.00,8.668
340.00,9.258
341.00,9.798
342.00,10.306
343.00,10.818
344.00,11.393
345.00,11.823
346.00,12.249
347.00,12.650
348.00,13.084
349.00,13.471
350.00,13.832
351.00,14.136
352.00,14.462
353.00,14.779
354.00,15.016
355.00,15.291
356.00,15.524
357.00,15.688
358.00,15.913
359.00,16.162
360.00,16.321
361.00,16.469
362.00,16.600
363.00,16.738
364.00,16.809
365.00,16.864
366.00,16.998
367.00,17.022
368.00,17.036
369.00,17.096
370.00,17.153
371.00,17.118
372.00,17.064
373.00,17.122
374.00,17.108
375.00,16.991
376.00,16.949
377.00,16.873
378.00,16.759
379.00,16.686
380.00,16.649
381.00,16.611
382.00,16.588
383.00,16.591
384.00,16.636
385.00,16.663
386.00,16.664
387.00,16.706
388.00,16.775
389.00,16.772
390.00,16.801
391.00,16.824
392.00,16.835
393.00,16.837
394.00,16.840
395.00,16.869
396.00,16.830
397.00,16.843
398.00,16.835
399.00,16.831
400.00,16.779
401.00,16.795
402.00,16.831
403.00,16.832
404.00,16.802
405.00,16.798
406.00,16.777
407.00,16.734
408.00,16.732
409.00,16.683
410.00,16.619
411.00,16.620
412.00,16.596
413.00,16.561
414.00,16.550
415.00,16.575
416.00,16.584
417.00,16.574
418.00,16.628
419.00,16.650
420.00,16.671
421.00,16.619
422.00,16.644
423.00,16.683
424.00,16.646
425.00,16.687
426.00,16.703
427.00,16.782
428.00,16.813
429.00,16.841
430.00,16.877
431.00,16.929
432.00,16.951
433.00,17.010
434.00,17.068
435.00,17.111
436.00,17.170
437.00,17.198
438.00,17.293
439.00,17.334
440.00,17.405
441.00,17.456
442.00,17.537
443.00,17.621
444.00,17.697
445.00,17.774
446.00,17.862
447.00,17.963
448.00,18.035
449.00,18.140
450.00,18.263
451.00,18.318
452.00,18.485
453.00,18.583
454.00,18.625
455.00,18.701
456.00,18.853
457.00,18.953
458.00,19.038
459.00,19.186
460.00,19.306
461.00,19.447
462.00,19.545
463.00,19.689
464.00,19.794
465.00,19.911
466.00,20.050
467.00,20.183
468.00,20.300
469.00,20.377
470.00,20.474
471.00,20.610
472.00,20.702
473.00,20.820
474.00,20.953
475.00,21.066
476.00,21.170
477.00,21.298
478.00,21.429
479.00,21.595
480.00,21.740
481.00,21.860
482.00,22.000
483.00,22.172
484.00,22.314
485.00,22.468
486.00,22.618
487.00,22.786
488.00,22.894
489.00,23.029
490.00,23.213
491.00,23.358
492.00,23.508
493.00,23.728
494.00,23.860
495.00,23.937
496.00,24.009
497.00,24.153
498.00,24.344
499.00,24.402
500.00,24.621
501.00,24.705
502.00,24.852
503.00,24.984
504.00,25.089
505.00,25.236
506.00,25.353
507.00,25.498
508.00,25.581
509.00,25.762
510.00,25.891
511.00,25.976
512.00,26.151
513.00,26.289
514.00,26.428
515.00,26.549
516.00,26.668
517.00,26.760
518.00,26.871
519.00,26.983
520.00,27.079
521.00,27.123
522.00,27.193
523.00,27.350
524.00,27.465
525.00,27.599
526.00,27.707
527.00,27.779
528.00,27.881
529.00,28.040
530.00,28.202
531.00,28.328
532.00,28.431
533.00,28.569
534.00,28.627
535.00,28.715
536.00,28.788
537.00,28.914
538.00,28.994
539.00,29.048
540.00,29.134
541.00,29.218
542.00,29.333
543.00,29.361
544.00,29.461
545.00,29.555
546.00,29.575
547.00,29.723
548.00,29.762
549.00,29.878
550.00,29.935
551.00,30.056
552.00,30.129
553.00,30.152
554.00,30.255
555.00,30.321
556.00,30.459
557.00,30.470
558.00,30.512
559.00,30.621
560.00,30.662
561.00,30.728
562.00,30.845
563.00,30.833
564.00,30.899
565.00,30.944
566.00,31.013
567.00,31.032
568.00,31.069
569.00,31.159
570.00,31.218
571.00,31.254
572.00,31.294
573.00,31.283
574.00,31.293
575.00,31.347
576.00,31.368
577.00,31.421
578.00,31.535
579.00,31.574
580.00,31.618
581.00,31.788
582.00,31.873
583.00,31.841
584.00,31.917
585.00,31.966
586.00,31.971
587.00,32.088
588.00,32.174
589.00,32.198
590.00,32.312
591.00,32.370
592.00,32.305
593.00,32.335
594.00,32.477
595.00,32.540
596.00,32.593
597.00,32.697
598.00,32.758
599.00,32.795
600.00,32.875
601.00,32.882
602.00,32.830
603.00,32.942
604.00,32.930
605.00,32.982
606.00,33.099
607.00,33.101
608.00,33.160
609.00,33.301
610.00,33.425
611.00,33.377
612.00,33.286
613.00,33.337
614.00,33.440
615.00,33.585
616.00,33.698
617.00,33.672
618.00,33.692
619.00,33.793
620.00,33.828
621.00,33.922
622.00,34.024
623.00,34.059
624.00,34.159
625.00,34.222
626.00,34.271
627.00,34.352
628.00,34.384
629.00,34.416
630.00,34.464
631.00,34.572
632.00,34.672
633.00,34.778
634.00,34.919
635.00,35.013
636.00,35.037
637.00,35.093
638.00,35.181
639.00,35.302
640.00,35.409
641.00,35.475
642.00,35.419
643.00,35.529
644.00,35.667
645.00,35.744
646.00,35.913
647.00,35.939
648.00,35.993
649.00,36.096
650.00,36.117
651.00,36.310
652.00,36.384
653.00,36.445
654.00,36.496
655.00,36.691
656.00,36.979
657.00,37.032
658.00,37.105
659.00,37.172
660.00,37.215
661.00,37.228
662.00,37.318
663.00,37.464
664.00,37.721
665.00,37.930
666.00,37.858
667.00,37.961
668.00,38.082
669.00,38.289
670.00,38.525
671.00,38.398
672.00,38.526
673.00,38.601
674.00,38.752
675.00,38.878
676.00,39.113
677.00,39.230
678.00,39.123
679.00,39.316
680.00,39.468
681.00,39.680
682.00,39.655
683.00,39.721
684.00,39.938
685.00,40.058
686.00,39.883
687.00,40.127
688.00,40.299
689.00,40.335
690.00,40.606
691.00,40.854
692.00,40.738
693.00,40.765
694.00,41.011
695.00,41.230
696.00,41.249
697.00,41.257
698.00,41.328
699.00,41.507
700.00,41.657
701.00,41.691
702.00,41.912
703.00,42.062
704.00,42.023
705.00,42.025
706.00,42.149
707.00,42.296
708.00,42.132
709.00,42.539
710.00,42.919
711.00,42.287
712.00,42.712
713.00,43.155
714.00,43.022
715.00,43.050
716.00,43.042
717.00,43.312
718.00,43.440
719.00,43.411
720.00,43.561
721.00,47.947
722.00,48.020
723.00,48.019
724.00,48.047
725.00,48.168
726.00,48.132
727.00,48.170
728.00,48.310
729.00,48.343
730.00,48.383
731.00,48.380
732.00,48.460
733.00,48.558
734.00,48.632
735.00,48.639
736.00,48.666
737.00,48.821
738.00,48.855
739.00,48.868
740.00,48.847
741.00,48.872
742.00,48.964
743.00,48.955
744.00,49.081
745.00,49.113
746.00,49.135
747.00,49.128
748.00,49.128
749.00,49.215
750.00,49.244
751.00,49.211
752.00,49.291
753.00,49.369
754.00,49.345
755.00,49.315
756.00,49.347
757.00,49.463
758.00,49.493
759.00,49.509
760.00,49.486
761.00,49.529
762.00,49.570
763.00,49.566
764.00,49.650
765.00,49.648
766.00,49.734
767.00,49.742
768.00,49.671
769.00,49.726
770.00,49.813
771.00,49.823
772.00,49.894
773.00,49.776
774.00,49.834
775.00,49.920
776.00,49.901
777.00,49.994
778.00,50.013
779.00,49.949
780.00,49.930
781.00,50.004
782.00,50.018
783.00,49.984
784.00,50.002
785.00,49.920
786.00,50.047
787.00,49.956
788.00,50.030
789.00,50.035
790.00,49.989
791.00,50.083
792.00,50.032
793.00,50.048
794.00,50.042
795.00,49.966
796.00,50.044
797.00,49.929
798.00,49.997
799.00,49.987
800.00,49.978
801.00,50.014
802.00,50.043
803.00,49.957
804.00,49.958
805.00,50.069
806.00,49.938
807.00,49.951
808.00,50.000
809.00,49.949
810.00,49.994
811.00,49.946
812.00,50.023
813.00,49.913
814.00,49.986
815.00,49.859
816.00,49.954
817.00,49.907
818.00,49.883
819.00,49.898
820.00,49.893
821.00,49.882
822.00,49.870
823.00,49.802
824.00,49.863
825.00,49.862
826.00,49.783
827.00,49.854
828.00,49.856
829.00,49.824
830.00,49.939
831.00,52.138
832.00,52.079
833.00,52.065
834.00,52.121
835.00,52.052
836.00,52.089
837.00,52.033
838.00,52.038
839.00,52.029
840.00,51.999
841.00,52.012
842.00,51.970
843.00,51.964
844.00,51.979
845.00,51.898
846.00,51.933
847.00,51.889
848.00,51.903
849.00,51.816
850.00,51.843
851.00,51.813
852.00,51.799
853.00,51.750
854.00,51.756
855.00,51.700
856.00,51.692
857.00,51.672
858.00,51.641
859.00,51.657
860.00,51.632
861.00,51.635
862.00,51.587
863.00,51.591
864.00,51.592
865.00,51.603
866.00,51.578
867.00,51.550
868.00,51.531
869.00,51.556
870.00,51.554
871.00,51.533
872.00,51.511
873.00,51.532
874.00,51.465
875.00,51.465
876.00,51.496
877.00,51.462
878.00,51.476
879.00,51.442
880.00,51.430
881.00,51.406
882.00,51.478
883.00,51.396
884.00,51.332
885.00,51.376
886.00,51.337
887.00,51.330
888.00,51.296
889.00,51.295
890.00,51.248
891.00,51.351
892.00,51.223
893.00,51.200
894.00,51.217
895.00,51.180
896.00,51.162
897.00,51.153
898.00,51.100
899.00,51.110
900.00,51.096
901.00,51.118
902.00,51.105
903.00,51.052
904.00,51.026
905.00,51.052
906.00,51.038
907.00,50.995
908.00,50.980
909.00,50.984
910.00,50.928
911.00,50.944
912.00,50.947
913.00,50.921
914.00,50.891
915.00,50.910
916.00,50.871
917.00,50.864
918.00,50.838
919.00,50.789
920.00,50.781
921.00,50.798
922.00,50.779
923.00,50.742
924.00,50.705
925.00,50.708
926.00,50.681
927.00,50.654
928.00,50.629
929.00,50.638
930.00,50.596
931.00,50.605
932.00,50.552
933.00,50.540
934.00,50.548
935.00,50.516
936.00,50.503
937.00,50.500
938.00,50.472
939.00,50.473
940.00,50.432
941.00,50.429
942.00,50.435
943.00,50.404
944.00,50.350
945.00,50.375
946.00,50.487
947.00,50.337
948.00,50.315
949.00,50.285
950.00,50.271
951.00,50.252
952.00,50.228
953.00,50.188
954.00,50.176
955.00,50.140
956.00,50.135
957.00,50.117
958.00,50.098
959.00,50.074
960.00,50.056
961.00,50.048
962.00,50.034
963.00,50.003
964.00,50.009
965.00,50.017
966.00,49.973
967.00,49.963
968.00,49.936
969.00,49.986
970.00,49.935
971.00,49.956
972.00,49.940
973.00,49.966
974.00,49.985
975.00,49.958
976.00,49.963
977.00,49.969
978.00,50.013
979.00,49.954
980.00,49.973
981.00,49.976
982.00,49.938
983.00,49.952
984.00,49.932
985.00,49.947
986.00,49.934
987.00,49.923
988.00,49.910
989.00,49.895
990.00,49.885
991.00,49.872
992.00,49.898
993.00,49.852
994.00,49.830
995.00,49.815
996.00,49.805
997.00,49.798
998.00,49.772
999.00,49.777
1000.00,49.737
1001.00,49.729
1002.00,49.734
1003.00,49.723
1004.00,49.704
1005.00,49.679
1006.00,49.717
1007.00,49.679
1008.00,49.685
1009.00,49.670
1010.00,49.652
1011.00,49.656
1012.00,49.613
1013.00,49.618
1014.00,49.577
1015.00,49.583
1016.00,49.536
1017.00,49.545
1018.00,49.537
1019.00,49.517
1020.00,49.508
1021.00,49.491
1022.00,49.481
1023.00,49.443
1024.00,49.450
1025.00,49.430
1026.00,49.413
1027.00,49.401
1028.00,49.395
1029.00,49.369
1030.00,49.343
1031.00,49.353
1032.00,49.320
1033.00,49.322
1034.00,49.298
1035.00,49.272
1036.00,49.246
1037.00,49.234
1038.00,49.209
1039.00,49.180
1040.00,49.182
1041.00,49.145
1042.00,49.153
1043.00,49.121
1044.00,49.165
1045.00,49.140
1046.00,49.130
1047.00,49.159
1048.00,49.163
1049.00,49.170
1050.00,49.168
1051.00,49.215
1052.00,49.217
1053.00,49.218
1054.00,49.224
1055.00,49.248
1056.00,49.251
1057.00,49.238
1058.00,49.225
1059.00,49.215
1060.00,49.224
1061.00,49.214
1062.00,49.207
1063.00,49.212
1064.00,49.214
1065.00,49.207
1066.00,49.197
1067.00,49.184
1068.00,49.201
1069.00,49.165
1070.00,49.148
1071.00,49.129
1072.00,49.136
1073.00,49.122
1074.00,49.127
1075.00,49.109
1076.00,49.112
1077.00,49.098
1078.00,49.068
1079.00,49.070
1080.00,49.075
1081.00,49.053
1082.00,49.058
1083.00,49.042
1084.00,49.038
1085.00,49.050
1086.00,49.035
1087.00,49.034
1088.00,49.012
1089.00,49.003
1090.00,49.005
1091.00,49.004
1092.00,48.993
1093.00,48.982
1094.00,48.972
1095.00,48.958
1096.00,48.958
1097.00,48.954
1098.00,48.965
1099.00,48.939
1100.00,48.921
1101.00,48.917
1102.00,48.899
1103.00,48.908
1104.00,48.903
1105.00,48.895
1106.00,48.871
1107.00,48.877
1108.00,48.864
1109.00,48.858
1110.00,48.854
1111.00,48.828
1112.00,48.827
1113.00,48.818
1114.00,48.797
1115.00,48.808
1116.00,48.789
1117.00,48.774
1118.00,48.782
1119.00,48.774
1120.00,48.774
1121.00,48.779
1122.00,48.767
1123.00,48.752
1124.00,48.746
1125.00,48.739
1126.00,48.733
1127.00,48.738
1128.00,48.719
1129.00,48.707
1130.00,48.688
1131.00,48.699
1132.00,48.686
1133.00,48.693
1134.00,48.687
1135.00,48.672
1136.00,48.676
1137.00,48.667
1138.00,48.667
1139.00,48.681
1140.00,48.676
1141.00,48.663
1142.00,48.649
1143.00,48.675
1144.00,48.641
1145.00,48.650
1146.00,48.647
1147.00,48.638
1148.00,48.630
1149.00,48.639
1150.00,48.632
1151.00,48.639
1152.00,48.630
1153.00,48.622
1154.00,48.617
1155.00,48.623
1156.00,48.596
1157.00,48.608
1158.00,48.580
1159.00,48.591
1160.00,48.593
1161.00,48.600
1162.00,48.591
1163.00,48.575
1164.00,48.581
1165.00,48.590
1166.00,48.601
1167.00,48.586
1168.00,48.597
1169.00,48.595
1170.00,48.590
1171.00,48.563
1172.00,48.593
1173.00,48.590
1174.00,48.604
1175.00,48.614
1176.00,48.602
1177.00,48.580
1178.00,48.587
1179.00,48.606
1180.00,48.586
1181.00,48.591
1182.00,48.576
1183.00,48.571
1184.00,48.560
1185.00,48.569
1186.00,48.554
1187.00,48.594
1188.00,48.577
1189.00,48.572
1190.00,48.559
1191.00,48.547
1192.00,48.567
1193.00,48.550
1194.00,48.563
1195.00,48.545
1196.00,48.573
1197.00,48.573
1198.00,48.565
1199.00,48.573
1200.00,48.581
1201.00,48.599
1202.00,48.581
1203.00,48.579
1204.00,48.575
1205.00,48.589
1206.00,48.579
1207.00,48.575
1208.00,48.562
1209.00,48.571
1210.00,48.566
1211.00,48.565
1212.00,48.585
1213.00,48.551
1214.00,48.576
1215.00,48.565
1216.00,48.571
1217.00,48.585
1218.00,48.575
1219.00,48.590
1220.00,48.587
1221.00,48.587
1222.00,48.578
1223.00,48.613
1224.00,48.597
1225.00,48.589
1226.00,48.601
1227.00,48.585
1228.00,48.607
1229.00,48.608
1230.00,48.636
1231.00,48.624
1232.00,48.629
1233.00,48.642
1234.00,48.645
1235.00,48.640
1236.00,48.664
1237.00,48.655
1238.00,48.646
1239.00,48.654
1240.00,48.641
1241.00,48.653
1242.00,48.653
1243.00,48.658
1244.00,48.638
1245.00,48.667
1246.00,48.672
1247.00,48.664
1248.00,48.661
1249.00,48.677
1250.00,48.691
1251.00,48.676
1252.00,48.685
1253.00,48.675
1254.00,48.703
1255.00,48.688
1256.00,48.682
1257.00,48.656
1258.00,48.711
1259.00,48.700
1260.00,48.714
1261.00,48.723
1262.00,48.716
1263.00,48.725
1264.00,48.734
1265.00,48.738
1266.00,48.739
1267.00,48.758
1268.00,48.750
1269.00,48.755
1270.00,48.784
1271.00,48.777
1272.00,48.776
1273.00,48.783
1274.00,48.795
1275.00,48.802
1276.00,48.794
1277.00,48.813
1278.00,48.826
1279.00,48.827
1280.00,48.823
1281.00,48.844
1282.00,48.843
1283.00,48.849
1284.00,48.855
1285.00,48.837
1286.00,48.853
1287.00,48.842
1288.00,48.861
1289.00,48.855
1290.00,48.876
1291.00,48.866
1292.00,48.894
1293.00,48.880
1294.00,48.891
1295.00,48.923
1296.00,48.932
1297.00,48.917
1298.00,48.959
1299.00,48.924
1300.00,48.955
1301.00,48.939
1302.00,48.966
1303.00,48.967
1304.00,48.948
1305.00,48.986
1306.00,48.985
1307.00,49.009
1308.00,49.002
1309.00,49.008
1310.00,49.011
1311.00,48.995
1312.00,49.000
1313.00,49.014
1314.00,49.041
1315.00,49.046
1316.00,49.045
1317.00,49.076
1318.00,49.076
1319.00,49.085
1320.00,49.086
1321.00,49.248
1322.00,49.252
1323.00,49.218
1324.00,49.230
1325.00,49.237
1326.00,49.239
1327.00,49.224
1328.00,49.240
1329.00,49.221
1330.00,49.239
1331.00,49.248
1332.00,49.242
1333.00,49.266
1334.00,49.276
1335.00,49.289
1336.00,49.331
1337.00,49.368
1338.00,49.423
1339.00,49.465
1340.00,49.516
1341.00,49.587
1342.00,49.658
1343.00,49.699
1344.00,49.744
1345.00,49.802
1346.00,49.837
1347.00,49.859
1348.00,49.885
1349.00,49.908
1350.00,49.931
1351.00,49.941
1352.00,49.962
1353.00,49.977
1354.00,49.983
1355.00,50.083
1356.00,49.995
1357.00,49.986
1358.00,50.044
1359.00,50.006
1360.00,50.028
1361.00,50.047
1362.00,49.979
1363.00,50.048
1364.00,50.011
1365.00,50.024
1366.00,50.054
1367.00,50.019
1368.00,49.998
1369.00,50.028
1370.00,49.997
1371.00,49.991
1372.00,50.000
1373.00,50.013
1374.00,50.028
1375.00,50.005
1376.00,50.000
1377.00,49.992
1378.00,50.080
1379.00,50.041
1380.00,50.025
1381.00,50.040
1382.00,49.998
1383.00,49.994
1384.00,49.967
1385.00,49.966
1386.00,50.016
1387.00,50.000
1388.00,49.966
1389.00,49.965
1390.00,49.975
1391.00,49.992
1392.00,49.956
1393.00,50.016
1394.00,50.009
1395.00,49.941
1396.00,49.961
1397.00,50.042
1398.00,50.023
1399.00,50.016
1400.00,49.995
1401.00,49.981
1402.00,50.062
1403.00,50.018
1404.00,50.008
1405.00,50.051
1406.00,50.077
1407.00,50.057
1408.00,50.071
1409.00,50.049
1410.00,50.101
1411.00,50.059
1412.00,50.132
1413.00,50.099
1414.00,50.080
1415.00,50.111
1416.00,50.121
1417.00,50.140
1418.00,50.127
1419.00,50.144
1420.00,50.170
1421.00,50.224
1422.00,50.216
1423.00,50.228
1424.00,50.246
1425.00,50.264
1426.00,50.271
1427.00,50.301
1428.00,50.293
1429.00,50.317
1430.00,50.328
1431.00,50.349
1432.00,50.370
1433.00,50.386
1434.00,50.382
1435.00,50.431
1436.00,50.444
1437.00,50.425
1438.00,50.449
1439.00,50.465
1440.00,50.493
1441.00,50.497
1442.00,50.526
1443.00,50.531
1444.00,50.578
1445.00,50.569
1446.00,50.585
1447.00,50.613
1448.00,50.676
1449.00,50.654
1450.00,50.658
1451.00,50.670
1452.00,50.717
1453.00,50.710
1454.00,50.742
1455.00,50.764
1456.00,50.779
1457.00,50.789
1458.00,50.808
1459.00,50.828
1460.00,50.859
1461.00,50.849
1462.00,50.892
1463.00,50.895
1464.00,50.913
1465.00,50.939
1466.00,50.923
1467.00,50.958
1468.00,50.999
1469.00,50.963
1470.00,51.005
1471.00,51.025
1472.00,51.029
1473.00,51.069
1474.00,51.094
1475.00,51.099
1476.00,51.124
1477.00,51.101
1478.00,51.133
1479.00,51.156
1480.00,51.141
1481.00,51.164
1482.00,51.196
1483.00,51.201
1484.00,51.208
1485.00,51.224
1486.00,51.229
1487.00,51.279
1488.00,51.291
1489.00,51.272
1490.00,51.303
1491.00,51.318
1492.00,51.345
1493.00,51.330
1494.00,51.370
1495.00,51.350
1496.00,51.383
1497.00,51.368
1498.00,51.397
1499.00,51.411
1500.00,51.424
1501.00, 
1502.00, 
1503.00, 
1504.00, 
1505.00, 
1506.00, 
1507.00, 
1508.00, 
1509.00, 
1510.00, 
1511.00, 
1512.00, 
1513.00, 
1514.00, 
1515.00, 
1516.00, 
1517.00, 
1518.00, 
1519.00, 
1520.00, 
1521.00, 
1522.00, 
1523.00, 
1524.00, 
1525.00, 
1526.00, 
1527.00, 
1528.00, 
1529.00, 
1530.00, 
1531.00, 
1532.00, 
1533.00, 
1534.00, 
1535.00, 
1536.00, 
1537.00, 
1538.00, 
1539.00, 
1540.00, 
1541.00, 
1542.00, 
1543.00, 
1544.00, 
1545.00, 
1546.00, 
1547.00, 
1548.00, 
1549.00, 
1550.00, 
1551.00, 
1552.00, 
1553.00, 
1554.00, 
1555.00, 
1556.00, 
1557.00, 
1558.00, 
1559.00, 
1560.00, 
1561.00, 
1562.00, 
1563.00, 
1564.00, 
1565.00, 
1566.00, 
1567.00, 
1568.00, 
1569.00, 
1570.00, 
1571.00, 
1572.00, 
1573.00, 
1574.00, 
1575.00, 
1576.00, 
1577.00, 
1578.00, 
1579.00, 
1580.00, 
1581.00, 
1582.00, 
1583.00, 
1584.00, 
1585.00, 
1586.00, 
1587.00, 
1588.00, 
1589.00, 
1590.00, 
1591.00, 
1592.00, 
1593.00, 
1594.00, 
1595.00, 
1596.00, 
1597.00, 
1598.00, 
1599.00, 
1600.00, 
1601.00, 
1602.00, 
1603.00, 
1604.00, 
1605.00, 
1606.00, 
1607.00, 
1608.00, 
1609.00, 
1610.00, 
1611.00, 
1612.00, 
1613.00, 
1614.00, 
1615.00, 
1616.00, 
1617.00, 
1618.00, 
1619.00, 
1620.00, 
1621.00, 
1622.00, 
1623.00, 
1624.00, 
1625.00, 
1626.00, 
1627.00, 
1628.00, 
1629.00, 
1630.00, 
1631.00, 
1632.00, 
1633.00, 
1634.00, 
1635.00, 
1636.00, 
1637.00, 
1638.00, 
1639.00, 
1640.00, 
1641.00, 
1642.00, 
1643.00, 
1644.00, 
1645.00, 
1646.00, 
1647.00, 
1648.00, 
1649.00, 
1650.00, 
1651.00, 
1652.00, 
1653.00, 
1654.00, 
1655.00, 
1656.00, 
1657.00, 
1658.00, 
1659.00, 
1660.00, 
1661.00, 
1662.00, 
1663.00, 
1664.00, 
1665.00, 
1666.00, 
1667.00, 
1668.00, 
1669.00, 
1670.00, 
1671.00, 
1672.00, 
1673.00, 
1674.00, 
1675.00, 
1676.00, 
1677.00, 
1678.00, 
1679.00, 
1680.00, 
1681.00, 
1682.00, 
1683.00, 
1684.00, 
1685.00, 
1686.00, 
1687.00, 
1688.00, 
1689.00, 
1690.00, 
1691.00, 
1692.00, 
1693.00, 
1694.00, 
1695.00, 
1696.00, 
1697.00, 
1698.00, 
1699.00, 
1700.00, 
1701.00, 
1702.00, 
1703.00, 
1704.00, 
1705.00, 
1706.00, 
1707.00, 
1708.00, 
1709.00, 
1710.00, 
1711.00, 
1712.00, 
1713.00, 
1714.00, 
1715.00, 
1716.00, 
1717.00, 
1718.00, 
1719.00, 
1720.00, 
1721.00, 
1722.00, 
1723.00, 
1724.00, 
1725.00, 
1726.00, 
1727.00, 
1728.00, 
1729.00, 
1730.00, 
1731.00, 
1732.00, 
1733.00, 
1734.00, 
1735.00, 
1736.00, 
1737.00, 
1738.00, 
1739.00, 
1740.00, 
1741.00, 
1742.00, 
1743.00, 
1744.00, 
1745.00, 
1746.00, 
1747.00, 
1748.00, 
1749.00, 
1750.00, 
1751.00, 
1752.00, 
1753.00, 
1754.00, 
1755.00, 
1756.00, 
1757.00, 
1758.00, 
1759.00, 
1760.00, 
1761.00, 
1762.00, 
1763.00, 
1764.00, 
1765.00, 
1766.00, 
1767.00, 
1768.00, 
1769.00, 
1770.00, 
1771.00, 
1772.00, 
1773.00, 
1774.00, 
1775.00, 
1776.00, 
1777.00, 
1778.00, 
1779.00, 
1780.00, 
1781.00, 
1782.00, 
1783.00, 
1784.00, 
1785.00, 
1786.00, 
1787.00, 
1788.00, 
1789.00, 
1790.00, 
1791.00, 
1792.00, 
1793.00, 
1794.00, 
1795.00, 
1796.00, 
1797.00, 
1798.00, 
1799.00, 
1800.00, 
1801.00, 
1802.00, 
1803.00, 
1804.00, 
1805.00, 
1806.00, 
1807.00, 
1808.00, 
1809.00, 
1810.00, 
1811.00, 
1812.00, 
1813.00, 
1814.00, 
1815.00, 
1816.00, 
1817.00, 
1818.00, 
1819.00, 
1820.00, 
1821.00, 
1822.00, 
1823.00, 
1824.00, 
1825.00, 
1826.00, 
1827.00, 
1828.00, 
1829.00, 
1830.00, 
1831.00, 
1832.00, 
1833.00, 
1834.00, 
1835.00, 
1836.00, 
1837.00, 
1838.00, 
1839.00, 
1840.00, 
1841.00, 
1842.00, 
1843.00, 
1844.00, 
1845.00, 
1846.00, 
1847.00, 
1848.00, 
1849.00, 
1850.00, 
1851.00, 
1852.00, 
1853.00, 
1854.00, 
1855.00, 
1856.00, 
1857.00, 
1858.00, 
1859.00, 
1860.00, 
1861.00, 
1862.00, 
1863.00, 
1864.00, 
1865.00, 
1866.00, 
1867.00, 
1868.00, 
1869.00, 
1870.00, 
1871.00, 
1872.00, 
1873.00, 
1874.00, 
1875.00, 
1876.00, 
1877.00, 
1878.00, 
1879.00, 
1880.00, 
1881.00, 
1882.00, 
1883.00, 
1884.00, 
1885.00, 
1886.00, 
1887.00, 
1888.00, 
1889.00, 
1890.00, 
1891.00, 
1892.00, 
1893.00, 
1894.00, 
1895.00, 
1896.00, 
1897.00, 
1898.00, 
1899.00, 
1900.00, 
1901.00, 
1902.00, 
1903.00, 
1904.00, 
1905.00, 
1906.00, 
1907.00, 
1908.00, 
1909.00, 
1910.00, 
1911.00, 
1912.00, 
1913.00, 
1914.00, 
1915.00, 
1916.00, 
1917.00, 
1918.00, 
1919.00, 
1920.00, 
1921.00, 
1922.00, 
1923.00, 
1924.00, 
1925.00, 
1926.00, 
1927.00, 
1928.00, 
1929.00, 
1930.00, 
1931.00, 
1932.00, 
1933.00, 
1934.00, 
1935.00, 
1936.00, 
1937.00, 
1938.00, 
1939.00, 
1940.00, 
1941.00, 
1942.00, 
1943.00, 
1944.00, 
1945.00, 
1946.00, 
1947.00, 
1948.00, 
1949.00, 
1950.00, 
1951.00, 
1952.00, 
1953.00, 
1954.00, 
1955.00, 
1956.00, 
1957.00, 
1958.00, 
1959.00, 
1960.00, 
1961.00, 
1962.00, 
1963.00, 
1964.00, 
1965.00, 
1966.00, 
1967.00, 
1968.00, 
1969.00, 
1970.00, 
1971.00, 
1972.00, 
1973.00, 
1974.00, 
1975.00, 
1976.00, 
1977.00, 
1978.00, 
1979.00, 
1980.00, 
1981.00, 
1982.00, 
1983.00, 
1984.00, 
1985.00, 
1986.00, 
1987.00, 
1988.00, 
1989.00, 
1990.00, 
1991.00, 
1992.00, 
1993.00, 
1994.00, 
1995.00, 
1996.00, 
1997.00, 
1998.00, 
1999.00, 
2000.00, 
2001.00, 
2002.00, 
2003.00, 
2004.00, 
2005.00, 
2006.00, 
2007.00, 
2008.00, 
2009.00, 
2010.00, 
2011.00, 
2012.00, 
2013.00, 
2014.00, 
2015.00, 
2016.00, 
2017.00, 
2018.00, 
2019.00, 
2020.00, 
2021.00, 
2022.00, 
2023.00, 
2024.00, 
2025.00, 
2026.00, 
2027.00, 
2028.00, 
2029.00, 
2030.00, 
2031.00, 
2032.00, 
2033.00, 
2034.00, 
2035.00, 
2036.00, 
2037.00, 
2038.00, 
2039.00, 
2040.00, 
2041.00, 
2042.00, 
2043.00, 
2044.00, 
2045.00, 
2046.00, 
2047.00, 
2048.00, 
2049.00, 
2050.00, 
2051.00, 
2052.00, 
2053.00, 
2054.00, 
2055.00, 
2056.00, 
2057.00, 
2058.00, 
2059.00, 
2060.00, 
2061.00, 
2062.00, 
2063.00, 
2064.00, 
2065.00, 
2066.00, 
2067.00, 
2068.00, 
2069.00, 
2070.00, 
2071.00, 
2072.00, 
2073.00, 
2074.00, 
2075.00, 
2076.00, 
2077.00, 
2078.00, 
2079.00, 
2080.00, 
2081.00, 
2082.00, 
2083.00, 
2084.00, 
2085.00, 
2086.00, 
2087.00, 
2088.00, 
2089.00, 
2090.00, 
2091.00, 
2092.00, 
2093.00, 
2094.00, 
2095.00, 
2096.00, 
2097.00, 
2098.00, 
2099.00, 
2100.00, 
2101.00, 
2102.00, 
2103.00, 
2104.00, 
2105.00, 
2106.00, 
2107.00, 
2108.00, 
2109.00, 
2110.00, 
2111.00, 
2112.00, 
2113.00, 
2114.00, 
2115.00, 
2116.00, 
2117.00, 
2118.00, 
2119.00, 
2120.00, 
2121.00, 
2122.00, 
2123.00, 
2124.00, 
2125.00, 
2126.00, 
2127.00, 
2128.00, 
2129.00, 
2130.00, 
2131.00, 
2132.00, 
2133.00, 
2134.00, 
2135.00, 
2136.00, 
2137.00, 
2138.00, 
2139.00, 
2140.00, 
2141.00, 
2142.00, 
2143.00, 
2144.00, 
2145.00, 
2146.00, 
2147.00, 
2148.00, 
2149.00, 
2150.00, 
2151.00, 
2152.00, 
2153.00, 
2154.00, 
2155.00, 
2156.00, 
2157.00, 
2158.00, 
2159.00, 
2160.00, 
2161.00, 
2162.00, 
2163.00, 
2164.00, 
2165.00, 
2166.00, 
2167.00, 
2168.00, 
2169.00, 
2170.00, 
2171.00, 
2172.00, 
2173.00, 
2174.00, 
2175.00, 
2176.00, 
2177.00, 
2178.00, 
2179.00, 
2180.00, 
2181.00, 
2182.00, 
2183.00, 
2184.00, 
2185.00, 
2186.00, 
2187.00, 
2188.00, 
2189.00, 
2190.00, 
2191.00, 
2192.00, 
2193.00, 
2194.00, 
2195.00, 
2196.00, 
2197.00, 
2198.00, 
2199.00, 
2200.00, 
2201.00, 
2202.00, 
2203.00, 
2204.00, 
2205.00, 
2206.00, 
2207.00, 
2208.00, 
2209.00, 
2210.00, 
2211.00, 
2212.00, 
2213.00, 
2214.00, 
2215.00, 
2216.00, 
2217.00, 
2218.00, 
2219.00, 
2220.00, 
2221.00, 
2222.00, 
2223.00, 
2224.00, 
2225.00, 
2226.00, 
2227.00, 
2228.00, 
2229.00, 
2230.00, 
2231.00, 
2232.00, 
2233.00, 
2234.00, 
2235.00, 
2236.00, 
2237.00, 
2238.00, 
2239.00, 
2240.00, 
2241.00, 
2242.00, 
2243.00, 
2244.00, 
2245.00, 
2246.00, 
2247.00, 
2248.00, 
2249.00, 
2250.00, 
2251.00, 
2252.00, 
2253.00, 
2254.00, 
2255.00, 
2256.00, 
2257.00, 
2258.00, 
2259.00, 
2260.00, 
2261.00, 
2262.00, 
2263.00, 
2264.00, 
2265.00, 
2266.00, 
2267.00, 
2268.00, 
2269.00, 
2270.00, 
2271.00, 
2272.00, 
2273.00, 
2274.00, 
2275.00, 
2276.00, 
2277.00, 
2278.00, 
2279.00, 
2280.00, 
2281.00, 
2282.00, 
2283.00, 
2284.00, 
2285.00, 
2286.00, 
2287.00, 
2288.00, 
2289.00, 
2290.00, 
2291.00, 
2292.00, 
2293.00, 
2294.00, 
2295.00, 
2296.00, 
2297.00, 
2298.00, 
2299.00, 
2300.00, 
2301.00, 
2302.00, 
2303.00, 
2304.00, 
2305.00, 
2306.00, 
2307.00, 
2308.00, 
2309.00, 
2310.00, 
2311.00, 
2312.00, 
2313.00, 
2314.00, 
2315.00, 
2316.00, 
2317.00, 
2318.00, 
2319.00, 
2320.00, 
2321.00, 
2322.00, 
2323.00, 
2324.00, 
2325.00, 
2326.00, 
2327.00, 
2328.00, 
2329.00, 
2330.00, 
2331.00, 
2332.00, 
2333.00, 
2334.00, 
2335.00, 
2336.00, 
2337.00, 
2338.00, 
2339.00, 
2340.00, 
2341.00, 
2342.00, 
2343.00, 
2344.00, 
2345.00, 
2346.00, 
2347.00, 
2348.00, 
2349.00, 
2350.00, 
2351.00, 
2352.00, 
2353.00, 
2354.00, 
2355.00, 
2356.00, 
2357.00, 
2358.00, 
2359.00, 
2360.00, 
2361.00, 
2362.00, 
2363.00, 
2364.00, 
2365.00, 
2366.00, 
2367.00, 
2368.00, 
2369.00, 
2370.00, 
2371.00, 
2372.00, 
2373.00, 
2374.00, 
2375.00, 
2376.00, 
2377.00, 
2378.00, 
2379.00, 
2380.00, 
2381.00, 
2382.00, 
2383.00, 
2384.00, 
2385.00, 
2386.00, 
2387.00, 
2388.00, 
2389.00, 
2390.00, 
2391.00, 
2392.00, 
2393.00, 
2394.00, 
2395.00, 
2396.00, 
2397.00, 
2398.00, 
2399.00, 
2400.00, 
2401.00, 
2402.00, 
2403.00, 
2404.00, 
2405.00, 
2406.00, 
2407.00, 
2408.00, 
2409.00, 
2410.00, 
2411.00, 
2412.00, 
2413.00, 
2414.00, 
2415.00, 
2416.00, 
2417.00, 
2418.00, 
2419.00, 
2420.00, 
2421.00, 
2422.00, 
2423.00, 
2424.00, 
2425.00, 
2426.00, 
2427.00, 
2428.00, 
2429.00, 
2430.00, 
2431.00, 
2432.00, 
2433.00, 
2434.00, 
2435.00, 
2436.00, 
2437.00, 
2438.00, 
2439.00, 
2440.00, 
2441.00, 
2442.00, 
2443.00, 
2444.00, 
2445.00, 
2446.00, 
2447.00, 
2448.00, 
2449.00, 
2450.00, 
2451.00, 
2452.00, 
2453.00, 
2454.00, 
2455.00, 
2456.00, 
2457.00, 
2458.00, 
2459.00, 
2460.00, 
2461.00, 
2462.00, 
2463.00, 
2464.00, 
2465.00, 
2466.00, 
2467.00, 
2468.00, 
2469.00, 
2470.00, 
2471.00, 
2472.00, 
2473.00, 
2474.00, 
2475.00, 
2476.00, 
2477.00, 
2478.00, 
2479.00, 
2480.00, 
2481.00, 
2482.00, 
2483.00, 
2484.00, 
2485.00, 
2486.00, 
2487.00, 
2488.00, 
2489.00, 
2490.00, 
2491.00, 
2492.00, 
2493.00, 
2494.00, 
2495.00, 
2496.00, 
2497.00, 
2498.00, 
2499.00, 
2500.00, 
2501.00, 
2502.00, 
2503.00, 
2504.00, 
2505.00, 
2506.00, 
2507.00, 
2508.00, 
2509.00, 
2510.00, 
2511.00, 
2512.00, 
2513.00, 
2514.00, 
2515.00, 
2516.00, 
2517.00, 
2518.00, 
2519.00, 
2520.00, 
2521.00, 
2522.00, 
2523.00, 
2524.00, 
2525.00, 
2526.00, 
2527.00, 
2528.00, 
2529.00, 
2530.00, 
2531.00, 
2532.00, 
2533.00, 
2534.00, 
2535.00, 
2536.00, 
2537.00, 
2538.00, 
2539.00, 
2540.00, 
2541.00, 
2542.00, 
2543.00, 
2544.00, 
2545.00, 
2546.00, 
2547.00, 
2548.00, 
2549.00, 
2550.00, 
2551.00, 
2552.00, 
2553.00, 
2554.00, 
2555.00, 
2556.00, 
2557.00, 
2558.00, 
2559.00, 
2560.00, 
2561.00, 
2562.00, 
2563.00, 
2564.00, 
2565.00, 
2566.00, 
2567.00, 
2568.00, 
2569.00, 
2570.00, 
2571.00, 
2572.00, 
2573.00, 
2574.00, 
2575.00, 
2576.00, 
2577.00, 
2578.00, 
2579.00, 
2580.00, 
2581.00, 
2582.00, 
2583.00, 
2584.00, 
2585.00, 
2586.00, 
2587.00, 
2588.00, 
2589.00, 
2590.00, 
2591.00, 
2592.00, 
2593.00, 
2594.00, 
2595.00, 
2596.00, 
2597.00, 
2598.00, 
2599.00, 
2600.00, 
