"1cP2 - RawData"
"Wavelength nm.","T%"
200.00,0.004
201.00,0.001
202.00,0.000
203.00,0.003
204.00,0.003
205.00,0.002
206.00,0.001
207.00,0.002
208.00,0.000
209.00,-0.000
210.00,0.001
211.00,0.002
212.00,0.001
213.00,0.000
214.00,0.000
215.00,0.001
216.00,-0.001
217.00,0.002
218.00,0.001
219.00,0.001
220.00,-0.000
221.00,0.002
222.00,-0.001
223.00,0.000
224.00,0.001
225.00,0.000
226.00,-0.000
227.00,0.000
228.00,0.000
229.00,-0.001
230.00,0.001
231.00,-0.000
232.00,0.000
233.00,0.001
234.00,0.000
235.00,0.001
236.00,0.001
237.00,-0.001
238.00,0.000
239.00,-0.000
240.00,-0.000
241.00,0.001
242.00,0.003
243.00,0.001
244.00,-0.000
245.00,0.002
246.00,-0.002
247.00,-0.001
248.00,-0.001
249.00,0.001
250.00,0.001
251.00,0.001
252.00,-0.001
253.00,-0.001
254.00,-0.001
255.00,0.001
256.00,0.002
257.00,0.001
258.00,-0.000
259.00,0.000
260.00,0.001
261.00,-0.001
262.00,0.001
263.00,-0.001
264.00,0.001
265.00,-0.000
266.00,-0.001
267.00,-0.000
268.00,0.001
269.00,0.000
270.00,0.000
271.00,-0.001
272.00,-0.000
273.00,0.001
274.00,0.000
275.00,0.001
276.00,-0.001
277.00,0.000
278.00,0.000
279.00,0.000
280.00,0.001
281.00,0.001
282.00,-0.001
283.00,0.001
284.00,0.002
285.00,0.001
286.00,0.003
287.00,-0.001
288.00,-0.000
289.00,0.000
290.00,0.002
291.00,0.001
292.00,0.001
293.00,0.003
294.00,-0.001
295.00,-0.002
296.00,0.000
297.00,0.001
298.00,0.001
299.00,-0.001
300.00,0.000
301.00,0.000
302.00,-0.001
303.00,0.002
304.00,0.000
305.00,0.001
306.00,0.003
307.00,0.002
308.00,0.006
309.00,0.013
310.00,0.021
311.00,0.032
312.00,0.051
313.00,0.074
314.00,0.110
315.00,0.168
316.00,0.240
317.00,0.334
318.00,0.457
319.00,0.614
320.00,0.829
321.00,1.073
322.00,1.365
323.00,1.736
324.00,2.131
325.00,2.599
326.00,3.082
327.00,3.652
328.00,4.282
329.00,4.938
330.00,5.676
331.00,6.421
332.00,7.209
333.00,8.084
334.00,8.920
335.00,9.844
336.00,10.748
337.00,11.720
338.00,12.551
339.00,13.441
340.00,14.359
341.00,15.254
342.00,16.074
343.00,16.896
344.00,17.764
345.00,18.533
346.00,19.257
347.00,19.921
348.00,20.595
349.00,21.256
350.00,21.875
351.00,22.392
352.00,22.909
353.00,23.442
354.00,23.865
355.00,24.369
356.00,24.773
357.00,25.098
358.00,25.474
359.00,25.910
360.00,26.211
361.00,26.503
362.00,26.736
363.00,26.976
364.00,27.135
365.00,27.340
366.00,27.515
367.00,27.621
368.00,27.715
369.00,27.809
370.00,27.942
371.00,27.918
372.00,27.934
373.00,28.036
374.00,28.032
375.00,27.903
376.00,27.859
377.00,27.785
378.00,27.661
379.00,27.534
380.00,27.517
381.00,27.461
382.00,27.501
383.00,27.479
384.00,27.630
385.00,27.698
386.00,27.743
387.00,27.925
388.00,28.028
389.00,28.043
390.00,28.100
391.00,28.165
392.00,28.240
393.00,28.228
394.00,28.290
395.00,28.357
396.00,28.335
397.00,28.358
398.00,28.347
399.00,28.373
400.00,28.370
401.00,28.322
402.00,28.411
403.00,28.424
404.00,28.376
405.00,28.383
406.00,28.392
407.00,28.235
408.00,28.278
409.00,28.162
410.00,28.096
411.00,28.140
412.00,28.025
413.00,28.011
414.00,27.945
415.00,27.929
416.00,27.987
417.00,27.947
418.00,28.018
419.00,28.015
420.00,28.048
421.00,27.956
422.00,27.968
423.00,28.067
424.00,28.011
425.00,28.057
426.00,28.028
427.00,28.082
428.00,28.110
429.00,28.084
430.00,28.117
431.00,28.202
432.00,28.187
433.00,28.218
434.00,28.269
435.00,28.293
436.00,28.301
437.00,28.396
438.00,28.390
439.00,28.474
440.00,28.531
441.00,28.561
442.00,28.662
443.00,28.755
444.00,28.815
445.00,28.887
446.00,28.937
447.00,28.928
448.00,29.100
449.00,29.202
450.00,29.253
451.00,29.306
452.00,29.508
453.00,29.579
454.00,29.622
455.00,29.702
456.00,29.853
457.00,29.943
458.00,30.021
459.00,30.142
460.00,30.262
461.00,30.358
462.00,30.433
463.00,30.580
464.00,30.704
465.00,30.760
466.00,30.850
467.00,31.054
468.00,31.045
469.00,31.145
470.00,31.268
471.00,31.292
472.00,31.431
473.00,31.460
474.00,31.590
475.00,31.686
476.00,31.723
477.00,31.826
478.00,31.947
479.00,32.139
480.00,32.276
481.00,32.345
482.00,32.415
483.00,32.631
484.00,32.685
485.00,32.892
486.00,33.023
487.00,33.193
488.00,33.303
489.00,33.406
490.00,33.549
491.00,33.684
492.00,33.773
493.00,34.029
494.00,34.112
495.00,34.060
496.00,34.214
497.00,34.338
498.00,34.491
499.00,34.595
500.00,34.716
501.00,34.819
502.00,34.934
503.00,35.049
504.00,35.073
505.00,35.213
506.00,35.301
507.00,35.357
508.00,35.439
509.00,35.639
510.00,35.745
511.00,35.772
512.00,35.964
513.00,36.082
514.00,36.150
515.00,36.332
516.00,36.433
517.00,36.405
518.00,36.503
519.00,36.662
520.00,36.712
521.00,36.802
522.00,36.842
523.00,36.867
524.00,36.992
525.00,37.133
526.00,37.227
527.00,37.298
528.00,37.342
529.00,37.548
530.00,37.658
531.00,37.765
532.00,37.838
533.00,37.985
534.00,38.000
535.00,38.120
536.00,38.182
537.00,38.243
538.00,38.275
539.00,38.344
540.00,38.462
541.00,38.547
542.00,38.630
543.00,38.586
544.00,38.684
545.00,38.711
546.00,38.776
547.00,38.919
548.00,38.919
549.00,39.050
550.00,39.108
551.00,39.078
552.00,39.176
553.00,39.294
554.00,39.347
555.00,39.420
556.00,39.550
557.00,39.568
558.00,39.612
559.00,39.676
560.00,39.770
561.00,39.830
562.00,39.854
563.00,39.872
564.00,39.929
565.00,39.967
566.00,39.971
567.00,40.042
568.00,40.026
569.00,40.123
570.00,40.151
571.00,40.174
572.00,40.219
573.00,40.203
574.00,40.215
575.00,40.219
576.00,40.238
577.00,40.312
578.00,40.417
579.00,40.459
580.00,40.517
581.00,40.648
582.00,40.708
583.00,40.725
584.00,40.833
585.00,40.923
586.00,40.969
587.00,40.981
588.00,40.984
589.00,40.968
590.00,41.022
591.00,41.111
592.00,41.017
593.00,41.063
594.00,41.203
595.00,41.283
596.00,41.264
597.00,41.368
598.00,41.420
599.00,41.407
600.00,41.575
601.00,41.559
602.00,41.482
603.00,41.537
604.00,41.504
605.00,41.578
606.00,41.681
607.00,41.687
608.00,41.712
609.00,41.802
610.00,42.019
611.00,41.815
612.00,41.826
613.00,41.898
614.00,41.935
615.00,41.996
616.00,42.131
617.00,42.041
618.00,42.018
619.00,42.145
620.00,42.121
621.00,42.233
622.00,42.284
623.00,42.345
624.00,42.390
625.00,42.465
626.00,42.488
627.00,42.463
628.00,42.444
629.00,42.513
630.00,42.526
631.00,42.604
632.00,42.737
633.00,42.804
634.00,42.857
635.00,42.983
636.00,43.008
637.00,42.951
638.00,43.018
639.00,43.089
640.00,43.218
641.00,43.234
642.00,43.209
643.00,43.237
644.00,43.382
645.00,43.381
646.00,43.550
647.00,43.568
648.00,43.522
649.00,43.542
650.00,43.584
651.00,43.716
652.00,43.739
653.00,43.734
654.00,43.781
655.00,43.974
656.00,44.227
657.00,44.245
658.00,44.291
659.00,44.221
660.00,44.266
661.00,44.228
662.00,44.214
663.00,44.387
664.00,44.640
665.00,44.811
666.00,44.672
667.00,44.631
668.00,44.696
669.00,44.899
670.00,45.094
671.00,44.900
672.00,45.042
673.00,44.885
674.00,45.239
675.00,45.614
676.00,45.428
677.00,45.481
678.00,45.318
679.00,45.574
680.00,45.680
681.00,45.775
682.00,45.725
683.00,45.692
684.00,45.818
685.00,45.873
686.00,45.689
687.00,45.931
688.00,46.067
689.00,46.003
690.00,46.254
691.00,46.511
692.00,46.171
693.00,46.129
694.00,46.398
695.00,46.563
696.00,46.638
697.00,46.542
698.00,46.533
699.00,46.704
700.00,46.691
701.00,46.775
702.00,46.941
703.00,47.025
704.00,46.993
705.00,46.865
706.00,46.936
707.00,47.072
708.00,46.793
709.00,47.218
710.00,47.632
711.00,46.991
712.00,47.199
713.00,47.385
714.00,47.379
715.00,47.351
716.00,47.363
717.00,47.492
718.00,47.699
719.00,47.556
720.00,47.699
721.00,52.265
722.00,52.130
723.00,52.124
724.00,52.210
725.00,52.206
726.00,52.165
727.00,52.088
728.00,52.199
729.00,52.169
730.00,52.215
731.00,52.222
732.00,52.139
733.00,52.230
734.00,52.235
735.00,52.267
736.00,52.142
737.00,52.221
738.00,52.322
739.00,52.233
740.00,52.148
741.00,52.260
742.00,52.169
743.00,52.188
744.00,52.219
745.00,52.246
746.00,52.166
747.00,52.193
748.00,52.216
749.00,52.168
750.00,52.143
751.00,52.047
752.00,52.076
753.00,52.120
754.00,52.086
755.00,52.016
756.00,52.022
757.00,52.065
758.00,52.039
759.00,52.054
760.00,52.024
761.00,52.061
762.00,51.997
763.00,52.053
764.00,52.045
765.00,52.059
766.00,52.045
767.00,52.080
768.00,52.033
769.00,51.918
770.00,51.999
771.00,51.948
772.00,52.054
773.00,51.897
774.00,51.971
775.00,51.963
776.00,51.902
777.00,52.037
778.00,52.010
779.00,51.954
780.00,51.912
781.00,51.879
782.00,51.880
783.00,51.827
784.00,51.769
785.00,51.744
786.00,51.827
787.00,51.787
788.00,51.756
789.00,51.718
790.00,51.699
791.00,51.692
792.00,51.608
793.00,51.675
794.00,51.607
795.00,51.571
796.00,51.606
797.00,51.556
798.00,51.551
799.00,51.448
800.00,51.480
801.00,51.508
802.00,51.487
803.00,51.404
804.00,51.358
805.00,51.443
806.00,51.354
807.00,51.337
808.00,51.316
809.00,51.250
810.00,51.291
811.00,51.232
812.00,51.246
813.00,51.284
814.00,51.211
815.00,51.123
816.00,51.172
817.00,51.047
818.00,51.077
819.00,51.065
820.00,51.042
821.00,51.043
822.00,51.093
823.00,50.912
824.00,51.013
825.00,50.960
826.00,50.952
827.00,50.991
828.00,50.769
829.00,50.900
830.00,50.876
831.00,53.288
832.00,53.239
833.00,53.204
834.00,53.215
835.00,53.172
836.00,53.171
837.00,53.141
838.00,53.148
839.00,53.115
840.00,53.036
841.00,53.074
842.00,53.027
843.00,53.010
844.00,53.006
845.00,52.935
846.00,52.967
847.00,52.910
848.00,52.910
849.00,52.843
850.00,52.828
851.00,52.760
852.00,52.764
853.00,52.721
854.00,52.701
855.00,52.592
856.00,52.641
857.00,52.600
858.00,52.539
859.00,52.544
860.00,52.506
861.00,52.548
862.00,52.461
863.00,52.474
864.00,52.450
865.00,52.427
866.00,52.438
867.00,52.408
868.00,52.402
869.00,52.371
870.00,52.387
871.00,52.358
872.00,52.341
873.00,52.351
874.00,52.327
875.00,52.272
876.00,52.300
877.00,52.253
878.00,52.271
879.00,52.173
880.00,52.240
881.00,52.161
882.00,52.204
883.00,52.162
884.00,52.134
885.00,52.100
886.00,52.065
887.00,52.218
888.00,52.029
889.00,52.030
890.00,52.013
891.00,51.983
892.00,51.967
893.00,51.920
894.00,51.941
895.00,51.904
896.00,51.878
897.00,51.862
898.00,51.810
899.00,51.826
900.00,51.783
901.00,51.808
902.00,51.781
903.00,51.753
904.00,51.711
905.00,51.720
906.00,51.707
907.00,51.659
908.00,51.635
909.00,51.632
910.00,51.586
911.00,51.584
912.00,51.577
913.00,51.531
914.00,51.513
915.00,51.493
916.00,51.465
917.00,51.448
918.00,51.440
919.00,51.403
920.00,51.382
921.00,51.386
922.00,51.344
923.00,51.330
924.00,51.315
925.00,51.311
926.00,51.256
927.00,51.306
928.00,51.199
929.00,51.221
930.00,51.172
931.00,51.165
932.00,51.128
933.00,51.138
934.00,51.126
935.00,51.088
936.00,51.067
937.00,51.052
938.00,51.031
939.00,51.047
940.00,51.007
941.00,50.972
942.00,51.112
943.00,50.953
944.00,50.902
945.00,50.920
946.00,50.891
947.00,50.858
948.00,50.827
949.00,50.817
950.00,50.801
951.00,50.794
952.00,50.763
953.00,50.723
954.00,50.703
955.00,50.642
956.00,50.654
957.00,50.605
958.00,50.629
959.00,50.575
960.00,50.560
961.00,50.559
962.00,50.556
963.00,50.502
964.00,50.504
965.00,50.505
966.00,50.466
967.00,50.465
968.00,50.432
969.00,50.478
970.00,50.425
971.00,50.441
972.00,50.425
973.00,50.456
974.00,50.471
975.00,50.440
976.00,50.440
977.00,50.433
978.00,50.480
979.00,50.428
980.00,50.445
981.00,50.439
982.00,50.400
983.00,50.418
984.00,50.410
985.00,50.416
986.00,50.380
987.00,50.379
988.00,50.437
989.00,50.344
990.00,50.327
991.00,50.316
992.00,50.329
993.00,50.302
994.00,50.294
995.00,50.289
996.00,50.266
997.00,50.269
998.00,50.238
999.00,50.244
1000.00,50.205
1001.00,50.169
1002.00,50.149
1003.00,50.170
1004.00,50.143
1005.00,50.139
1006.00,50.182
1007.00,50.145
1008.00,50.146
1009.00,50.116
1010.00,50.103
1011.00,50.094
1012.00,50.046
1013.00,50.046
1014.00,50.004
1015.00,50.022
1016.00,49.980
1017.00,49.982
1018.00,49.955
1019.00,49.946
1020.00,49.940
1021.00,49.921
1022.00,49.922
1023.00,49.871
1024.00,49.879
1025.00,49.848
1026.00,49.828
1027.00,49.802
1028.00,49.796
1029.00,49.773
1030.00,49.747
1031.00,49.757
1032.00,49.713
1033.00,49.724
1034.00,49.693
1035.00,49.670
1036.00,49.658
1037.00,49.657
1038.00,49.645
1039.00,49.615
1040.00,49.605
1041.00,49.555
1042.00,49.553
1043.00,49.527
1044.00,49.566
1045.00,49.539
1046.00,49.529
1047.00,49.567
1048.00,49.570
1049.00,49.580
1050.00,49.574
1051.00,49.608
1052.00,49.612
1053.00,49.614
1054.00,49.606
1055.00,49.627
1056.00,49.627
1057.00,49.632
1058.00,49.624
1059.00,49.617
1060.00,49.625
1061.00,49.622
1062.00,49.601
1063.00,49.601
1064.00,49.636
1065.00,49.583
1066.00,49.592
1067.00,49.575
1068.00,49.591
1069.00,49.549
1070.00,49.530
1071.00,49.534
1072.00,49.548
1073.00,49.525
1074.00,49.529
1075.00,49.508
1076.00,49.520
1077.00,49.508
1078.00,49.484
1079.00,49.494
1080.00,49.500
1081.00,49.477
1082.00,49.480
1083.00,49.477
1084.00,49.470
1085.00,49.477
1086.00,49.453
1087.00,49.458
1088.00,49.432
1089.00,49.407
1090.00,49.402
1091.00,49.404
1092.00,49.393
1093.00,49.375
1094.00,49.368
1095.00,49.349
1096.00,49.332
1097.00,49.323
1098.00,49.312
1099.00,49.310
1100.00,49.296
1101.00,49.298
1102.00,49.285
1103.00,49.289
1104.00,49.279
1105.00,49.278
1106.00,49.257
1107.00,49.262
1108.00,49.249
1109.00,49.234
1110.00,49.233
1111.00,49.213
1112.00,49.194
1113.00,49.192
1114.00,49.167
1115.00,49.178
1116.00,49.171
1117.00,49.156
1118.00,49.162
1119.00,49.158
1120.00,49.161
1121.00,49.158
1122.00,49.137
1123.00,49.140
1124.00,49.130
1125.00,49.120
1126.00,49.104
1127.00,49.111
1128.00,49.089
1129.00,49.082
1130.00,49.063
1131.00,49.077
1132.00,49.082
1133.00,49.083
1134.00,49.082
1135.00,49.055
1136.00,49.063
1137.00,49.060
1138.00,49.057
1139.00,49.077
1140.00,49.074
1141.00,49.054
1142.00,49.033
1143.00,49.056
1144.00,49.017
1145.00,49.016
1146.00,49.016
1147.00,49.000
1148.00,48.999
1149.00,49.019
1150.00,49.009
1151.00,49.024
1152.00,49.015
1153.00,49.011
1154.00,49.007
1155.00,49.006
1156.00,48.985
1157.00,48.996
1158.00,48.990
1159.00,48.988
1160.00,48.983
1161.00,49.002
1162.00,49.000
1163.00,48.997
1164.00,49.002
1165.00,49.000
1166.00,48.990
1167.00,48.978
1168.00,48.989
1169.00,48.977
1170.00,48.972
1171.00,48.961
1172.00,48.970
1173.00,48.974
1174.00,48.974
1175.00,48.968
1176.00,48.976
1177.00,48.949
1178.00,48.959
1179.00,48.978
1180.00,48.960
1181.00,48.974
1182.00,48.953
1183.00,48.952
1184.00,48.939
1185.00,48.960
1186.00,48.947
1187.00,48.966
1188.00,48.953
1189.00,48.953
1190.00,48.951
1191.00,48.941
1192.00,48.960
1193.00,48.948
1194.00,48.956
1195.00,48.939
1196.00,48.964
1197.00,48.959
1198.00,48.951
1199.00,48.945
1200.00,48.954
1201.00,48.961
1202.00,48.945
1203.00,48.943
1204.00,48.953
1205.00,48.967
1206.00,48.954
1207.00,48.948
1208.00,48.932
1209.00,48.946
1210.00,48.937
1211.00,48.935
1212.00,48.950
1213.00,48.905
1214.00,48.945
1215.00,48.934
1216.00,48.954
1217.00,48.968
1218.00,48.947
1219.00,48.962
1220.00,48.940
1221.00,48.948
1222.00,48.958
1223.00,48.972
1224.00,48.960
1225.00,48.950
1226.00,48.954
1227.00,48.941
1228.00,48.963
1229.00,48.991
1230.00,48.994
1231.00,48.988
1232.00,49.028
1233.00,49.016
1234.00,49.016
1235.00,49.022
1236.00,49.027
1237.00,49.033
1238.00,49.028
1239.00,49.034
1240.00,49.011
1241.00,49.012
1242.00,49.022
1243.00,49.041
1244.00,49.021
1245.00,49.044
1246.00,49.037
1247.00,49.034
1248.00,49.030
1249.00,49.045
1250.00,49.059
1251.00,49.046
1252.00,49.063
1253.00,49.054
1254.00,49.082
1255.00,49.061
1256.00,49.042
1257.00,49.029
1258.00,49.086
1259.00,49.085
1260.00,49.084
1261.00,49.095
1262.00,49.120
1263.00,49.110
1264.00,49.118
1265.00,49.127
1266.00,49.125
1267.00,49.137
1268.00,49.134
1269.00,49.133
1270.00,49.149
1271.00,49.146
1272.00,49.152
1273.00,49.162
1274.00,49.156
1275.00,49.178
1276.00,49.181
1277.00,49.201
1278.00,49.213
1279.00,49.208
1280.00,49.206
1281.00,49.230
1282.00,49.236
1283.00,49.235
1284.00,49.230
1285.00,49.216
1286.00,49.232
1287.00,49.212
1288.00,49.219
1289.00,49.213
1290.00,49.236
1291.00,49.248
1292.00,49.284
1293.00,49.253
1294.00,49.270
1295.00,49.292
1296.00,49.292
1297.00,49.305
1298.00,49.329
1299.00,49.293
1300.00,49.322
1301.00,49.308
1302.00,49.333
1303.00,49.334
1304.00,49.314
1305.00,49.359
1306.00,49.370
1307.00,49.404
1308.00,49.380
1309.00,49.391
1310.00,49.392
1311.00,49.370
1312.00,49.373
1313.00,49.378
1314.00,49.408
1315.00,49.416
1316.00,49.409
1317.00,49.444
1318.00,49.429
1319.00,49.443
1320.00,49.439
1321.00,49.652
1322.00,49.621
1323.00,49.616
1324.00,49.601
1325.00,49.613
1326.00,49.622
1327.00,49.608
1328.00,49.628
1329.00,49.614
1330.00,49.612
1331.00,49.623
1332.00,49.623
1333.00,49.644
1334.00,49.635
1335.00,49.690
1336.00,49.768
1337.00,49.687
1338.00,49.799
1339.00,49.852
1340.00,49.896
1341.00,49.973
1342.00,50.039
1343.00,50.079
1344.00,50.142
1345.00,50.200
1346.00,50.237
1347.00,50.241
1348.00,50.274
1349.00,50.286
1350.00,50.306
1351.00,50.313
1352.00,50.316
1353.00,50.307
1354.00,50.310
1355.00,50.301
1356.00,50.342
1357.00,50.329
1358.00,50.383
1359.00,50.355
1360.00,50.402
1361.00,50.436
1362.00,50.314
1363.00,50.424
1364.00,50.453
1365.00,50.403
1366.00,50.479
1367.00,50.425
1368.00,50.382
1369.00,50.427
1370.00,50.402
1371.00,50.373
1372.00,50.376
1373.00,50.382
1374.00,50.407
1375.00,50.373
1376.00,50.365
1377.00,50.369
1378.00,50.426
1379.00,50.375
1380.00,50.376
1381.00,50.376
1382.00,50.353
1383.00,50.389
1384.00,50.335
1385.00,50.334
1386.00,50.390
1387.00,50.360
1388.00,50.358
1389.00,50.354
1390.00,50.358
1391.00,50.383
1392.00,50.329
1393.00,50.394
1394.00,50.402
1395.00,50.324
1396.00,50.305
1397.00,50.382
1398.00,50.395
1399.00,50.408
1400.00,50.354
1401.00,50.342
1402.00,50.436
1403.00,50.412
1404.00,50.393
1405.00,50.422
1406.00,50.430
1407.00,50.419
1408.00,50.450
1409.00,50.432
1410.00,50.475
1411.00,50.436
1412.00,50.507
1413.00,50.458
1414.00,50.468
1415.00,50.497
1416.00,50.517
1417.00,50.529
1418.00,50.524
1419.00,50.538
1420.00,50.556
1421.00,50.603
1422.00,50.593
1423.00,50.603
1424.00,50.612
1425.00,50.627
1426.00,50.627
1427.00,50.674
1428.00,50.672
1429.00,50.682
1430.00,50.680
1431.00,50.687
1432.00,50.725
1433.00,50.759
1434.00,50.754
1435.00,50.813
1436.00,50.826
1437.00,50.821
1438.00,50.852
1439.00,50.868
1440.00,50.874
1441.00,50.891
1442.00,50.921
1443.00,50.939
1444.00,50.964
1445.00,50.955
1446.00,50.997
1447.00,51.004
1448.00,51.047
1449.00,51.047
1450.00,51.060
1451.00,51.088
1452.00,51.115
1453.00,51.101
1454.00,51.127
1455.00,51.156
1456.00,51.162
1457.00,51.170
1458.00,51.215
1459.00,51.210
1460.00,51.236
1461.00,51.219
1462.00,51.264
1463.00,51.268
1464.00,51.274
1465.00,51.305
1466.00,51.302
1467.00,51.335
1468.00,51.400
1469.00,51.359
1470.00,51.396
1471.00,51.419
1472.00,51.427
1473.00,51.445
1474.00,51.468
1475.00,51.477
1476.00,51.498
1477.00,51.480
1478.00,51.508
1479.00,51.537
1480.00,51.508
1481.00,51.529
1482.00,51.581
1483.00,51.577
1484.00,51.594
1485.00,51.611
1486.00,51.615
1487.00,51.659
1488.00,51.658
1489.00,51.651
1490.00,51.679
1491.00,51.685
1492.00,51.710
1493.00,51.704
1494.00,51.753
1495.00,51.720
1496.00,51.744
1497.00,51.740
1498.00,51.765
1499.00,51.774
1500.00,51.794
1501.00, 
1502.00, 
1503.00, 
1504.00, 
1505.00, 
1506.00, 
1507.00, 
1508.00, 
1509.00, 
1510.00, 
1511.00, 
1512.00, 
1513.00, 
1514.00, 
1515.00, 
1516.00, 
1517.00, 
1518.00, 
1519.00, 
1520.00, 
1521.00, 
1522.00, 
1523.00, 
1524.00, 
1525.00, 
1526.00, 
1527.00, 
1528.00, 
1529.00, 
1530.00, 
1531.00, 
1532.00, 
1533.00, 
1534.00, 
1535.00, 
1536.00, 
1537.00, 
1538.00, 
1539.00, 
1540.00, 
1541.00, 
1542.00, 
1543.00, 
1544.00, 
1545.00, 
1546.00, 
1547.00, 
1548.00, 
1549.00, 
1550.00, 
1551.00, 
1552.00, 
1553.00, 
1554.00, 
1555.00, 
1556.00, 
1557.00, 
1558.00, 
1559.00, 
1560.00, 
1561.00, 
1562.00, 
1563.00, 
1564.00, 
1565.00, 
1566.00, 
1567.00, 
1568.00, 
1569.00, 
1570.00, 
1571.00, 
1572.00, 
1573.00, 
1574.00, 
1575.00, 
1576.00, 
1577.00, 
1578.00, 
1579.00, 
1580.00, 
1581.00, 
1582.00, 
1583.00, 
1584.00, 
1585.00, 
1586.00, 
1587.00, 
1588.00, 
1589.00, 
1590.00, 
1591.00, 
1592.00, 
1593.00, 
1594.00, 
1595.00, 
1596.00, 
1597.00, 
1598.00, 
1599.00, 
1600.00, 
1601.00, 
1602.00, 
1603.00, 
1604.00, 
1605.00, 
1606.00, 
1607.00, 
1608.00, 
1609.00, 
1610.00, 
1611.00, 
1612.00, 
1613.00, 
1614.00, 
1615.00, 
1616.00, 
1617.00, 
1618.00, 
1619.00, 
1620.00, 
1621.00, 
1622.00, 
1623.00, 
1624.00, 
1625.00, 
1626.00, 
1627.00, 
1628.00, 
1629.00, 
1630.00, 
1631.00, 
1632.00, 
1633.00, 
1634.00, 
1635.00, 
1636.00, 
1637.00, 
1638.00, 
1639.00, 
1640.00, 
1641.00, 
1642.00, 
1643.00, 
1644.00, 
1645.00, 
1646.00, 
1647.00, 
1648.00, 
1649.00, 
1650.00, 
1651.00, 
1652.00, 
1653.00, 
1654.00, 
1655.00, 
1656.00, 
1657.00, 
1658.00, 
1659.00, 
1660.00, 
1661.00, 
1662.00, 
1663.00, 
1664.00, 
1665.00, 
1666.00, 
1667.00, 
1668.00, 
1669.00, 
1670.00, 
1671.00, 
1672.00, 
1673.00, 
1674.00, 
1675.00, 
1676.00, 
1677.00, 
1678.00, 
1679.00, 
1680.00, 
1681.00, 
1682.00, 
1683.00, 
1684.00, 
1685.00, 
1686.00, 
1687.00, 
1688.00, 
1689.00, 
1690.00, 
1691.00, 
1692.00, 
1693.00, 
1694.00, 
1695.00, 
1696.00, 
1697.00, 
1698.00, 
1699.00, 
1700.00, 
1701.00, 
1702.00, 
1703.00, 
1704.00, 
1705.00, 
1706.00, 
1707.00, 
1708.00, 
1709.00, 
1710.00, 
1711.00, 
1712.00, 
1713.00, 
1714.00, 
1715.00, 
1716.00, 
1717.00, 
1718.00, 
1719.00, 
1720.00, 
1721.00, 
1722.00, 
1723.00, 
1724.00, 
1725.00, 
1726.00, 
1727.00, 
1728.00, 
1729.00, 
1730.00, 
1731.00, 
1732.00, 
1733.00, 
1734.00, 
1735.00, 
1736.00, 
1737.00, 
1738.00, 
1739.00, 
1740.00, 
1741.00, 
1742.00, 
1743.00, 
1744.00, 
1745.00, 
1746.00, 
1747.00, 
1748.00, 
1749.00, 
1750.00, 
1751.00, 
1752.00, 
1753.00, 
1754.00, 
1755.00, 
1756.00, 
1757.00, 
1758.00, 
1759.00, 
1760.00, 
1761.00, 
1762.00, 
1763.00, 
1764.00, 
1765.00, 
1766.00, 
1767.00, 
1768.00, 
1769.00, 
1770.00, 
1771.00, 
1772.00, 
1773.00, 
1774.00, 
1775.00, 
1776.00, 
1777.00, 
1778.00, 
1779.00, 
1780.00, 
1781.00, 
1782.00, 
1783.00, 
1784.00, 
1785.00, 
1786.00, 
1787.00, 
1788.00, 
1789.00, 
1790.00, 
1791.00, 
1792.00, 
1793.00, 
1794.00, 
1795.00, 
1796.00, 
1797.00, 
1798.00, 
1799.00, 
1800.00, 
1801.00, 
1802.00, 
1803.00, 
1804.00, 
1805.00, 
1806.00, 
1807.00, 
1808.00, 
1809.00, 
1810.00, 
1811.00, 
1812.00, 
1813.00, 
1814.00, 
1815.00, 
1816.00, 
1817.00, 
1818.00, 
1819.00, 
1820.00, 
1821.00, 
1822.00, 
1823.00, 
1824.00, 
1825.00, 
1826.00, 
1827.00, 
1828.00, 
1829.00, 
1830.00, 
1831.00, 
1832.00, 
1833.00, 
1834.00, 
1835.00, 
1836.00, 
1837.00, 
1838.00, 
1839.00, 
1840.00, 
1841.00, 
1842.00, 
1843.00, 
1844.00, 
1845.00, 
1846.00, 
1847.00, 
1848.00, 
1849.00, 
1850.00, 
1851.00, 
1852.00, 
1853.00, 
1854.00, 
1855.00, 
1856.00, 
1857.00, 
1858.00, 
1859.00, 
1860.00, 
1861.00, 
1862.00, 
1863.00, 
1864.00, 
1865.00, 
1866.00, 
1867.00, 
1868.00, 
1869.00, 
1870.00, 
1871.00, 
1872.00, 
1873.00, 
1874.00, 
1875.00, 
1876.00, 
1877.00, 
1878.00, 
1879.00, 
1880.00, 
1881.00, 
1882.00, 
1883.00, 
1884.00, 
1885.00, 
1886.00, 
1887.00, 
1888.00, 
1889.00, 
1890.00, 
1891.00, 
1892.00, 
1893.00, 
1894.00, 
1895.00, 
1896.00, 
1897.00, 
1898.00, 
1899.00, 
1900.00, 
1901.00, 
1902.00, 
1903.00, 
1904.00, 
1905.00, 
1906.00, 
1907.00, 
1908.00, 
1909.00, 
1910.00, 
1911.00, 
1912.00, 
1913.00, 
1914.00, 
1915.00, 
1916.00, 
1917.00, 
1918.00, 
1919.00, 
1920.00, 
1921.00, 
1922.00, 
1923.00, 
1924.00, 
1925.00, 
1926.00, 
1927.00, 
1928.00, 
1929.00, 
1930.00, 
1931.00, 
1932.00, 
1933.00, 
1934.00, 
1935.00, 
1936.00, 
1937.00, 
1938.00, 
1939.00, 
1940.00, 
1941.00, 
1942.00, 
1943.00, 
1944.00, 
1945.00, 
1946.00, 
1947.00, 
1948.00, 
1949.00, 
1950.00, 
1951.00, 
1952.00, 
1953.00, 
1954.00, 
1955.00, 
1956.00, 
1957.00, 
1958.00, 
1959.00, 
1960.00, 
1961.00, 
1962.00, 
1963.00, 
1964.00, 
1965.00, 
1966.00, 
1967.00, 
1968.00, 
1969.00, 
1970.00, 
1971.00, 
1972.00, 
1973.00, 
1974.00, 
1975.00, 
1976.00, 
1977.00, 
1978.00, 
1979.00, 
1980.00, 
1981.00, 
1982.00, 
1983.00, 
1984.00, 
1985.00, 
1986.00, 
1987.00, 
1988.00, 
1989.00, 
1990.00, 
1991.00, 
1992.00, 
1993.00, 
1994.00, 
1995.00, 
1996.00, 
1997.00, 
1998.00, 
1999.00, 
2000.00, 
2001.00, 
2002.00, 
2003.00, 
2004.00, 
2005.00, 
2006.00, 
2007.00, 
2008.00, 
2009.00, 
2010.00, 
2011.00, 
2012.00, 
2013.00, 
2014.00, 
2015.00, 
2016.00, 
2017.00, 
2018.00, 
2019.00, 
2020.00, 
2021.00, 
2022.00, 
2023.00, 
2024.00, 
2025.00, 
2026.00, 
2027.00, 
2028.00, 
2029.00, 
2030.00, 
2031.00, 
2032.00, 
2033.00, 
2034.00, 
2035.00, 
2036.00, 
2037.00, 
2038.00, 
2039.00, 
2040.00, 
2041.00, 
2042.00, 
2043.00, 
2044.00, 
2045.00, 
2046.00, 
2047.00, 
2048.00, 
2049.00, 
2050.00, 
2051.00, 
2052.00, 
2053.00, 
2054.00, 
2055.00, 
2056.00, 
2057.00, 
2058.00, 
2059.00, 
2060.00, 
2061.00, 
2062.00, 
2063.00, 
2064.00, 
2065.00, 
2066.00, 
2067.00, 
2068.00, 
2069.00, 
2070.00, 
2071.00, 
2072.00, 
2073.00, 
2074.00, 
2075.00, 
2076.00, 
2077.00, 
2078.00, 
2079.00, 
2080.00, 
2081.00, 
2082.00, 
2083.00, 
2084.00, 
2085.00, 
2086.00, 
2087.00, 
2088.00, 
2089.00, 
2090.00, 
2091.00, 
2092.00, 
2093.00, 
2094.00, 
2095.00, 
2096.00, 
2097.00, 
2098.00, 
2099.00, 
2100.00, 
2101.00, 
2102.00, 
2103.00, 
2104.00, 
2105.00, 
2106.00, 
2107.00, 
2108.00, 
2109.00, 
2110.00, 
2111.00, 
2112.00, 
2113.00, 
2114.00, 
2115.00, 
2116.00, 
2117.00, 
2118.00, 
2119.00, 
2120.00, 
2121.00, 
2122.00, 
2123.00, 
2124.00, 
2125.00, 
2126.00, 
2127.00, 
2128.00, 
2129.00, 
2130.00, 
2131.00, 
2132.00, 
2133.00, 
2134.00, 
2135.00, 
2136.00, 
2137.00, 
2138.00, 
2139.00, 
2140.00, 
2141.00, 
2142.00, 
2143.00, 
2144.00, 
2145.00, 
2146.00, 
2147.00, 
2148.00, 
2149.00, 
2150.00, 
2151.00, 
2152.00, 
2153.00, 
2154.00, 
2155.00, 
2156.00, 
2157.00, 
2158.00, 
2159.00, 
2160.00, 
2161.00, 
2162.00, 
2163.00, 
2164.00, 
2165.00, 
2166.00, 
2167.00, 
2168.00, 
2169.00, 
2170.00, 
2171.00, 
2172.00, 
2173.00, 
2174.00, 
2175.00, 
2176.00, 
2177.00, 
2178.00, 
2179.00, 
2180.00, 
2181.00, 
2182.00, 
2183.00, 
2184.00, 
2185.00, 
2186.00, 
2187.00, 
2188.00, 
2189.00, 
2190.00, 
2191.00, 
2192.00, 
2193.00, 
2194.00, 
2195.00, 
2196.00, 
2197.00, 
2198.00, 
2199.00, 
2200.00, 
2201.00, 
2202.00, 
2203.00, 
2204.00, 
2205.00, 
2206.00, 
2207.00, 
2208.00, 
2209.00, 
2210.00, 
2211.00, 
2212.00, 
2213.00, 
2214.00, 
2215.00, 
2216.00, 
2217.00, 
2218.00, 
2219.00, 
2220.00, 
2221.00, 
2222.00, 
2223.00, 
2224.00, 
2225.00, 
2226.00, 
2227.00, 
2228.00, 
2229.00, 
2230.00, 
2231.00, 
2232.00, 
2233.00, 
2234.00, 
2235.00, 
2236.00, 
2237.00, 
2238.00, 
2239.00, 
2240.00, 
2241.00, 
2242.00, 
2243.00, 
2244.00, 
2245.00, 
2246.00, 
2247.00, 
2248.00, 
2249.00, 
2250.00, 
2251.00, 
2252.00, 
2253.00, 
2254.00, 
2255.00, 
2256.00, 
2257.00, 
2258.00, 
2259.00, 
2260.00, 
2261.00, 
2262.00, 
2263.00, 
2264.00, 
2265.00, 
2266.00, 
2267.00, 
2268.00, 
2269.00, 
2270.00, 
2271.00, 
2272.00, 
2273.00, 
2274.00, 
2275.00, 
2276.00, 
2277.00, 
2278.00, 
2279.00, 
2280.00, 
2281.00, 
2282.00, 
2283.00, 
2284.00, 
2285.00, 
2286.00, 
2287.00, 
2288.00, 
2289.00, 
2290.00, 
2291.00, 
2292.00, 
2293.00, 
2294.00, 
2295.00, 
2296.00, 
2297.00, 
2298.00, 
2299.00, 
2300.00, 
2301.00, 
2302.00, 
2303.00, 
2304.00, 
2305.00, 
2306.00, 
2307.00, 
2308.00, 
2309.00, 
2310.00, 
2311.00, 
2312.00, 
2313.00, 
2314.00, 
2315.00, 
2316.00, 
2317.00, 
2318.00, 
2319.00, 
2320.00, 
2321.00, 
2322.00, 
2323.00, 
2324.00, 
2325.00, 
2326.00, 
2327.00, 
2328.00, 
2329.00, 
2330.00, 
2331.00, 
2332.00, 
2333.00, 
2334.00, 
2335.00, 
2336.00, 
2337.00, 
2338.00, 
2339.00, 
2340.00, 
2341.00, 
2342.00, 
2343.00, 
2344.00, 
2345.00, 
2346.00, 
2347.00, 
2348.00, 
2349.00, 
2350.00, 
2351.00, 
2352.00, 
2353.00, 
2354.00, 
2355.00, 
2356.00, 
2357.00, 
2358.00, 
2359.00, 
2360.00, 
2361.00, 
2362.00, 
2363.00, 
2364.00, 
2365.00, 
2366.00, 
2367.00, 
2368.00, 
2369.00, 
2370.00, 
2371.00, 
2372.00, 
2373.00, 
2374.00, 
2375.00, 
2376.00, 
2377.00, 
2378.00, 
2379.00, 
2380.00, 
2381.00, 
2382.00, 
2383.00, 
2384.00, 
2385.00, 
2386.00, 
2387.00, 
2388.00, 
2389.00, 
2390.00, 
2391.00, 
2392.00, 
2393.00, 
2394.00, 
2395.00, 
2396.00, 
2397.00, 
2398.00, 
2399.00, 
2400.00, 
2401.00, 
2402.00, 
2403.00, 
2404.00, 
2405.00, 
2406.00, 
2407.00, 
2408.00, 
2409.00, 
2410.00, 
2411.00, 
2412.00, 
2413.00, 
2414.00, 
2415.00, 
2416.00, 
2417.00, 
2418.00, 
2419.00, 
2420.00, 
2421.00, 
2422.00, 
2423.00, 
2424.00, 
2425.00, 
2426.00, 
2427.00, 
2428.00, 
2429.00, 
2430.00, 
2431.00, 
2432.00, 
2433.00, 
2434.00, 
2435.00, 
2436.00, 
2437.00, 
2438.00, 
2439.00, 
2440.00, 
2441.00, 
2442.00, 
2443.00, 
2444.00, 
2445.00, 
2446.00, 
2447.00, 
2448.00, 
2449.00, 
2450.00, 
2451.00, 
2452.00, 
2453.00, 
2454.00, 
2455.00, 
2456.00, 
2457.00, 
2458.00, 
2459.00, 
2460.00, 
2461.00, 
2462.00, 
2463.00, 
2464.00, 
2465.00, 
2466.00, 
2467.00, 
2468.00, 
2469.00, 
2470.00, 
2471.00, 
2472.00, 
2473.00, 
2474.00, 
2475.00, 
2476.00, 
2477.00, 
2478.00, 
2479.00, 
2480.00, 
2481.00, 
2482.00, 
2483.00, 
2484.00, 
2485.00, 
2486.00, 
2487.00, 
2488.00, 
2489.00, 
2490.00, 
2491.00, 
2492.00, 
2493.00, 
2494.00, 
2495.00, 
2496.00, 
2497.00, 
2498.00, 
2499.00, 
2500.00, 
2501.00, 
2502.00, 
2503.00, 
2504.00, 
2505.00, 
2506.00, 
2507.00, 
2508.00, 
2509.00, 
2510.00, 
2511.00, 
2512.00, 
2513.00, 
2514.00, 
2515.00, 
2516.00, 
2517.00, 
2518.00, 
2519.00, 
2520.00, 
2521.00, 
2522.00, 
2523.00, 
2524.00, 
2525.00, 
2526.00, 
2527.00, 
2528.00, 
2529.00, 
2530.00, 
2531.00, 
2532.00, 
2533.00, 
2534.00, 
2535.00, 
2536.00, 
2537.00, 
2538.00, 
2539.00, 
2540.00, 
2541.00, 
2542.00, 
2543.00, 
2544.00, 
2545.00, 
2546.00, 
2547.00, 
2548.00, 
2549.00, 
2550.00, 
2551.00, 
2552.00, 
2553.00, 
2554.00, 
2555.00, 
2556.00, 
2557.00, 
2558.00, 
2559.00, 
2560.00, 
2561.00, 
2562.00, 
2563.00, 
2564.00, 
2565.00, 
2566.00, 
2567.00, 
2568.00, 
2569.00, 
2570.00, 
2571.00, 
2572.00, 
2573.00, 
2574.00, 
2575.00, 
2576.00, 
2577.00, 
2578.00, 
2579.00, 
2580.00, 
2581.00, 
2582.00, 
2583.00, 
2584.00, 
2585.00, 
2586.00, 
2587.00, 
2588.00, 
2589.00, 
2590.00, 
2591.00, 
2592.00, 
2593.00, 
2594.00, 
2595.00, 
2596.00, 
2597.00, 
2598.00, 
2599.00, 
2600.00, 
