"1cP3 - RawData"
"Wavelength nm.","T%"
200.00,0.001
201.00,0.001
202.00,0.002
203.00,0.000
204.00,0.001
205.00,0.001
206.00,0.002
207.00,-0.002
208.00,0.003
209.00,0.001
210.00,0.000
211.00,0.001
212.00,0.001
213.00,-0.001
214.00,0.002
215.00,0.002
216.00,-0.001
217.00,0.001
218.00,0.005
219.00,0.003
220.00,0.002
221.00,0.000
222.00,-0.001
223.00,0.001
224.00,-0.002
225.00,0.000
226.00,-0.002
227.00,-0.002
228.00,0.001
229.00,-0.002
230.00,0.000
231.00,0.002
232.00,0.000
233.00,0.000
234.00,0.000
235.00,0.001
236.00,0.001
237.00,-0.000
238.00,0.001
239.00,-0.000
240.00,0.001
241.00,0.002
242.00,-0.001
243.00,0.000
244.00,0.003
245.00,0.001
246.00,0.000
247.00,-0.001
248.00,0.000
249.00,0.001
250.00,-0.001
251.00,-0.001
252.00,0.002
253.00,-0.000
254.00,0.001
255.00,0.002
256.00,-0.002
257.00,0.003
258.00,-0.001
259.00,-0.001
260.00,0.001
261.00,-0.001
262.00,0.001
263.00,0.001
264.00,0.000
265.00,0.001
266.00,-0.001
267.00,-0.001
268.00,0.000
269.00,0.000
270.00,0.000
271.00,0.001
272.00,0.000
273.00,-0.001
274.00,0.001
275.00,-0.000
276.00,-0.000
277.00,0.001
278.00,0.000
279.00,0.002
280.00,-0.000
281.00,0.001
282.00,-0.001
283.00,0.000
284.00,0.001
285.00,0.001
286.00,-0.000
287.00,0.001
288.00,-0.001
289.00,-0.000
290.00,0.000
291.00,0.001
292.00,0.002
293.00,-0.000
294.00,0.002
295.00,-0.000
296.00,-0.002
297.00,-0.000
298.00,0.001
299.00,-0.000
300.00,0.000
301.00,0.001
302.00,-0.001
303.00,-0.000
304.00,-0.001
305.00,0.002
306.00,0.003
307.00,0.002
308.00,0.005
309.00,0.010
310.00,0.014
311.00,0.025
312.00,0.034
313.00,0.059
314.00,0.086
315.00,0.119
316.00,0.177
317.00,0.244
318.00,0.336
319.00,0.454
320.00,0.587
321.00,0.780
322.00,0.994
323.00,1.251
324.00,1.547
325.00,1.875
326.00,2.166
327.00,2.653
328.00,3.101
329.00,3.553
330.00,4.067
331.00,4.622
332.00,5.171
333.00,5.796
334.00,6.382
335.00,7.020
336.00,7.683
337.00,8.333
338.00,8.939
339.00,9.523
340.00,10.199
341.00,10.789
342.00,11.362
343.00,11.952
344.00,12.547
345.00,13.021
346.00,13.559
347.00,14.010
348.00,14.514
349.00,14.912
350.00,15.295
351.00,15.663
352.00,16.007
353.00,16.353
354.00,16.687
355.00,16.987
356.00,17.243
357.00,17.468
358.00,17.734
359.00,17.999
360.00,18.226
361.00,18.337
362.00,18.487
363.00,18.620
364.00,18.682
365.00,18.850
366.00,18.886
367.00,19.037
368.00,19.068
369.00,19.110
370.00,19.191
371.00,19.172
372.00,19.135
373.00,19.163
374.00,19.178
375.00,19.056
376.00,19.044
377.00,18.912
378.00,18.856
379.00,18.776
380.00,18.742
381.00,18.702
382.00,18.690
383.00,18.692
384.00,18.747
385.00,18.764
386.00,18.794
387.00,18.893
388.00,18.953
389.00,18.939
390.00,19.003
391.00,19.043
392.00,19.046
393.00,19.062
394.00,19.065
395.00,19.094
396.00,19.090
397.00,19.117
398.00,19.097
399.00,19.087
400.00,19.087
401.00,19.064
402.00,19.111
403.00,19.097
404.00,19.075
405.00,19.065
406.00,19.028
407.00,18.992
408.00,19.000
409.00,18.908
410.00,18.834
411.00,18.888
412.00,18.849
413.00,18.847
414.00,18.800
415.00,18.819
416.00,18.836
417.00,18.817
418.00,18.907
419.00,18.943
420.00,18.948
421.00,18.866
422.00,18.905
423.00,18.963
424.00,18.963
425.00,18.977
426.00,18.978
427.00,19.032
428.00,19.075
429.00,19.094
430.00,19.096
431.00,19.174
432.00,19.162
433.00,19.264
434.00,19.308
435.00,19.333
436.00,19.386
437.00,19.448
438.00,19.535
439.00,19.565
440.00,19.657
441.00,19.703
442.00,19.778
443.00,19.867
444.00,19.943
445.00,19.991
446.00,20.074
447.00,20.118
448.00,20.260
449.00,20.367
450.00,20.489
451.00,20.526
452.00,20.660
453.00,20.778
454.00,20.836
455.00,20.934
456.00,21.047
457.00,21.168
458.00,21.240
459.00,21.373
460.00,21.490
461.00,21.599
462.00,21.705
463.00,21.846
464.00,21.964
465.00,22.100
466.00,22.200
467.00,22.340
468.00,22.432
469.00,22.538
470.00,22.658
471.00,22.730
472.00,22.882
473.00,22.950
474.00,23.070
475.00,23.187
476.00,23.235
477.00,23.433
478.00,23.514
479.00,23.720
480.00,23.844
481.00,23.950
482.00,24.126
483.00,24.276
484.00,24.430
485.00,24.574
486.00,24.691
487.00,24.858
488.00,24.994
489.00,25.121
490.00,25.281
491.00,25.384
492.00,25.577
493.00,25.796
494.00,25.954
495.00,25.931
496.00,26.074
497.00,26.216
498.00,26.360
499.00,26.488
500.00,26.642
501.00,26.746
502.00,26.865
503.00,27.008
504.00,27.058
505.00,27.215
506.00,27.366
507.00,27.484
508.00,27.540
509.00,27.692
510.00,27.844
511.00,27.920
512.00,28.096
513.00,28.265
514.00,28.372
515.00,28.522
516.00,28.631
517.00,28.731
518.00,28.828
519.00,28.944
520.00,29.041
521.00,29.155
522.00,29.230
523.00,29.310
524.00,29.442
525.00,29.567
526.00,29.668
527.00,29.719
528.00,29.842
529.00,30.062
530.00,30.190
531.00,30.197
532.00,30.445
533.00,30.465
534.00,30.556
535.00,30.667
536.00,30.747
537.00,30.840
538.00,30.936
539.00,31.010
540.00,31.102
541.00,31.214
542.00,31.324
543.00,31.299
544.00,31.405
545.00,31.480
546.00,31.533
547.00,31.663
548.00,31.699
549.00,31.788
550.00,31.857
551.00,31.990
552.00,32.057
553.00,32.109
554.00,32.169
555.00,32.246
556.00,32.381
557.00,32.448
558.00,32.457
559.00,32.546
560.00,32.624
561.00,32.686
562.00,32.741
563.00,32.812
564.00,32.887
565.00,32.946
566.00,33.000
567.00,33.036
568.00,33.082
569.00,33.141
570.00,33.185
571.00,33.216
572.00,33.278
573.00,33.274
574.00,33.320
575.00,33.361
576.00,33.347
577.00,33.461
578.00,33.543
579.00,33.631
580.00,33.685
581.00,33.802
582.00,33.874
583.00,33.919
584.00,33.983
585.00,34.100
586.00,34.115
587.00,34.180
588.00,34.259
589.00,34.213
590.00,34.325
591.00,34.340
592.00,34.291
593.00,34.310
594.00,34.474
595.00,34.558
596.00,34.622
597.00,34.706
598.00,34.746
599.00,34.753
600.00,34.868
601.00,34.876
602.00,34.871
603.00,34.982
604.00,35.002
605.00,35.027
606.00,35.164
607.00,35.166
608.00,35.218
609.00,35.341
610.00,35.513
611.00,35.268
612.00,35.316
613.00,35.411
614.00,35.408
615.00,35.535
616.00,35.688
617.00,35.560
618.00,35.577
619.00,35.792
620.00,35.952
621.00,35.907
622.00,36.023
623.00,36.091
624.00,36.155
625.00,36.221
626.00,36.268
627.00,36.328
628.00,36.319
629.00,36.408
630.00,36.403
631.00,36.551
632.00,36.669
633.00,36.730
634.00,36.818
635.00,36.878
636.00,36.957
637.00,37.003
638.00,37.070
639.00,37.215
640.00,37.346
641.00,37.342
642.00,37.359
643.00,37.438
644.00,37.544
645.00,37.686
646.00,37.790
647.00,37.715
648.00,37.779
649.00,37.898
650.00,38.027
651.00,38.213
652.00,38.292
653.00,38.268
654.00,38.260
655.00,38.576
656.00,38.801
657.00,38.750
658.00,38.919
659.00,38.868
660.00,39.061
661.00,39.060
662.00,39.099
663.00,39.259
664.00,39.550
665.00,39.724
666.00,39.655
667.00,39.686
668.00,39.677
669.00,39.856
670.00,40.246
671.00,40.068
672.00,40.181
673.00,40.294
674.00,40.410
675.00,40.506
676.00,40.740
677.00,40.878
678.00,40.619
679.00,40.899
680.00,41.065
681.00,41.165
682.00,41.159
683.00,41.202
684.00,41.470
685.00,41.527
686.00,41.439
687.00,41.650
688.00,41.778
689.00,41.745
690.00,42.020
691.00,42.294
692.00,41.993
693.00,42.091
694.00,42.320
695.00,42.416
696.00,42.445
697.00,42.471
698.00,42.594
699.00,42.748
700.00,42.870
701.00,42.910
702.00,43.065
703.00,43.235
704.00,43.263
705.00,43.177
706.00,43.365
707.00,43.504
708.00,43.292
709.00,43.750
710.00,44.157
711.00,43.598
712.00,43.744
713.00,43.948
714.00,44.023
715.00,44.015
716.00,44.061
717.00,44.239
718.00,44.449
719.00,44.429
720.00,44.393
721.00,49.049
722.00,49.055
723.00,48.989
724.00,49.163
725.00,49.227
726.00,49.208
727.00,49.280
728.00,49.379
729.00,49.315
730.00,49.414
731.00,49.419
732.00,49.474
733.00,49.558
734.00,49.592
735.00,49.655
736.00,49.626
737.00,49.665
738.00,49.769
739.00,49.748
740.00,49.736
741.00,49.799
742.00,49.888
743.00,49.866
744.00,49.874
745.00,49.969
746.00,49.930
747.00,49.924
748.00,50.020
749.00,49.964
750.00,50.060
751.00,50.005
752.00,50.044
753.00,50.096
754.00,50.102
755.00,49.999
756.00,50.074
757.00,50.168
758.00,50.191
759.00,50.146
760.00,50.193
761.00,50.185
762.00,50.167
763.00,50.251
764.00,50.308
765.00,50.305
766.00,50.418
767.00,50.374
768.00,50.346
769.00,50.301
770.00,50.400
771.00,50.385
772.00,50.528
773.00,50.397
774.00,50.426
775.00,50.506
776.00,50.486
777.00,50.611
778.00,50.568
779.00,50.586
780.00,50.541
781.00,50.572
782.00,50.620
783.00,50.472
784.00,50.492
785.00,50.551
786.00,50.556
787.00,50.526
788.00,50.506
789.00,50.528
790.00,50.495
791.00,50.627
792.00,50.550
793.00,50.526
794.00,50.566
795.00,50.455
796.00,50.484
797.00,50.430
798.00,50.517
799.00,50.466
800.00,50.421
801.00,50.440
802.00,50.525
803.00,50.451
804.00,50.436
805.00,50.413
806.00,50.373
807.00,50.368
808.00,50.448
809.00,50.373
810.00,50.488
811.00,50.375
812.00,50.366
813.00,50.366
814.00,50.365
815.00,50.290
816.00,50.328
817.00,50.337
818.00,50.221
819.00,50.239
820.00,50.244
821.00,50.295
822.00,50.310
823.00,50.154
824.00,50.271
825.00,50.223
826.00,50.164
827.00,50.191
828.00,50.257
829.00,50.141
830.00,50.225
831.00,52.604
832.00,52.572
833.00,52.540
834.00,52.551
835.00,52.506
836.00,52.501
837.00,52.470
838.00,52.467
839.00,52.505
840.00,52.393
841.00,52.426
842.00,52.382
843.00,52.384
844.00,52.410
845.00,52.334
846.00,52.358
847.00,52.326
848.00,52.331
849.00,52.250
850.00,52.235
851.00,52.218
852.00,52.190
853.00,52.163
854.00,52.151
855.00,52.081
856.00,52.104
857.00,52.097
858.00,52.014
859.00,52.013
860.00,52.010
861.00,52.039
862.00,51.989
863.00,51.982
864.00,51.904
865.00,51.978
866.00,51.952
867.00,51.922
868.00,51.926
869.00,51.917
870.00,51.935
871.00,51.901
872.00,51.891
873.00,51.894
874.00,51.861
875.00,51.863
876.00,51.865
877.00,51.836
878.00,51.832
879.00,51.818
880.00,51.785
881.00,51.801
882.00,51.816
883.00,51.775
884.00,51.718
885.00,51.734
886.00,51.746
887.00,51.716
888.00,51.657
889.00,51.676
890.00,51.660
891.00,51.614
892.00,51.601
893.00,51.573
894.00,51.587
895.00,51.547
896.00,51.532
897.00,51.520
898.00,51.478
899.00,51.481
900.00,51.447
901.00,51.468
902.00,51.457
903.00,51.411
904.00,51.409
905.00,51.405
906.00,51.418
907.00,51.362
908.00,51.321
909.00,51.324
910.00,51.273
911.00,51.271
912.00,51.274
913.00,51.241
914.00,51.235
915.00,51.208
916.00,51.155
917.00,51.176
918.00,51.152
919.00,51.120
920.00,51.088
921.00,51.109
922.00,51.111
923.00,51.045
924.00,51.029
925.00,51.047
926.00,51.009
927.00,50.977
928.00,50.992
929.00,50.969
930.00,50.941
931.00,50.914
932.00,50.896
933.00,50.924
934.00,50.901
935.00,50.834
936.00,50.906
937.00,50.817
938.00,50.799
939.00,50.795
940.00,50.764
941.00,50.767
942.00,50.751
943.00,50.715
944.00,50.683
945.00,50.698
946.00,50.691
947.00,50.652
948.00,50.630
949.00,50.610
950.00,50.573
951.00,50.591
952.00,50.551
953.00,50.514
954.00,50.480
955.00,50.448
956.00,50.443
957.00,50.418
958.00,50.434
959.00,50.389
960.00,50.373
961.00,50.365
962.00,50.364
963.00,50.322
964.00,50.316
965.00,50.318
966.00,50.297
967.00,50.287
968.00,50.269
969.00,50.305
970.00,50.247
971.00,50.275
972.00,50.252
973.00,50.273
974.00,50.301
975.00,50.258
976.00,50.259
977.00,50.277
978.00,50.300
979.00,50.257
980.00,50.279
981.00,50.280
982.00,50.243
983.00,50.251
984.00,50.237
985.00,50.248
986.00,50.235
987.00,50.210
988.00,50.200
989.00,50.182
990.00,50.168
991.00,50.158
992.00,50.178
993.00,50.141
994.00,50.146
995.00,50.125
996.00,50.105
997.00,50.113
998.00,50.083
999.00,50.102
1000.00,50.051
1001.00,50.042
1002.00,50.053
1003.00,50.030
1004.00,50.002
1005.00,49.987
1006.00,50.008
1007.00,49.977
1008.00,49.970
1009.00,49.947
1010.00,49.946
1011.00,49.942
1012.00,49.935
1013.00,49.930
1014.00,49.899
1015.00,49.900
1016.00,49.858
1017.00,49.854
1018.00,49.847
1019.00,49.823
1020.00,49.807
1021.00,49.795
1022.00,49.779
1023.00,49.756
1024.00,49.757
1025.00,49.749
1026.00,49.727
1027.00,49.695
1028.00,49.681
1029.00,49.666
1030.00,49.624
1031.00,49.643
1032.00,49.619
1033.00,49.608
1034.00,49.591
1035.00,49.562
1036.00,49.534
1037.00,49.521
1038.00,49.510
1039.00,49.468
1040.00,49.473
1041.00,49.435
1042.00,49.442
1043.00,49.417
1044.00,49.451
1045.00,49.424
1046.00,49.419
1047.00,49.441
1048.00,49.448
1049.00,49.452
1050.00,49.444
1051.00,49.493
1052.00,49.500
1053.00,49.494
1054.00,49.505
1055.00,49.526
1056.00,49.526
1057.00,49.526
1058.00,49.517
1059.00,49.500
1060.00,49.522
1061.00,49.504
1062.00,49.504
1063.00,49.499
1064.00,49.493
1065.00,49.490
1066.00,49.473
1067.00,49.467
1068.00,49.480
1069.00,49.432
1070.00,49.421
1071.00,49.430
1072.00,49.441
1073.00,49.432
1074.00,49.413
1075.00,49.396
1076.00,49.405
1077.00,49.381
1078.00,49.361
1079.00,49.369
1080.00,49.371
1081.00,49.357
1082.00,49.357
1083.00,49.330
1084.00,49.332
1085.00,49.333
1086.00,49.311
1087.00,49.324
1088.00,49.310
1089.00,49.313
1090.00,49.311
1091.00,49.294
1092.00,49.280
1093.00,49.260
1094.00,49.243
1095.00,49.242
1096.00,49.226
1097.00,49.231
1098.00,49.245
1099.00,49.212
1100.00,49.203
1101.00,49.200
1102.00,49.184
1103.00,49.183
1104.00,49.173
1105.00,49.154
1106.00,49.148
1107.00,49.141
1108.00,49.127
1109.00,49.134
1110.00,49.116
1111.00,49.109
1112.00,49.106
1113.00,49.104
1114.00,49.084
1115.00,49.089
1116.00,49.082
1117.00,49.064
1118.00,49.068
1119.00,49.069
1120.00,49.057
1121.00,49.047
1122.00,49.033
1123.00,49.037
1124.00,49.027
1125.00,49.030
1126.00,49.012
1127.00,49.012
1128.00,49.013
1129.00,48.994
1130.00,48.967
1131.00,48.975
1132.00,48.959
1133.00,48.967
1134.00,48.980
1135.00,48.944
1136.00,48.954
1137.00,48.959
1138.00,48.960
1139.00,48.979
1140.00,48.961
1141.00,48.946
1142.00,48.937
1143.00,48.951
1144.00,48.914
1145.00,48.921
1146.00,48.915
1147.00,48.915
1148.00,48.919
1149.00,48.929
1150.00,48.922
1151.00,48.918
1152.00,48.905
1153.00,48.908
1154.00,48.892
1155.00,48.896
1156.00,48.906
1157.00,48.900
1158.00,48.882
1159.00,48.896
1160.00,48.882
1161.00,48.902
1162.00,48.895
1163.00,48.886
1164.00,48.914
1165.00,48.910
1166.00,48.895
1167.00,48.887
1168.00,48.902
1169.00,48.892
1170.00,48.893
1171.00,48.872
1172.00,48.882
1173.00,48.872
1174.00,48.877
1175.00,48.884
1176.00,48.875
1177.00,48.869
1178.00,48.876
1179.00,48.889
1180.00,48.879
1181.00,48.893
1182.00,48.853
1183.00,48.869
1184.00,48.861
1185.00,48.870
1186.00,48.863
1187.00,48.865
1188.00,48.853
1189.00,48.857
1190.00,48.859
1191.00,48.857
1192.00,48.870
1193.00,48.845
1194.00,48.870
1195.00,48.855
1196.00,48.875
1197.00,48.868
1198.00,48.853
1199.00,48.846
1200.00,48.856
1201.00,48.872
1202.00,48.851
1203.00,48.850
1204.00,48.843
1205.00,48.878
1206.00,48.858
1207.00,48.845
1208.00,48.848
1209.00,48.853
1210.00,48.856
1211.00,48.866
1212.00,48.879
1213.00,48.831
1214.00,48.869
1215.00,48.839
1216.00,48.856
1217.00,48.860
1218.00,48.841
1219.00,48.864
1220.00,48.845
1221.00,48.867
1222.00,48.858
1223.00,48.885
1224.00,48.869
1225.00,48.873
1226.00,48.884
1227.00,48.858
1228.00,48.880
1229.00,48.884
1230.00,48.927
1231.00,48.913
1232.00,48.926
1233.00,48.929
1234.00,48.914
1235.00,48.909
1236.00,48.927
1237.00,48.922
1238.00,48.929
1239.00,48.933
1240.00,48.913
1241.00,48.947
1242.00,48.931
1243.00,48.941
1244.00,48.920
1245.00,48.953
1246.00,48.986
1247.00,48.963
1248.00,48.948
1249.00,48.971
1250.00,48.972
1251.00,48.963
1252.00,48.965
1253.00,48.999
1254.00,49.026
1255.00,48.976
1256.00,49.032
1257.00,48.954
1258.00,49.020
1259.00,48.993
1260.00,49.029
1261.00,49.042
1262.00,49.033
1263.00,49.054
1264.00,49.041
1265.00,49.044
1266.00,49.056
1267.00,49.060
1268.00,49.053
1269.00,49.061
1270.00,49.074
1271.00,49.075
1272.00,49.075
1273.00,49.085
1274.00,49.091
1275.00,49.093
1276.00,49.086
1277.00,49.094
1278.00,49.096
1279.00,49.108
1280.00,49.100
1281.00,49.101
1282.00,49.119
1283.00,49.113
1284.00,49.110
1285.00,49.122
1286.00,49.156
1287.00,49.144
1288.00,49.148
1289.00,49.139
1290.00,49.170
1291.00,49.162
1292.00,49.180
1293.00,49.170
1294.00,49.188
1295.00,49.181
1296.00,49.191
1297.00,49.202
1298.00,49.233
1299.00,49.196
1300.00,49.203
1301.00,49.214
1302.00,49.250
1303.00,49.227
1304.00,49.228
1305.00,49.263
1306.00,49.255
1307.00,49.277
1308.00,49.266
1309.00,49.275
1310.00,49.267
1311.00,49.248
1312.00,49.275
1313.00,49.288
1314.00,49.302
1315.00,49.334
1316.00,49.333
1317.00,49.356
1318.00,49.357
1319.00,49.356
1320.00,49.363
1321.00,49.554
1322.00,49.545
1323.00,49.518
1324.00,49.512
1325.00,49.509
1326.00,49.538
1327.00,49.510
1328.00,49.521
1329.00,49.522
1330.00,49.536
1331.00,49.523
1332.00,49.545
1333.00,49.553
1334.00,49.570
1335.00,49.609
1336.00,49.637
1337.00,49.650
1338.00,49.714
1339.00,49.757
1340.00,49.821
1341.00,49.864
1342.00,49.919
1343.00,49.984
1344.00,50.022
1345.00,50.067
1346.00,50.137
1347.00,50.131
1348.00,50.147
1349.00,50.173
1350.00,50.186
1351.00,50.204
1352.00,50.229
1353.00,50.231
1354.00,50.236
1355.00,50.214
1356.00,50.248
1357.00,50.236
1358.00,50.292
1359.00,50.272
1360.00,50.381
1361.00,50.536
1362.00,50.250
1363.00,50.307
1364.00,50.317
1365.00,50.303
1366.00,50.364
1367.00,50.308
1368.00,50.289
1369.00,50.306
1370.00,50.292
1371.00,50.289
1372.00,50.288
1373.00,50.307
1374.00,50.321
1375.00,50.268
1376.00,50.275
1377.00,50.246
1378.00,50.380
1379.00,50.319
1380.00,50.307
1381.00,50.331
1382.00,50.316
1383.00,50.301
1384.00,50.266
1385.00,50.273
1386.00,50.309
1387.00,50.257
1388.00,50.262
1389.00,50.279
1390.00,50.262
1391.00,50.249
1392.00,50.244
1393.00,50.338
1394.00,50.297
1395.00,50.214
1396.00,50.228
1397.00,50.327
1398.00,50.284
1399.00,50.262
1400.00,50.181
1401.00,50.274
1402.00,50.400
1403.00,50.293
1404.00,50.315
1405.00,50.313
1406.00,50.379
1407.00,50.244
1408.00,50.315
1409.00,50.343
1410.00,50.392
1411.00,50.353
1412.00,50.429
1413.00,50.406
1414.00,50.381
1415.00,50.416
1416.00,50.415
1417.00,50.432
1418.00,50.441
1419.00,50.455
1420.00,50.492
1421.00,50.542
1422.00,50.520
1423.00,50.536
1424.00,50.556
1425.00,50.570
1426.00,50.559
1427.00,50.590
1428.00,50.584
1429.00,50.608
1430.00,50.606
1431.00,50.635
1432.00,50.657
1433.00,50.684
1434.00,50.683
1435.00,50.706
1436.00,50.732
1437.00,50.730
1438.00,50.742
1439.00,50.788
1440.00,50.790
1441.00,50.801
1442.00,50.834
1443.00,50.861
1444.00,50.896
1445.00,50.878
1446.00,50.907
1447.00,50.918
1448.00,50.969
1449.00,50.946
1450.00,50.979
1451.00,50.983
1452.00,51.025
1453.00,50.998
1454.00,51.030
1455.00,51.052
1456.00,51.077
1457.00,51.076
1458.00,51.119
1459.00,51.132
1460.00,51.159
1461.00,51.155
1462.00,51.198
1463.00,51.180
1464.00,51.201
1465.00,51.238
1466.00,51.220
1467.00,51.271
1468.00,51.307
1469.00,51.264
1470.00,51.299
1471.00,51.325
1472.00,51.339
1473.00,51.355
1474.00,51.368
1475.00,51.387
1476.00,51.417
1477.00,51.399
1478.00,51.440
1479.00,51.442
1480.00,51.422
1481.00,51.441
1482.00,51.489
1483.00,51.511
1484.00,51.514
1485.00,51.523
1486.00,51.547
1487.00,51.571
1488.00,51.588
1489.00,51.591
1490.00,51.622
1491.00,51.622
1492.00,51.637
1493.00,51.615
1494.00,51.676
1495.00,51.644
1496.00,51.673
1497.00,51.667
1498.00,51.677
1499.00,51.697
1500.00,51.723
1501.00, 
1502.00, 
1503.00, 
1504.00, 
1505.00, 
1506.00, 
1507.00, 
1508.00, 
1509.00, 
1510.00, 
1511.00, 
1512.00, 
1513.00, 
1514.00, 
1515.00, 
1516.00, 
1517.00, 
1518.00, 
1519.00, 
1520.00, 
1521.00, 
1522.00, 
1523.00, 
1524.00, 
1525.00, 
1526.00, 
1527.00, 
1528.00, 
1529.00, 
1530.00, 
1531.00, 
1532.00, 
1533.00, 
1534.00, 
1535.00, 
1536.00, 
1537.00, 
1538.00, 
1539.00, 
1540.00, 
1541.00, 
1542.00, 
1543.00, 
1544.00, 
1545.00, 
1546.00, 
1547.00, 
1548.00, 
1549.00, 
1550.00, 
1551.00, 
1552.00, 
1553.00, 
1554.00, 
1555.00, 
1556.00, 
1557.00, 
1558.00, 
1559.00, 
1560.00, 
1561.00, 
1562.00, 
1563.00, 
1564.00, 
1565.00, 
1566.00, 
1567.00, 
1568.00, 
1569.00, 
1570.00, 
1571.00, 
1572.00, 
1573.00, 
1574.00, 
1575.00, 
1576.00, 
1577.00, 
1578.00, 
1579.00, 
1580.00, 
1581.00, 
1582.00, 
1583.00, 
1584.00, 
1585.00, 
1586.00, 
1587.00, 
1588.00, 
1589.00, 
1590.00, 
1591.00, 
1592.00, 
1593.00, 
1594.00, 
1595.00, 
1596.00, 
1597.00, 
1598.00, 
1599.00, 
1600.00, 
1601.00, 
1602.00, 
1603.00, 
1604.00, 
1605.00, 
1606.00, 
1607.00, 
1608.00, 
1609.00, 
1610.00, 
1611.00, 
1612.00, 
1613.00, 
1614.00, 
1615.00, 
1616.00, 
1617.00, 
1618.00, 
1619.00, 
1620.00, 
1621.00, 
1622.00, 
1623.00, 
1624.00, 
1625.00, 
1626.00, 
1627.00, 
1628.00, 
1629.00, 
1630.00, 
1631.00, 
1632.00, 
1633.00, 
1634.00, 
1635.00, 
1636.00, 
1637.00, 
1638.00, 
1639.00, 
1640.00, 
1641.00, 
1642.00, 
1643.00, 
1644.00, 
1645.00, 
1646.00, 
1647.00, 
1648.00, 
1649.00, 
1650.00, 
1651.00, 
1652.00, 
1653.00, 
1654.00, 
1655.00, 
1656.00, 
1657.00, 
1658.00, 
1659.00, 
1660.00, 
1661.00, 
1662.00, 
1663.00, 
1664.00, 
1665.00, 
1666.00, 
1667.00, 
1668.00, 
1669.00, 
1670.00, 
1671.00, 
1672.00, 
1673.00, 
1674.00, 
1675.00, 
1676.00, 
1677.00, 
1678.00, 
1679.00, 
1680.00, 
1681.00, 
1682.00, 
1683.00, 
1684.00, 
1685.00, 
1686.00, 
1687.00, 
1688.00, 
1689.00, 
1690.00, 
1691.00, 
1692.00, 
1693.00, 
1694.00, 
1695.00, 
1696.00, 
1697.00, 
1698.00, 
1699.00, 
1700.00, 
1701.00, 
1702.00, 
1703.00, 
1704.00, 
1705.00, 
1706.00, 
1707.00, 
1708.00, 
1709.00, 
1710.00, 
1711.00, 
1712.00, 
1713.00, 
1714.00, 
1715.00, 
1716.00, 
1717.00, 
1718.00, 
1719.00, 
1720.00, 
1721.00, 
1722.00, 
1723.00, 
1724.00, 
1725.00, 
1726.00, 
1727.00, 
1728.00, 
1729.00, 
1730.00, 
1731.00, 
1732.00, 
1733.00, 
1734.00, 
1735.00, 
1736.00, 
1737.00, 
1738.00, 
1739.00, 
1740.00, 
1741.00, 
1742.00, 
1743.00, 
1744.00, 
1745.00, 
1746.00, 
1747.00, 
1748.00, 
1749.00, 
1750.00, 
1751.00, 
1752.00, 
1753.00, 
1754.00, 
1755.00, 
1756.00, 
1757.00, 
1758.00, 
1759.00, 
1760.00, 
1761.00, 
1762.00, 
1763.00, 
1764.00, 
1765.00, 
1766.00, 
1767.00, 
1768.00, 
1769.00, 
1770.00, 
1771.00, 
1772.00, 
1773.00, 
1774.00, 
1775.00, 
1776.00, 
1777.00, 
1778.00, 
1779.00, 
1780.00, 
1781.00, 
1782.00, 
1783.00, 
1784.00, 
1785.00, 
1786.00, 
1787.00, 
1788.00, 
1789.00, 
1790.00, 
1791.00, 
1792.00, 
1793.00, 
1794.00, 
1795.00, 
1796.00, 
1797.00, 
1798.00, 
1799.00, 
1800.00, 
1801.00, 
1802.00, 
1803.00, 
1804.00, 
1805.00, 
1806.00, 
1807.00, 
1808.00, 
1809.00, 
1810.00, 
1811.00, 
1812.00, 
1813.00, 
1814.00, 
1815.00, 
1816.00, 
1817.00, 
1818.00, 
1819.00, 
1820.00, 
1821.00, 
1822.00, 
1823.00, 
1824.00, 
1825.00, 
1826.00, 
1827.00, 
1828.00, 
1829.00, 
1830.00, 
1831.00, 
1832.00, 
1833.00, 
1834.00, 
1835.00, 
1836.00, 
1837.00, 
1838.00, 
1839.00, 
1840.00, 
1841.00, 
1842.00, 
1843.00, 
1844.00, 
1845.00, 
1846.00, 
1847.00, 
1848.00, 
1849.00, 
1850.00, 
1851.00, 
1852.00, 
1853.00, 
1854.00, 
1855.00, 
1856.00, 
1857.00, 
1858.00, 
1859.00, 
1860.00, 
1861.00, 
1862.00, 
1863.00, 
1864.00, 
1865.00, 
1866.00, 
1867.00, 
1868.00, 
1869.00, 
1870.00, 
1871.00, 
1872.00, 
1873.00, 
1874.00, 
1875.00, 
1876.00, 
1877.00, 
1878.00, 
1879.00, 
1880.00, 
1881.00, 
1882.00, 
1883.00, 
1884.00, 
1885.00, 
1886.00, 
1887.00, 
1888.00, 
1889.00, 
1890.00, 
1891.00, 
1892.00, 
1893.00, 
1894.00, 
1895.00, 
1896.00, 
1897.00, 
1898.00, 
1899.00, 
1900.00, 
1901.00, 
1902.00, 
1903.00, 
1904.00, 
1905.00, 
1906.00, 
1907.00, 
1908.00, 
1909.00, 
1910.00, 
1911.00, 
1912.00, 
1913.00, 
1914.00, 
1915.00, 
1916.00, 
1917.00, 
1918.00, 
1919.00, 
1920.00, 
1921.00, 
1922.00, 
1923.00, 
1924.00, 
1925.00, 
1926.00, 
1927.00, 
1928.00, 
1929.00, 
1930.00, 
1931.00, 
1932.00, 
1933.00, 
1934.00, 
1935.00, 
1936.00, 
1937.00, 
1938.00, 
1939.00, 
1940.00, 
1941.00, 
1942.00, 
1943.00, 
1944.00, 
1945.00, 
1946.00, 
1947.00, 
1948.00, 
1949.00, 
1950.00, 
1951.00, 
1952.00, 
1953.00, 
1954.00, 
1955.00, 
1956.00, 
1957.00, 
1958.00, 
1959.00, 
1960.00, 
1961.00, 
1962.00, 
1963.00, 
1964.00, 
1965.00, 
1966.00, 
1967.00, 
1968.00, 
1969.00, 
1970.00, 
1971.00, 
1972.00, 
1973.00, 
1974.00, 
1975.00, 
1976.00, 
1977.00, 
1978.00, 
1979.00, 
1980.00, 
1981.00, 
1982.00, 
1983.00, 
1984.00, 
1985.00, 
1986.00, 
1987.00, 
1988.00, 
1989.00, 
1990.00, 
1991.00, 
1992.00, 
1993.00, 
1994.00, 
1995.00, 
1996.00, 
1997.00, 
1998.00, 
1999.00, 
2000.00, 
2001.00, 
2002.00, 
2003.00, 
2004.00, 
2005.00, 
2006.00, 
2007.00, 
2008.00, 
2009.00, 
2010.00, 
2011.00, 
2012.00, 
2013.00, 
2014.00, 
2015.00, 
2016.00, 
2017.00, 
2018.00, 
2019.00, 
2020.00, 
2021.00, 
2022.00, 
2023.00, 
2024.00, 
2025.00, 
2026.00, 
2027.00, 
2028.00, 
2029.00, 
2030.00, 
2031.00, 
2032.00, 
2033.00, 
2034.00, 
2035.00, 
2036.00, 
2037.00, 
2038.00, 
2039.00, 
2040.00, 
2041.00, 
2042.00, 
2043.00, 
2044.00, 
2045.00, 
2046.00, 
2047.00, 
2048.00, 
2049.00, 
2050.00, 
2051.00, 
2052.00, 
2053.00, 
2054.00, 
2055.00, 
2056.00, 
2057.00, 
2058.00, 
2059.00, 
2060.00, 
2061.00, 
2062.00, 
2063.00, 
2064.00, 
2065.00, 
2066.00, 
2067.00, 
2068.00, 
2069.00, 
2070.00, 
2071.00, 
2072.00, 
2073.00, 
2074.00, 
2075.00, 
2076.00, 
2077.00, 
2078.00, 
2079.00, 
2080.00, 
2081.00, 
2082.00, 
2083.00, 
2084.00, 
2085.00, 
2086.00, 
2087.00, 
2088.00, 
2089.00, 
2090.00, 
2091.00, 
2092.00, 
2093.00, 
2094.00, 
2095.00, 
2096.00, 
2097.00, 
2098.00, 
2099.00, 
2100.00, 
2101.00, 
2102.00, 
2103.00, 
2104.00, 
2105.00, 
2106.00, 
2107.00, 
2108.00, 
2109.00, 
2110.00, 
2111.00, 
2112.00, 
2113.00, 
2114.00, 
2115.00, 
2116.00, 
2117.00, 
2118.00, 
2119.00, 
2120.00, 
2121.00, 
2122.00, 
2123.00, 
2124.00, 
2125.00, 
2126.00, 
2127.00, 
2128.00, 
2129.00, 
2130.00, 
2131.00, 
2132.00, 
2133.00, 
2134.00, 
2135.00, 
2136.00, 
2137.00, 
2138.00, 
2139.00, 
2140.00, 
2141.00, 
2142.00, 
2143.00, 
2144.00, 
2145.00, 
2146.00, 
2147.00, 
2148.00, 
2149.00, 
2150.00, 
2151.00, 
2152.00, 
2153.00, 
2154.00, 
2155.00, 
2156.00, 
2157.00, 
2158.00, 
2159.00, 
2160.00, 
2161.00, 
2162.00, 
2163.00, 
2164.00, 
2165.00, 
2166.00, 
2167.00, 
2168.00, 
2169.00, 
2170.00, 
2171.00, 
2172.00, 
2173.00, 
2174.00, 
2175.00, 
2176.00, 
2177.00, 
2178.00, 
2179.00, 
2180.00, 
2181.00, 
2182.00, 
2183.00, 
2184.00, 
2185.00, 
2186.00, 
2187.00, 
2188.00, 
2189.00, 
2190.00, 
2191.00, 
2192.00, 
2193.00, 
2194.00, 
2195.00, 
2196.00, 
2197.00, 
2198.00, 
2199.00, 
2200.00, 
2201.00, 
2202.00, 
2203.00, 
2204.00, 
2205.00, 
2206.00, 
2207.00, 
2208.00, 
2209.00, 
2210.00, 
2211.00, 
2212.00, 
2213.00, 
2214.00, 
2215.00, 
2216.00, 
2217.00, 
2218.00, 
2219.00, 
2220.00, 
2221.00, 
2222.00, 
2223.00, 
2224.00, 
2225.00, 
2226.00, 
2227.00, 
2228.00, 
2229.00, 
2230.00, 
2231.00, 
2232.00, 
2233.00, 
2234.00, 
2235.00, 
2236.00, 
2237.00, 
2238.00, 
2239.00, 
2240.00, 
2241.00, 
2242.00, 
2243.00, 
2244.00, 
2245.00, 
2246.00, 
2247.00, 
2248.00, 
2249.00, 
2250.00, 
2251.00, 
2252.00, 
2253.00, 
2254.00, 
2255.00, 
2256.00, 
2257.00, 
2258.00, 
2259.00, 
2260.00, 
2261.00, 
2262.00, 
2263.00, 
2264.00, 
2265.00, 
2266.00, 
2267.00, 
2268.00, 
2269.00, 
2270.00, 
2271.00, 
2272.00, 
2273.00, 
2274.00, 
2275.00, 
2276.00, 
2277.00, 
2278.00, 
2279.00, 
2280.00, 
2281.00, 
2282.00, 
2283.00, 
2284.00, 
2285.00, 
2286.00, 
2287.00, 
2288.00, 
2289.00, 
2290.00, 
2291.00, 
2292.00, 
2293.00, 
2294.00, 
2295.00, 
2296.00, 
2297.00, 
2298.00, 
2299.00, 
2300.00, 
2301.00, 
2302.00, 
2303.00, 
2304.00, 
2305.00, 
2306.00, 
2307.00, 
2308.00, 
2309.00, 
2310.00, 
2311.00, 
2312.00, 
2313.00, 
2314.00, 
2315.00, 
2316.00, 
2317.00, 
2318.00, 
2319.00, 
2320.00, 
2321.00, 
2322.00, 
2323.00, 
2324.00, 
2325.00, 
2326.00, 
2327.00, 
2328.00, 
2329.00, 
2330.00, 
2331.00, 
2332.00, 
2333.00, 
2334.00, 
2335.00, 
2336.00, 
2337.00, 
2338.00, 
2339.00, 
2340.00, 
2341.00, 
2342.00, 
2343.00, 
2344.00, 
2345.00, 
2346.00, 
2347.00, 
2348.00, 
2349.00, 
2350.00, 
2351.00, 
2352.00, 
2353.00, 
2354.00, 
2355.00, 
2356.00, 
2357.00, 
2358.00, 
2359.00, 
2360.00, 
2361.00, 
2362.00, 
2363.00, 
2364.00, 
2365.00, 
2366.00, 
2367.00, 
2368.00, 
2369.00, 
2370.00, 
2371.00, 
2372.00, 
2373.00, 
2374.00, 
2375.00, 
2376.00, 
2377.00, 
2378.00, 
2379.00, 
2380.00, 
2381.00, 
2382.00, 
2383.00, 
2384.00, 
2385.00, 
2386.00, 
2387.00, 
2388.00, 
2389.00, 
2390.00, 
2391.00, 
2392.00, 
2393.00, 
2394.00, 
2395.00, 
2396.00, 
2397.00, 
2398.00, 
2399.00, 
2400.00, 
2401.00, 
2402.00, 
2403.00, 
2404.00, 
2405.00, 
2406.00, 
2407.00, 
2408.00, 
2409.00, 
2410.00, 
2411.00, 
2412.00, 
2413.00, 
2414.00, 
2415.00, 
2416.00, 
2417.00, 
2418.00, 
2419.00, 
2420.00, 
2421.00, 
2422.00, 
2423.00, 
2424.00, 
2425.00, 
2426.00, 
2427.00, 
2428.00, 
2429.00, 
2430.00, 
2431.00, 
2432.00, 
2433.00, 
2434.00, 
2435.00, 
2436.00, 
2437.00, 
2438.00, 
2439.00, 
2440.00, 
2441.00, 
2442.00, 
2443.00, 
2444.00, 
2445.00, 
2446.00, 
2447.00, 
2448.00, 
2449.00, 
2450.00, 
2451.00, 
2452.00, 
2453.00, 
2454.00, 
2455.00, 
2456.00, 
2457.00, 
2458.00, 
2459.00, 
2460.00, 
2461.00, 
2462.00, 
2463.00, 
2464.00, 
2465.00, 
2466.00, 
2467.00, 
2468.00, 
2469.00, 
2470.00, 
2471.00, 
2472.00, 
2473.00, 
2474.00, 
2475.00, 
2476.00, 
2477.00, 
2478.00, 
2479.00, 
2480.00, 
2481.00, 
2482.00, 
2483.00, 
2484.00, 
2485.00, 
2486.00, 
2487.00, 
2488.00, 
2489.00, 
2490.00, 
2491.00, 
2492.00, 
2493.00, 
2494.00, 
2495.00, 
2496.00, 
2497.00, 
2498.00, 
2499.00, 
2500.00, 
2501.00, 
2502.00, 
2503.00, 
2504.00, 
2505.00, 
2506.00, 
2507.00, 
2508.00, 
2509.00, 
2510.00, 
2511.00, 
2512.00, 
2513.00, 
2514.00, 
2515.00, 
2516.00, 
2517.00, 
2518.00, 
2519.00, 
2520.00, 
2521.00, 
2522.00, 
2523.00, 
2524.00, 
2525.00, 
2526.00, 
2527.00, 
2528.00, 
2529.00, 
2530.00, 
2531.00, 
2532.00, 
2533.00, 
2534.00, 
2535.00, 
2536.00, 
2537.00, 
2538.00, 
2539.00, 
2540.00, 
2541.00, 
2542.00, 
2543.00, 
2544.00, 
2545.00, 
2546.00, 
2547.00, 
2548.00, 
2549.00, 
2550.00, 
2551.00, 
2552.00, 
2553.00, 
2554.00, 
2555.00, 
2556.00, 
2557.00, 
2558.00, 
2559.00, 
2560.00, 
2561.00, 
2562.00, 
2563.00, 
2564.00, 
2565.00, 
2566.00, 
2567.00, 
2568.00, 
2569.00, 
2570.00, 
2571.00, 
2572.00, 
2573.00, 
2574.00, 
2575.00, 
2576.00, 
2577.00, 
2578.00, 
2579.00, 
2580.00, 
2581.00, 
2582.00, 
2583.00, 
2584.00, 
2585.00, 
2586.00, 
2587.00, 
2588.00, 
2589.00, 
2590.00, 
2591.00, 
2592.00, 
2593.00, 
2594.00, 
2595.00, 
2596.00, 
2597.00, 
2598.00, 
2599.00, 
2600.00, 
