"1cP5 - RawData"
"Wavelength nm.","T%"
200.00,0.003
201.00,0.000
202.00,0.004
203.00,0.001
204.00,0.003
205.00,-0.001
206.00,0.002
207.00,-0.002
208.00,0.002
209.00,0.002
210.00,-0.000
211.00,0.001
212.00,-0.000
213.00,0.000
214.00,0.000
215.00,0.000
216.00,-0.004
217.00,0.001
218.00,0.002
219.00,0.004
220.00,0.000
221.00,0.000
222.00,0.000
223.00,-0.000
224.00,0.001
225.00,0.001
226.00,0.002
227.00,0.001
228.00,0.001
229.00,0.001
230.00,0.001
231.00,0.001
232.00,0.000
233.00,-0.000
234.00,-0.000
235.00,-0.000
236.00,0.002
237.00,0.002
238.00,0.001
239.00,0.001
240.00,-0.001
241.00,-0.001
242.00,0.001
243.00,0.001
244.00,-0.001
245.00,0.000
246.00,0.001
247.00,-0.001
248.00,0.001
249.00,-0.000
250.00,-0.000
251.00,-0.000
252.00,0.001
253.00,-0.001
254.00,0.001
255.00,0.002
256.00,-0.000
257.00,0.000
258.00,0.001
259.00,0.001
260.00,0.001
261.00,-0.001
262.00,-0.001
263.00,0.002
264.00,0.002
265.00,-0.001
266.00,-0.001
267.00,0.001
268.00,-0.001
269.00,-0.000
270.00,0.001
271.00,-0.000
272.00,0.001
273.00,0.001
274.00,-0.000
275.00,0.001
276.00,-0.001
277.00,0.001
278.00,0.001
279.00,-0.000
280.00,0.001
281.00,0.000
282.00,-0.001
283.00,-0.001
284.00,-0.000
285.00,0.001
286.00,-0.001
287.00,-0.001
288.00,0.002
289.00,0.000
290.00,-0.000
291.00,-0.001
292.00,-0.001
293.00,0.001
294.00,0.001
295.00,0.001
296.00,-0.001
297.00,-0.000
298.00,0.000
299.00,-0.000
300.00,0.002
301.00,0.000
302.00,0.001
303.00,-0.000
304.00,-0.001
305.00,0.000
306.00,0.002
307.00,0.003
308.00,0.005
309.00,0.009
310.00,0.014
311.00,0.020
312.00,0.035
313.00,0.049
314.00,0.078
315.00,0.109
316.00,0.158
317.00,0.214
318.00,0.295
319.00,0.395
320.00,0.530
321.00,0.678
322.00,0.860
323.00,1.094
324.00,1.354
325.00,1.624
326.00,1.919
327.00,2.297
328.00,2.690
329.00,3.071
330.00,3.517
331.00,3.973
332.00,4.457
333.00,5.004
334.00,5.496
335.00,6.030
336.00,6.583
337.00,7.142
338.00,7.651
339.00,8.157
340.00,8.708
341.00,9.237
342.00,9.729
343.00,10.218
344.00,10.703
345.00,11.161
346.00,11.559
347.00,11.927
348.00,12.314
349.00,12.679
350.00,12.987
351.00,13.289
352.00,13.585
353.00,13.870
354.00,14.111
355.00,14.353
356.00,14.558
357.00,14.749
358.00,14.933
359.00,15.126
360.00,15.278
361.00,15.402
362.00,15.537
363.00,15.639
364.00,15.674
365.00,15.751
366.00,15.853
367.00,15.900
368.00,15.919
369.00,15.916
370.00,15.992
371.00,15.960
372.00,15.883
373.00,15.927
374.00,15.893
375.00,15.808
376.00,15.779
377.00,15.667
378.00,15.590
379.00,15.488
380.00,15.450
381.00,15.436
382.00,15.395
383.00,15.406
384.00,15.430
385.00,15.433
386.00,15.433
387.00,15.503
388.00,15.537
389.00,15.517
390.00,15.547
391.00,15.558
392.00,15.559
393.00,15.563
394.00,15.555
395.00,15.571
396.00,15.553
397.00,15.570
398.00,15.548
399.00,15.531
400.00,15.521
401.00,15.502
402.00,15.543
403.00,15.530
404.00,15.502
405.00,15.486
406.00,15.482
407.00,15.416
408.00,15.425
409.00,15.363
410.00,15.314
411.00,15.349
412.00,15.308
413.00,15.293
414.00,15.281
415.00,15.284
416.00,15.302
417.00,15.282
418.00,15.360
419.00,15.357
420.00,15.379
421.00,15.345
422.00,15.377
423.00,15.424
424.00,15.418
425.00,15.452
426.00,15.468
427.00,15.520
428.00,15.530
429.00,15.556
430.00,15.622
431.00,15.638
432.00,15.682
433.00,15.744
434.00,15.785
435.00,15.843
436.00,15.911
437.00,15.974
438.00,16.064
439.00,16.082
440.00,16.160
441.00,16.238
442.00,16.312
443.00,16.379
444.00,16.436
445.00,16.551
446.00,16.605
447.00,16.732
448.00,16.826
449.00,16.924
450.00,17.033
451.00,17.106
452.00,17.226
453.00,17.358
454.00,17.429
455.00,17.529
456.00,17.645
457.00,17.776
458.00,17.858
459.00,18.002
460.00,18.117
461.00,18.261
462.00,18.355
463.00,18.489
464.00,18.611
465.00,18.740
466.00,18.883
467.00,19.010
468.00,19.114
469.00,19.246
470.00,19.325
471.00,19.453
472.00,19.605
473.00,19.675
474.00,19.801
475.00,19.940
476.00,20.031
477.00,20.200
478.00,20.324
479.00,20.500
480.00,20.640
481.00,20.755
482.00,20.932
483.00,21.082
484.00,21.238
485.00,21.413
486.00,21.530
487.00,21.710
488.00,21.844
489.00,21.992
490.00,22.152
491.00,22.296
492.00,22.441
493.00,22.690
494.00,22.823
495.00,22.902
496.00,22.989
497.00,23.133
498.00,23.303
499.00,23.417
500.00,23.579
501.00,23.699
502.00,23.845
503.00,24.004
504.00,24.069
505.00,24.222
506.00,24.339
507.00,24.457
508.00,24.562
509.00,24.777
510.00,24.885
511.00,24.965
512.00,25.185
513.00,25.343
514.00,25.453
515.00,25.592
516.00,25.691
517.00,25.792
518.00,25.962
519.00,26.013
520.00,26.102
521.00,26.216
522.00,26.319
523.00,26.392
524.00,26.497
525.00,26.673
526.00,26.738
527.00,26.824
528.00,26.925
529.00,27.112
530.00,27.273
531.00,27.370
532.00,27.464
533.00,27.618
534.00,27.677
535.00,27.771
536.00,27.870
537.00,27.972
538.00,28.022
539.00,28.089
540.00,28.191
541.00,28.261
542.00,28.409
543.00,28.382
544.00,28.465
545.00,28.550
546.00,28.606
547.00,28.742
548.00,28.837
549.00,28.907
550.00,28.979
551.00,29.112
552.00,29.194
553.00,29.203
554.00,29.279
555.00,29.339
556.00,29.465
557.00,29.509
558.00,29.572
559.00,29.629
560.00,29.712
561.00,29.799
562.00,29.849
563.00,29.863
564.00,29.919
565.00,29.985
566.00,30.018
567.00,30.040
568.00,30.134
569.00,30.200
570.00,30.235
571.00,30.296
572.00,30.310
573.00,30.313
574.00,30.325
575.00,30.371
576.00,30.372
577.00,30.424
578.00,30.556
579.00,30.618
580.00,30.654
581.00,30.772
582.00,30.863
583.00,30.880
584.00,30.943
585.00,31.037
586.00,31.092
587.00,31.126
588.00,31.182
589.00,31.119
590.00,31.219
591.00,31.210
592.00,31.246
593.00,31.348
594.00,31.469
595.00,31.520
596.00,31.553
597.00,31.631
598.00,31.693
599.00,31.717
600.00,31.798
601.00,31.839
602.00,31.788
603.00,31.897
604.00,31.911
605.00,31.926
606.00,31.985
607.00,32.070
608.00,32.137
609.00,32.257
610.00,32.421
611.00,32.305
612.00,32.306
613.00,32.395
614.00,32.480
615.00,32.553
616.00,32.677
617.00,32.623
618.00,32.679
619.00,32.769
620.00,32.807
621.00,32.889
622.00,32.991
623.00,33.072
624.00,33.135
625.00,33.208
626.00,33.232
627.00,33.306
628.00,33.329
629.00,33.339
630.00,33.453
631.00,33.549
632.00,33.611
633.00,33.687
634.00,33.944
635.00,34.064
636.00,34.098
637.00,34.096
638.00,34.174
639.00,34.291
640.00,34.444
641.00,34.515
642.00,34.521
643.00,34.606
644.00,34.756
645.00,34.800
646.00,35.042
647.00,35.091
648.00,35.098
649.00,35.208
650.00,35.283
651.00,35.416
652.00,35.452
653.00,35.545
654.00,35.617
655.00,35.890
656.00,36.114
657.00,36.106
658.00,36.221
659.00,36.323
660.00,36.550
661.00,36.177
662.00,36.484
663.00,36.649
664.00,36.916
665.00,37.076
666.00,37.044
667.00,37.229
668.00,37.274
669.00,37.467
670.00,37.718
671.00,37.675
672.00,37.835
673.00,37.904
674.00,38.073
675.00,38.196
676.00,38.428
677.00,38.597
678.00,38.402
679.00,38.698
680.00,38.877
681.00,39.013
682.00,39.109
683.00,39.129
684.00,39.321
685.00,39.434
686.00,39.268
687.00,39.555
688.00,39.788
689.00,39.744
690.00,40.046
691.00,40.322
692.00,40.149
693.00,40.168
694.00,40.479
695.00,40.754
696.00,40.769
697.00,40.763
698.00,40.872
699.00,41.077
700.00,41.184
701.00,41.319
702.00,41.475
703.00,41.660
704.00,41.728
705.00,41.670
706.00,41.875
707.00,41.986
708.00,41.818
709.00,42.346
710.00,42.694
711.00,42.309
712.00,42.442
713.00,42.671
714.00,42.691
715.00,42.728
716.00,42.836
717.00,43.104
718.00,43.232
719.00,43.256
720.00,43.340
721.00,47.626
722.00,47.715
723.00,47.668
724.00,47.770
725.00,47.862
726.00,47.889
727.00,47.919
728.00,48.063
729.00,48.031
730.00,48.214
731.00,48.195
732.00,48.263
733.00,48.409
734.00,48.449
735.00,48.535
736.00,48.490
737.00,48.695
738.00,48.708
739.00,48.785
740.00,48.759
741.00,48.902
742.00,48.916
743.00,48.918
744.00,49.015
745.00,49.070
746.00,49.034
747.00,49.113
748.00,49.157
749.00,49.204
750.00,49.183
751.00,49.205
752.00,49.273
753.00,49.353
754.00,49.343
755.00,49.357
756.00,49.373
757.00,49.483
758.00,49.552
759.00,49.488
760.00,49.552
761.00,49.556
762.00,49.658
763.00,49.708
764.00,49.713
765.00,49.694
766.00,49.767
767.00,49.850
768.00,49.847
769.00,49.821
770.00,49.908
771.00,49.946
772.00,50.051
773.00,49.983
774.00,50.040
775.00,50.118
776.00,50.070
777.00,50.103
778.00,50.167
779.00,50.180
780.00,50.114
781.00,50.218
782.00,50.223
783.00,50.138
784.00,50.180
785.00,50.149
786.00,50.268
787.00,50.147
788.00,50.185
789.00,50.229
790.00,50.202
791.00,50.387
792.00,50.246
793.00,50.297
794.00,50.321
795.00,50.259
796.00,50.337
797.00,50.184
798.00,50.304
799.00,50.262
800.00,50.300
801.00,50.308
802.00,50.307
803.00,50.251
804.00,50.274
805.00,50.357
806.00,50.250
807.00,50.247
808.00,50.246
809.00,50.256
810.00,50.248
811.00,50.177
812.00,50.319
813.00,50.220
814.00,50.246
815.00,50.184
816.00,50.252
817.00,50.239
818.00,50.155
819.00,50.181
820.00,50.224
821.00,50.198
822.00,50.205
823.00,50.127
824.00,50.156
825.00,50.149
826.00,50.179
827.00,50.217
828.00,50.230
829.00,50.102
830.00,50.287
831.00,52.575
832.00,52.545
833.00,52.510
834.00,52.575
835.00,52.521
836.00,52.543
837.00,52.531
838.00,52.540
839.00,52.510
840.00,52.418
841.00,52.477
842.00,52.437
843.00,52.473
844.00,52.493
845.00,52.401
846.00,52.427
847.00,52.380
848.00,52.400
849.00,52.251
850.00,52.351
851.00,52.291
852.00,52.268
853.00,52.236
854.00,52.237
855.00,52.172
856.00,52.195
857.00,52.170
858.00,52.111
859.00,52.155
860.00,52.146
861.00,52.132
862.00,52.082
863.00,52.103
864.00,52.043
865.00,52.089
866.00,52.109
867.00,52.087
868.00,52.068
869.00,52.064
870.00,52.060
871.00,52.042
872.00,52.043
873.00,52.055
874.00,52.011
875.00,52.004
876.00,52.010
877.00,52.004
878.00,52.033
879.00,51.987
880.00,51.926
881.00,52.045
882.00,52.013
883.00,51.961
884.00,51.914
885.00,51.896
886.00,51.909
887.00,51.885
888.00,51.830
889.00,51.854
890.00,51.835
891.00,51.810
892.00,51.794
893.00,51.787
894.00,51.811
895.00,51.779
896.00,51.756
897.00,51.770
898.00,51.722
899.00,51.712
900.00,51.689
901.00,51.678
902.00,51.674
903.00,51.646
904.00,51.609
905.00,51.635
906.00,51.633
907.00,51.599
908.00,51.503
909.00,51.632
910.00,51.529
911.00,51.529
912.00,51.521
913.00,51.511
914.00,51.486
915.00,51.485
916.00,51.448
917.00,51.434
918.00,51.431
919.00,51.401
920.00,51.388
921.00,51.390
922.00,51.391
923.00,51.341
924.00,51.290
925.00,51.324
926.00,51.314
927.00,51.274
928.00,51.224
929.00,51.230
930.00,51.322
931.00,51.207
932.00,51.166
933.00,51.190
934.00,51.180
935.00,51.116
936.00,51.124
937.00,51.106
938.00,51.096
939.00,51.092
940.00,51.059
941.00,51.037
942.00,51.025
943.00,51.001
944.00,50.968
945.00,50.980
946.00,50.959
947.00,50.918
948.00,50.918
949.00,50.886
950.00,50.840
951.00,50.902
952.00,50.844
953.00,50.802
954.00,50.776
955.00,50.738
956.00,50.727
957.00,50.702
958.00,50.716
959.00,50.664
960.00,50.658
961.00,50.656
962.00,50.630
963.00,50.609
964.00,50.582
965.00,50.588
966.00,50.583
967.00,50.574
968.00,50.558
969.00,50.598
970.00,50.542
971.00,50.563
972.00,50.534
973.00,50.568
974.00,50.593
975.00,50.544
976.00,50.565
977.00,50.579
978.00,50.628
979.00,50.571
980.00,50.587
981.00,50.597
982.00,50.541
983.00,50.560
984.00,50.538
985.00,50.547
986.00,50.531
987.00,50.518
988.00,50.519
989.00,50.493
990.00,50.466
991.00,50.517
992.00,50.501
993.00,50.465
994.00,50.457
995.00,50.439
996.00,50.421
997.00,50.419
998.00,50.385
999.00,50.395
1000.00,50.346
1001.00,50.339
1002.00,50.349
1003.00,50.329
1004.00,50.315
1005.00,50.295
1006.00,50.328
1007.00,50.286
1008.00,50.288
1009.00,50.262
1010.00,50.244
1011.00,50.255
1012.00,50.207
1013.00,50.202
1014.00,50.176
1015.00,50.198
1016.00,50.152
1017.00,50.147
1018.00,50.134
1019.00,50.108
1020.00,50.104
1021.00,50.100
1022.00,50.098
1023.00,50.047
1024.00,50.067
1025.00,50.032
1026.00,50.011
1027.00,50.029
1028.00,49.985
1029.00,49.962
1030.00,49.938
1031.00,49.955
1032.00,49.922
1033.00,49.921
1034.00,49.895
1035.00,49.870
1036.00,49.832
1037.00,49.834
1038.00,49.809
1039.00,49.783
1040.00,49.813
1041.00,49.747
1042.00,49.744
1043.00,49.727
1044.00,49.766
1045.00,49.742
1046.00,49.737
1047.00,49.765
1048.00,49.769
1049.00,49.782
1050.00,49.781
1051.00,49.816
1052.00,49.806
1053.00,49.811
1054.00,49.817
1055.00,49.835
1056.00,49.852
1057.00,49.851
1058.00,49.827
1059.00,49.824
1060.00,49.838
1061.00,49.823
1062.00,49.804
1063.00,49.814
1064.00,49.827
1065.00,49.809
1066.00,49.798
1067.00,49.784
1068.00,49.812
1069.00,49.764
1070.00,49.739
1071.00,49.738
1072.00,49.772
1073.00,49.773
1074.00,49.733
1075.00,49.717
1076.00,49.715
1077.00,49.705
1078.00,49.684
1079.00,49.694
1080.00,49.692
1081.00,49.669
1082.00,49.669
1083.00,49.649
1084.00,49.660
1085.00,49.660
1086.00,49.651
1087.00,49.671
1088.00,49.665
1089.00,49.632
1090.00,49.628
1091.00,49.620
1092.00,49.606
1093.00,49.598
1094.00,49.582
1095.00,49.575
1096.00,49.568
1097.00,49.560
1098.00,49.549
1099.00,49.528
1100.00,49.516
1101.00,49.522
1102.00,49.502
1103.00,49.508
1104.00,49.505
1105.00,49.496
1106.00,49.486
1107.00,49.486
1108.00,49.467
1109.00,49.458
1110.00,49.448
1111.00,49.435
1112.00,49.429
1113.00,49.426
1114.00,49.405
1115.00,49.412
1116.00,49.394
1117.00,49.385
1118.00,49.371
1119.00,49.373
1120.00,49.379
1121.00,49.382
1122.00,49.366
1123.00,49.359
1124.00,49.351
1125.00,49.360
1126.00,49.353
1127.00,49.346
1128.00,49.330
1129.00,49.319
1130.00,49.299
1131.00,49.302
1132.00,49.289
1133.00,49.324
1134.00,49.351
1135.00,49.296
1136.00,49.315
1137.00,49.310
1138.00,49.301
1139.00,49.311
1140.00,49.295
1141.00,49.291
1142.00,49.273
1143.00,49.299
1144.00,49.262
1145.00,49.258
1146.00,49.262
1147.00,49.265
1148.00,49.269
1149.00,49.281
1150.00,49.266
1151.00,49.278
1152.00,49.263
1153.00,49.259
1154.00,49.252
1155.00,49.253
1156.00,49.241
1157.00,49.249
1158.00,49.231
1159.00,49.226
1160.00,49.210
1161.00,49.235
1162.00,49.231
1163.00,49.227
1164.00,49.243
1165.00,49.226
1166.00,49.223
1167.00,49.208
1168.00,49.234
1169.00,49.221
1170.00,49.218
1171.00,49.206
1172.00,49.222
1173.00,49.216
1174.00,49.217
1175.00,49.217
1176.00,49.206
1177.00,49.187
1178.00,49.199
1179.00,49.226
1180.00,49.231
1181.00,49.225
1182.00,49.203
1183.00,49.207
1184.00,49.189
1185.00,49.210
1186.00,49.196
1187.00,49.208
1188.00,49.192
1189.00,49.189
1190.00,49.175
1191.00,49.159
1192.00,49.205
1193.00,49.174
1194.00,49.198
1195.00,49.172
1196.00,49.198
1197.00,49.214
1198.00,49.193
1199.00,49.200
1200.00,49.217
1201.00,49.225
1202.00,49.211
1203.00,49.200
1204.00,49.194
1205.00,49.219
1206.00,49.210
1207.00,49.211
1208.00,49.200
1209.00,49.220
1210.00,49.211
1211.00,49.201
1212.00,49.206
1213.00,49.170
1214.00,49.207
1215.00,49.183
1216.00,49.198
1217.00,49.208
1218.00,49.186
1219.00,49.207
1220.00,49.200
1221.00,49.214
1222.00,49.207
1223.00,49.227
1224.00,49.218
1225.00,49.220
1226.00,49.206
1227.00,49.208
1228.00,49.229
1229.00,49.232
1230.00,49.270
1231.00,49.261
1232.00,49.268
1233.00,49.269
1234.00,49.272
1235.00,49.273
1236.00,49.280
1237.00,49.275
1238.00,49.286
1239.00,49.280
1240.00,49.267
1241.00,49.305
1242.00,49.282
1243.00,49.296
1244.00,49.280
1245.00,49.303
1246.00,49.313
1247.00,49.296
1248.00,49.291
1249.00,49.317
1250.00,49.332
1251.00,49.323
1252.00,49.321
1253.00,49.337
1254.00,49.339
1255.00,49.345
1256.00,49.368
1257.00,49.307
1258.00,49.359
1259.00,49.347
1260.00,49.377
1261.00,49.373
1262.00,49.361
1263.00,49.381
1264.00,49.372
1265.00,49.376
1266.00,49.380
1267.00,49.382
1268.00,49.399
1269.00,49.418
1270.00,49.447
1271.00,49.434
1272.00,49.422
1273.00,49.430
1274.00,49.437
1275.00,49.439
1276.00,49.440
1277.00,49.459
1278.00,49.464
1279.00,49.478
1280.00,49.465
1281.00,49.479
1282.00,49.500
1283.00,49.495
1284.00,49.506
1285.00,49.507
1286.00,49.524
1287.00,49.517
1288.00,49.521
1289.00,49.515
1290.00,49.534
1291.00,49.535
1292.00,49.547
1293.00,49.535
1294.00,49.554
1295.00,49.572
1296.00,49.567
1297.00,49.573
1298.00,49.589
1299.00,49.565
1300.00,49.583
1301.00,49.590
1302.00,49.617
1303.00,49.582
1304.00,49.574
1305.00,49.616
1306.00,49.618
1307.00,49.645
1308.00,49.640
1309.00,49.651
1310.00,49.638
1311.00,49.619
1312.00,49.643
1313.00,49.656
1314.00,49.671
1315.00,49.695
1316.00,49.693
1317.00,49.724
1318.00,49.721
1319.00,49.742
1320.00,49.742
1321.00,49.912
1322.00,49.897
1323.00,49.893
1324.00,49.878
1325.00,49.865
1326.00,49.871
1327.00,49.845
1328.00,49.866
1329.00,49.838
1330.00,49.871
1331.00,49.872
1332.00,49.877
1333.00,49.881
1334.00,49.917
1335.00,49.941
1336.00,49.978
1337.00,49.982
1338.00,50.055
1339.00,50.092
1340.00,50.171
1341.00,50.224
1342.00,50.294
1343.00,50.339
1344.00,50.390
1345.00,50.437
1346.00,50.485
1347.00,50.506
1348.00,50.534
1349.00,50.548
1350.00,50.566
1351.00,50.583
1352.00,50.584
1353.00,50.560
1354.00,50.584
1355.00,50.575
1356.00,50.607
1357.00,50.598
1358.00,50.647
1359.00,50.621
1360.00,50.671
1361.00,50.718
1362.00,50.610
1363.00,50.690
1364.00,50.712
1365.00,50.664
1366.00,50.726
1367.00,50.701
1368.00,50.651
1369.00,50.675
1370.00,50.680
1371.00,50.656
1372.00,50.641
1373.00,50.680
1374.00,50.653
1375.00,50.652
1376.00,50.679
1377.00,50.619
1378.00,50.734
1379.00,50.696
1380.00,50.689
1381.00,50.727
1382.00,50.695
1383.00,50.677
1384.00,50.632
1385.00,50.615
1386.00,50.673
1387.00,50.634
1388.00,50.624
1389.00,50.609
1390.00,50.615
1391.00,50.652
1392.00,50.627
1393.00,50.699
1394.00,50.678
1395.00,50.609
1396.00,50.595
1397.00,50.619
1398.00,50.640
1399.00,50.640
1400.00,50.621
1401.00,50.617
1402.00,50.702
1403.00,50.683
1404.00,50.674
1405.00,50.726
1406.00,50.736
1407.00,50.701
1408.00,50.733
1409.00,50.715
1410.00,50.756
1411.00,50.711
1412.00,50.809
1413.00,50.765
1414.00,50.758
1415.00,50.788
1416.00,50.795
1417.00,50.817
1418.00,50.807
1419.00,50.822
1420.00,50.843
1421.00,50.890
1422.00,50.887
1423.00,50.912
1424.00,50.917
1425.00,50.937
1426.00,50.920
1427.00,50.947
1428.00,50.954
1429.00,50.974
1430.00,50.977
1431.00,51.011
1432.00,51.034
1433.00,51.051
1434.00,51.056
1435.00,51.101
1436.00,51.127
1437.00,51.113
1438.00,51.130
1439.00,51.155
1440.00,51.156
1441.00,51.177
1442.00,51.195
1443.00,51.215
1444.00,51.271
1445.00,51.240
1446.00,51.271
1447.00,51.299
1448.00,51.345
1449.00,51.340
1450.00,51.355
1451.00,51.365
1452.00,51.408
1453.00,51.389
1454.00,51.409
1455.00,51.440
1456.00,51.452
1457.00,51.457
1458.00,51.490
1459.00,51.495
1460.00,51.519
1461.00,51.518
1462.00,51.560
1463.00,51.549
1464.00,51.561
1465.00,51.596
1466.00,51.592
1467.00,51.640
1468.00,51.695
1469.00,51.659
1470.00,51.686
1471.00,51.707
1472.00,51.710
1473.00,51.723
1474.00,51.757
1475.00,51.770
1476.00,51.799
1477.00,51.780
1478.00,51.814
1479.00,51.834
1480.00,51.812
1481.00,51.824
1482.00,51.856
1483.00,51.866
1484.00,51.879
1485.00,51.892
1486.00,51.915
1487.00,51.938
1488.00,51.961
1489.00,51.953
1490.00,51.964
1491.00,51.976
1492.00,52.009
1493.00,51.980
1494.00,52.042
1495.00,52.013
1496.00,52.046
1497.00,52.035
1498.00,52.055
1499.00,52.070
1500.00,52.086
1501.00, 
1502.00, 
1503.00, 
1504.00, 
1505.00, 
1506.00, 
1507.00, 
1508.00, 
1509.00, 
1510.00, 
1511.00, 
1512.00, 
1513.00, 
1514.00, 
1515.00, 
1516.00, 
1517.00, 
1518.00, 
1519.00, 
1520.00, 
1521.00, 
1522.00, 
1523.00, 
1524.00, 
1525.00, 
1526.00, 
1527.00, 
1528.00, 
1529.00, 
1530.00, 
1531.00, 
1532.00, 
1533.00, 
1534.00, 
1535.00, 
1536.00, 
1537.00, 
1538.00, 
1539.00, 
1540.00, 
1541.00, 
1542.00, 
1543.00, 
1544.00, 
1545.00, 
1546.00, 
1547.00, 
1548.00, 
1549.00, 
1550.00, 
1551.00, 
1552.00, 
1553.00, 
1554.00, 
1555.00, 
1556.00, 
1557.00, 
1558.00, 
1559.00, 
1560.00, 
1561.00, 
1562.00, 
1563.00, 
1564.00, 
1565.00, 
1566.00, 
1567.00, 
1568.00, 
1569.00, 
1570.00, 
1571.00, 
1572.00, 
1573.00, 
1574.00, 
1575.00, 
1576.00, 
1577.00, 
1578.00, 
1579.00, 
1580.00, 
1581.00, 
1582.00, 
1583.00, 
1584.00, 
1585.00, 
1586.00, 
1587.00, 
1588.00, 
1589.00, 
1590.00, 
1591.00, 
1592.00, 
1593.00, 
1594.00, 
1595.00, 
1596.00, 
1597.00, 
1598.00, 
1599.00, 
1600.00, 
1601.00, 
1602.00, 
1603.00, 
1604.00, 
1605.00, 
1606.00, 
1607.00, 
1608.00, 
1609.00, 
1610.00, 
1611.00, 
1612.00, 
1613.00, 
1614.00, 
1615.00, 
1616.00, 
1617.00, 
1618.00, 
1619.00, 
1620.00, 
1621.00, 
1622.00, 
1623.00, 
1624.00, 
1625.00, 
1626.00, 
1627.00, 
1628.00, 
1629.00, 
1630.00, 
1631.00, 
1632.00, 
1633.00, 
1634.00, 
1635.00, 
1636.00, 
1637.00, 
1638.00, 
1639.00, 
1640.00, 
1641.00, 
1642.00, 
1643.00, 
1644.00, 
1645.00, 
1646.00, 
1647.00, 
1648.00, 
1649.00, 
1650.00, 
1651.00, 
1652.00, 
1653.00, 
1654.00, 
1655.00, 
1656.00, 
1657.00, 
1658.00, 
1659.00, 
1660.00, 
1661.00, 
1662.00, 
1663.00, 
1664.00, 
1665.00, 
1666.00, 
1667.00, 
1668.00, 
1669.00, 
1670.00, 
1671.00, 
1672.00, 
1673.00, 
1674.00, 
1675.00, 
1676.00, 
1677.00, 
1678.00, 
1679.00, 
1680.00, 
1681.00, 
1682.00, 
1683.00, 
1684.00, 
1685.00, 
1686.00, 
1687.00, 
1688.00, 
1689.00, 
1690.00, 
1691.00, 
1692.00, 
1693.00, 
1694.00, 
1695.00, 
1696.00, 
1697.00, 
1698.00, 
1699.00, 
1700.00, 
1701.00, 
1702.00, 
1703.00, 
1704.00, 
1705.00, 
1706.00, 
1707.00, 
1708.00, 
1709.00, 
1710.00, 
1711.00, 
1712.00, 
1713.00, 
1714.00, 
1715.00, 
1716.00, 
1717.00, 
1718.00, 
1719.00, 
1720.00, 
1721.00, 
1722.00, 
1723.00, 
1724.00, 
1725.00, 
1726.00, 
1727.00, 
1728.00, 
1729.00, 
1730.00, 
1731.00, 
1732.00, 
1733.00, 
1734.00, 
1735.00, 
1736.00, 
1737.00, 
1738.00, 
1739.00, 
1740.00, 
1741.00, 
1742.00, 
1743.00, 
1744.00, 
1745.00, 
1746.00, 
1747.00, 
1748.00, 
1749.00, 
1750.00, 
1751.00, 
1752.00, 
1753.00, 
1754.00, 
1755.00, 
1756.00, 
1757.00, 
1758.00, 
1759.00, 
1760.00, 
1761.00, 
1762.00, 
1763.00, 
1764.00, 
1765.00, 
1766.00, 
1767.00, 
1768.00, 
1769.00, 
1770.00, 
1771.00, 
1772.00, 
1773.00, 
1774.00, 
1775.00, 
1776.00, 
1777.00, 
1778.00, 
1779.00, 
1780.00, 
1781.00, 
1782.00, 
1783.00, 
1784.00, 
1785.00, 
1786.00, 
1787.00, 
1788.00, 
1789.00, 
1790.00, 
1791.00, 
1792.00, 
1793.00, 
1794.00, 
1795.00, 
1796.00, 
1797.00, 
1798.00, 
1799.00, 
1800.00, 
1801.00, 
1802.00, 
1803.00, 
1804.00, 
1805.00, 
1806.00, 
1807.00, 
1808.00, 
1809.00, 
1810.00, 
1811.00, 
1812.00, 
1813.00, 
1814.00, 
1815.00, 
1816.00, 
1817.00, 
1818.00, 
1819.00, 
1820.00, 
1821.00, 
1822.00, 
1823.00, 
1824.00, 
1825.00, 
1826.00, 
1827.00, 
1828.00, 
1829.00, 
1830.00, 
1831.00, 
1832.00, 
1833.00, 
1834.00, 
1835.00, 
1836.00, 
1837.00, 
1838.00, 
1839.00, 
1840.00, 
1841.00, 
1842.00, 
1843.00, 
1844.00, 
1845.00, 
1846.00, 
1847.00, 
1848.00, 
1849.00, 
1850.00, 
1851.00, 
1852.00, 
1853.00, 
1854.00, 
1855.00, 
1856.00, 
1857.00, 
1858.00, 
1859.00, 
1860.00, 
1861.00, 
1862.00, 
1863.00, 
1864.00, 
1865.00, 
1866.00, 
1867.00, 
1868.00, 
1869.00, 
1870.00, 
1871.00, 
1872.00, 
1873.00, 
1874.00, 
1875.00, 
1876.00, 
1877.00, 
1878.00, 
1879.00, 
1880.00, 
1881.00, 
1882.00, 
1883.00, 
1884.00, 
1885.00, 
1886.00, 
1887.00, 
1888.00, 
1889.00, 
1890.00, 
1891.00, 
1892.00, 
1893.00, 
1894.00, 
1895.00, 
1896.00, 
1897.00, 
1898.00, 
1899.00, 
1900.00, 
1901.00, 
1902.00, 
1903.00, 
1904.00, 
1905.00, 
1906.00, 
1907.00, 
1908.00, 
1909.00, 
1910.00, 
1911.00, 
1912.00, 
1913.00, 
1914.00, 
1915.00, 
1916.00, 
1917.00, 
1918.00, 
1919.00, 
1920.00, 
1921.00, 
1922.00, 
1923.00, 
1924.00, 
1925.00, 
1926.00, 
1927.00, 
1928.00, 
1929.00, 
1930.00, 
1931.00, 
1932.00, 
1933.00, 
1934.00, 
1935.00, 
1936.00, 
1937.00, 
1938.00, 
1939.00, 
1940.00, 
1941.00, 
1942.00, 
1943.00, 
1944.00, 
1945.00, 
1946.00, 
1947.00, 
1948.00, 
1949.00, 
1950.00, 
1951.00, 
1952.00, 
1953.00, 
1954.00, 
1955.00, 
1956.00, 
1957.00, 
1958.00, 
1959.00, 
1960.00, 
1961.00, 
1962.00, 
1963.00, 
1964.00, 
1965.00, 
1966.00, 
1967.00, 
1968.00, 
1969.00, 
1970.00, 
1971.00, 
1972.00, 
1973.00, 
1974.00, 
1975.00, 
1976.00, 
1977.00, 
1978.00, 
1979.00, 
1980.00, 
1981.00, 
1982.00, 
1983.00, 
1984.00, 
1985.00, 
1986.00, 
1987.00, 
1988.00, 
1989.00, 
1990.00, 
1991.00, 
1992.00, 
1993.00, 
1994.00, 
1995.00, 
1996.00, 
1997.00, 
1998.00, 
1999.00, 
2000.00, 
2001.00, 
2002.00, 
2003.00, 
2004.00, 
2005.00, 
2006.00, 
2007.00, 
2008.00, 
2009.00, 
2010.00, 
2011.00, 
2012.00, 
2013.00, 
2014.00, 
2015.00, 
2016.00, 
2017.00, 
2018.00, 
2019.00, 
2020.00, 
2021.00, 
2022.00, 
2023.00, 
2024.00, 
2025.00, 
2026.00, 
2027.00, 
2028.00, 
2029.00, 
2030.00, 
2031.00, 
2032.00, 
2033.00, 
2034.00, 
2035.00, 
2036.00, 
2037.00, 
2038.00, 
2039.00, 
2040.00, 
2041.00, 
2042.00, 
2043.00, 
2044.00, 
2045.00, 
2046.00, 
2047.00, 
2048.00, 
2049.00, 
2050.00, 
2051.00, 
2052.00, 
2053.00, 
2054.00, 
2055.00, 
2056.00, 
2057.00, 
2058.00, 
2059.00, 
2060.00, 
2061.00, 
2062.00, 
2063.00, 
2064.00, 
2065.00, 
2066.00, 
2067.00, 
2068.00, 
2069.00, 
2070.00, 
2071.00, 
2072.00, 
2073.00, 
2074.00, 
2075.00, 
2076.00, 
2077.00, 
2078.00, 
2079.00, 
2080.00, 
2081.00, 
2082.00, 
2083.00, 
2084.00, 
2085.00, 
2086.00, 
2087.00, 
2088.00, 
2089.00, 
2090.00, 
2091.00, 
2092.00, 
2093.00, 
2094.00, 
2095.00, 
2096.00, 
2097.00, 
2098.00, 
2099.00, 
2100.00, 
2101.00, 
2102.00, 
2103.00, 
2104.00, 
2105.00, 
2106.00, 
2107.00, 
2108.00, 
2109.00, 
2110.00, 
2111.00, 
2112.00, 
2113.00, 
2114.00, 
2115.00, 
2116.00, 
2117.00, 
2118.00, 
2119.00, 
2120.00, 
2121.00, 
2122.00, 
2123.00, 
2124.00, 
2125.00, 
2126.00, 
2127.00, 
2128.00, 
2129.00, 
2130.00, 
2131.00, 
2132.00, 
2133.00, 
2134.00, 
2135.00, 
2136.00, 
2137.00, 
2138.00, 
2139.00, 
2140.00, 
2141.00, 
2142.00, 
2143.00, 
2144.00, 
2145.00, 
2146.00, 
2147.00, 
2148.00, 
2149.00, 
2150.00, 
2151.00, 
2152.00, 
2153.00, 
2154.00, 
2155.00, 
2156.00, 
2157.00, 
2158.00, 
2159.00, 
2160.00, 
2161.00, 
2162.00, 
2163.00, 
2164.00, 
2165.00, 
2166.00, 
2167.00, 
2168.00, 
2169.00, 
2170.00, 
2171.00, 
2172.00, 
2173.00, 
2174.00, 
2175.00, 
2176.00, 
2177.00, 
2178.00, 
2179.00, 
2180.00, 
2181.00, 
2182.00, 
2183.00, 
2184.00, 
2185.00, 
2186.00, 
2187.00, 
2188.00, 
2189.00, 
2190.00, 
2191.00, 
2192.00, 
2193.00, 
2194.00, 
2195.00, 
2196.00, 
2197.00, 
2198.00, 
2199.00, 
2200.00, 
2201.00, 
2202.00, 
2203.00, 
2204.00, 
2205.00, 
2206.00, 
2207.00, 
2208.00, 
2209.00, 
2210.00, 
2211.00, 
2212.00, 
2213.00, 
2214.00, 
2215.00, 
2216.00, 
2217.00, 
2218.00, 
2219.00, 
2220.00, 
2221.00, 
2222.00, 
2223.00, 
2224.00, 
2225.00, 
2226.00, 
2227.00, 
2228.00, 
2229.00, 
2230.00, 
2231.00, 
2232.00, 
2233.00, 
2234.00, 
2235.00, 
2236.00, 
2237.00, 
2238.00, 
2239.00, 
2240.00, 
2241.00, 
2242.00, 
2243.00, 
2244.00, 
2245.00, 
2246.00, 
2247.00, 
2248.00, 
2249.00, 
2250.00, 
2251.00, 
2252.00, 
2253.00, 
2254.00, 
2255.00, 
2256.00, 
2257.00, 
2258.00, 
2259.00, 
2260.00, 
2261.00, 
2262.00, 
2263.00, 
2264.00, 
2265.00, 
2266.00, 
2267.00, 
2268.00, 
2269.00, 
2270.00, 
2271.00, 
2272.00, 
2273.00, 
2274.00, 
2275.00, 
2276.00, 
2277.00, 
2278.00, 
2279.00, 
2280.00, 
2281.00, 
2282.00, 
2283.00, 
2284.00, 
2285.00, 
2286.00, 
2287.00, 
2288.00, 
2289.00, 
2290.00, 
2291.00, 
2292.00, 
2293.00, 
2294.00, 
2295.00, 
2296.00, 
2297.00, 
2298.00, 
2299.00, 
2300.00, 
2301.00, 
2302.00, 
2303.00, 
2304.00, 
2305.00, 
2306.00, 
2307.00, 
2308.00, 
2309.00, 
2310.00, 
2311.00, 
2312.00, 
2313.00, 
2314.00, 
2315.00, 
2316.00, 
2317.00, 
2318.00, 
2319.00, 
2320.00, 
2321.00, 
2322.00, 
2323.00, 
2324.00, 
2325.00, 
2326.00, 
2327.00, 
2328.00, 
2329.00, 
2330.00, 
2331.00, 
2332.00, 
2333.00, 
2334.00, 
2335.00, 
2336.00, 
2337.00, 
2338.00, 
2339.00, 
2340.00, 
2341.00, 
2342.00, 
2343.00, 
2344.00, 
2345.00, 
2346.00, 
2347.00, 
2348.00, 
2349.00, 
2350.00, 
2351.00, 
2352.00, 
2353.00, 
2354.00, 
2355.00, 
2356.00, 
2357.00, 
2358.00, 
2359.00, 
2360.00, 
2361.00, 
2362.00, 
2363.00, 
2364.00, 
2365.00, 
2366.00, 
2367.00, 
2368.00, 
2369.00, 
2370.00, 
2371.00, 
2372.00, 
2373.00, 
2374.00, 
2375.00, 
2376.00, 
2377.00, 
2378.00, 
2379.00, 
2380.00, 
2381.00, 
2382.00, 
2383.00, 
2384.00, 
2385.00, 
2386.00, 
2387.00, 
2388.00, 
2389.00, 
2390.00, 
2391.00, 
2392.00, 
2393.00, 
2394.00, 
2395.00, 
2396.00, 
2397.00, 
2398.00, 
2399.00, 
2400.00, 
2401.00, 
2402.00, 
2403.00, 
2404.00, 
2405.00, 
2406.00, 
2407.00, 
2408.00, 
2409.00, 
2410.00, 
2411.00, 
2412.00, 
2413.00, 
2414.00, 
2415.00, 
2416.00, 
2417.00, 
2418.00, 
2419.00, 
2420.00, 
2421.00, 
2422.00, 
2423.00, 
2424.00, 
2425.00, 
2426.00, 
2427.00, 
2428.00, 
2429.00, 
2430.00, 
2431.00, 
2432.00, 
2433.00, 
2434.00, 
2435.00, 
2436.00, 
2437.00, 
2438.00, 
2439.00, 
2440.00, 
2441.00, 
2442.00, 
2443.00, 
2444.00, 
2445.00, 
2446.00, 
2447.00, 
2448.00, 
2449.00, 
2450.00, 
2451.00, 
2452.00, 
2453.00, 
2454.00, 
2455.00, 
2456.00, 
2457.00, 
2458.00, 
2459.00, 
2460.00, 
2461.00, 
2462.00, 
2463.00, 
2464.00, 
2465.00, 
2466.00, 
2467.00, 
2468.00, 
2469.00, 
2470.00, 
2471.00, 
2472.00, 
2473.00, 
2474.00, 
2475.00, 
2476.00, 
2477.00, 
2478.00, 
2479.00, 
2480.00, 
2481.00, 
2482.00, 
2483.00, 
2484.00, 
2485.00, 
2486.00, 
2487.00, 
2488.00, 
2489.00, 
2490.00, 
2491.00, 
2492.00, 
2493.00, 
2494.00, 
2495.00, 
2496.00, 
2497.00, 
2498.00, 
2499.00, 
2500.00, 
2501.00, 
2502.00, 
2503.00, 
2504.00, 
2505.00, 
2506.00, 
2507.00, 
2508.00, 
2509.00, 
2510.00, 
2511.00, 
2512.00, 
2513.00, 
2514.00, 
2515.00, 
2516.00, 
2517.00, 
2518.00, 
2519.00, 
2520.00, 
2521.00, 
2522.00, 
2523.00, 
2524.00, 
2525.00, 
2526.00, 
2527.00, 
2528.00, 
2529.00, 
2530.00, 
2531.00, 
2532.00, 
2533.00, 
2534.00, 
2535.00, 
2536.00, 
2537.00, 
2538.00, 
2539.00, 
2540.00, 
2541.00, 
2542.00, 
2543.00, 
2544.00, 
2545.00, 
2546.00, 
2547.00, 
2548.00, 
2549.00, 
2550.00, 
2551.00, 
2552.00, 
2553.00, 
2554.00, 
2555.00, 
2556.00, 
2557.00, 
2558.00, 
2559.00, 
2560.00, 
2561.00, 
2562.00, 
2563.00, 
2564.00, 
2565.00, 
2566.00, 
2567.00, 
2568.00, 
2569.00, 
2570.00, 
2571.00, 
2572.00, 
2573.00, 
2574.00, 
2575.00, 
2576.00, 
2577.00, 
2578.00, 
2579.00, 
2580.00, 
2581.00, 
2582.00, 
2583.00, 
2584.00, 
2585.00, 
2586.00, 
2587.00, 
2588.00, 
2589.00, 
2590.00, 
2591.00, 
2592.00, 
2593.00, 
2594.00, 
2595.00, 
2596.00, 
2597.00, 
2598.00, 
2599.00, 
2600.00, 
