"2aP2 - RawData"
"Wavelength nm.","T%"
200.00,0.001
201.00,-0.000
202.00,0.002
203.00,0.002
204.00,0.001
205.00,0.003
206.00,0.003
207.00,0.005
208.00,0.002
209.00,0.001
210.00,-0.001
211.00,0.001
212.00,0.000
213.00,-0.000
214.00,0.003
215.00,0.001
216.00,0.001
217.00,0.001
218.00,0.002
219.00,0.000
220.00,-0.003
221.00,0.000
222.00,0.002
223.00,0.000
224.00,0.003
225.00,0.003
226.00,-0.001
227.00,0.002
228.00,0.003
229.00,0.000
230.00,0.003
231.00,0.001
232.00,0.002
233.00,0.001
234.00,0.001
235.00,-0.001
236.00,0.003
237.00,0.001
238.00,0.000
239.00,0.002
240.00,0.002
241.00,0.001
242.00,0.001
243.00,0.000
244.00,0.001
245.00,0.002
246.00,0.001
247.00,0.001
248.00,-0.001
249.00,0.002
250.00,0.001
251.00,-0.000
252.00,0.001
253.00,0.000
254.00,0.002
255.00,0.000
256.00,0.001
257.00,0.001
258.00,0.001
259.00,-0.002
260.00,0.000
261.00,-0.000
262.00,-0.000
263.00,0.000
264.00,0.001
265.00,0.000
266.00,0.000
267.00,0.001
268.00,0.002
269.00,0.001
270.00,-0.000
271.00,0.001
272.00,0.002
273.00,-0.001
274.00,-0.001
275.00,0.002
276.00,0.001
277.00,0.001
278.00,-0.000
279.00,0.001
280.00,-0.000
281.00,-0.001
282.00,0.000
283.00,-0.002
284.00,-0.000
285.00,-0.001
286.00,0.002
287.00,0.000
288.00,0.001
289.00,0.001
290.00,-0.001
291.00,-0.001
292.00,-0.001
293.00,-0.001
294.00,-0.000
295.00,0.001
296.00,-0.001
297.00,0.001
298.00,0.001
299.00,0.001
300.00,-0.000
301.00,0.002
302.00,0.005
303.00,0.005
304.00,0.006
305.00,0.013
306.00,0.019
307.00,0.028
308.00,0.043
309.00,0.065
310.00,0.092
311.00,0.129
312.00,0.171
313.00,0.235
314.00,0.301
315.00,0.390
316.00,0.503
317.00,0.617
318.00,0.764
319.00,0.938
320.00,1.143
321.00,1.377
322.00,1.613
323.00,1.882
324.00,2.188
325.00,2.489
326.00,2.810
327.00,3.162
328.00,3.535
329.00,3.903
330.00,4.296
331.00,4.650
332.00,5.080
333.00,5.513
334.00,5.893
335.00,6.291
336.00,6.719
337.00,7.140
338.00,7.518
339.00,7.864
340.00,8.247
341.00,8.609
342.00,8.937
343.00,9.271
344.00,9.618
345.00,9.900
346.00,10.149
347.00,10.388
348.00,10.650
349.00,10.890
350.00,11.108
351.00,11.284
352.00,11.459
353.00,11.633
354.00,11.806
355.00,11.951
356.00,12.092
357.00,12.174
358.00,12.302
359.00,12.435
360.00,12.556
361.00,12.612
362.00,12.684
363.00,12.753
364.00,12.768
365.00,12.805
366.00,12.861
367.00,12.892
368.00,12.876
369.00,12.888
370.00,12.918
371.00,12.891
372.00,12.850
373.00,12.889
374.00,12.873
375.00,12.812
376.00,12.789
377.00,12.746
378.00,12.693
379.00,12.598
380.00,12.572
381.00,12.559
382.00,12.510
383.00,12.506
384.00,12.495
385.00,12.492
386.00,12.472
387.00,12.508
388.00,12.503
389.00,12.470
390.00,12.482
391.00,12.463
392.00,12.466
393.00,12.434
394.00,12.433
395.00,12.424
396.00,12.403
397.00,12.405
398.00,12.373
399.00,12.393
400.00,12.362
401.00,12.352
402.00,12.361
403.00,12.357
404.00,12.338
405.00,12.328
406.00,12.316
407.00,12.298
408.00,12.303
409.00,12.262
410.00,12.220
411.00,12.209
412.00,12.194
413.00,12.206
414.00,12.192
415.00,12.197
416.00,12.232
417.00,12.224
418.00,12.286
419.00,12.285
420.00,12.300
421.00,12.274
422.00,12.305
423.00,12.372
424.00,12.363
425.00,12.396
426.00,12.420
427.00,12.473
428.00,12.501
429.00,12.515
430.00,12.583
431.00,12.637
432.00,12.656
433.00,12.705
434.00,12.755
435.00,12.812
436.00,12.865
437.00,12.931
438.00,13.005
439.00,13.055
440.00,13.146
441.00,13.203
442.00,13.271
443.00,13.363
444.00,13.428
445.00,13.511
446.00,13.589
447.00,13.681
448.00,13.775
449.00,13.869
450.00,13.965
451.00,14.048
452.00,14.177
453.00,14.289
454.00,14.354
455.00,14.431
456.00,14.562
457.00,14.666
458.00,14.758
459.00,14.890
460.00,15.004
461.00,15.135
462.00,15.228
463.00,15.386
464.00,15.510
465.00,15.608
466.00,15.747
467.00,15.905
468.00,15.971
469.00,16.099
470.00,16.219
471.00,16.314
472.00,16.455
473.00,16.555
474.00,16.686
475.00,16.815
476.00,16.918
477.00,17.077
478.00,17.186
479.00,17.360
480.00,17.486
481.00,17.603
482.00,17.772
483.00,17.907
484.00,18.108
485.00,18.255
486.00,18.392
487.00,18.557
488.00,18.703
489.00,18.858
490.00,19.021
491.00,19.169
492.00,19.302
493.00,19.503
494.00,19.658
495.00,19.733
496.00,19.870
497.00,20.004
498.00,20.150
499.00,20.331
500.00,20.488
501.00,20.543
502.00,20.699
503.00,20.842
504.00,20.903
505.00,21.115
506.00,21.259
507.00,21.378
508.00,21.434
509.00,21.661
510.00,21.769
511.00,21.919
512.00,22.088
513.00,22.228
514.00,22.388
515.00,22.521
516.00,22.624
517.00,22.728
518.00,22.893
519.00,22.969
520.00,23.042
521.00,23.161
522.00,23.272
523.00,23.356
524.00,23.476
525.00,23.618
526.00,23.723
527.00,23.819
528.00,23.901
529.00,24.062
530.00,24.216
531.00,24.369
532.00,24.457
533.00,24.592
534.00,24.664
535.00,24.774
536.00,24.859
537.00,24.952
538.00,25.040
539.00,25.141
540.00,25.228
541.00,25.321
542.00,25.450
543.00,25.423
544.00,25.556
545.00,25.608
546.00,25.644
547.00,25.803
548.00,25.817
549.00,25.974
550.00,26.049
551.00,26.070
552.00,26.163
553.00,26.265
554.00,26.334
555.00,26.412
556.00,26.559
557.00,26.592
558.00,26.636
559.00,26.713
560.00,26.796
561.00,26.887
562.00,26.940
563.00,26.957
564.00,27.022
565.00,27.114
566.00,27.127
567.00,27.183
568.00,27.249
569.00,27.308
570.00,27.342
571.00,27.425
572.00,27.480
573.00,27.492
574.00,27.533
575.00,27.599
576.00,27.612
577.00,27.696
578.00,27.784
579.00,27.855
580.00,27.863
581.00,28.026
582.00,28.148
583.00,28.120
584.00,28.219
585.00,28.326
586.00,28.343
587.00,28.435
588.00,28.468
589.00,28.456
590.00,28.561
591.00,28.635
592.00,28.610
593.00,28.664
594.00,28.743
595.00,28.836
596.00,28.925
597.00,29.014
598.00,29.066
599.00,29.108
600.00,29.220
601.00,29.244
602.00,29.173
603.00,29.337
604.00,29.352
605.00,29.381
606.00,29.477
607.00,29.499
608.00,29.557
609.00,29.697
610.00,29.864
611.00,29.763
612.00,29.802
613.00,29.902
614.00,29.932
615.00,30.041
616.00,30.178
617.00,30.172
618.00,30.189
619.00,30.324
620.00,30.356
621.00,30.451
622.00,30.573
623.00,30.648
624.00,30.693
625.00,30.829
626.00,30.873
627.00,30.940
628.00,31.015
629.00,31.060
630.00,31.129
631.00,31.277
632.00,31.412
633.00,31.494
634.00,31.566
635.00,31.773
636.00,31.808
637.00,31.918
638.00,31.999
639.00,32.116
640.00,32.261
641.00,32.363
642.00,32.362
643.00,32.464
644.00,32.587
645.00,32.668
646.00,32.928
647.00,33.019
648.00,33.074
649.00,33.144
650.00,33.224
651.00,33.455
652.00,33.530
653.00,33.581
654.00,33.692
655.00,33.977
656.00,34.221
657.00,34.258
658.00,34.365
659.00,34.356
660.00,34.552
661.00,34.630
662.00,34.755
663.00,34.927
664.00,35.188
665.00,35.407
666.00,35.367
667.00,35.473
668.00,35.504
669.00,35.836
670.00,36.078
671.00,35.997
672.00,36.233
673.00,36.355
674.00,36.461
675.00,36.601
676.00,36.877
677.00,36.993
678.00,36.927
679.00,37.217
680.00,37.311
681.00,37.626
682.00,37.664
683.00,37.619
684.00,37.922
685.00,38.137
686.00,38.131
687.00,38.304
688.00,38.438
689.00,38.501
690.00,38.816
691.00,39.115
692.00,39.045
693.00,39.079
694.00,39.371
695.00,39.597
696.00,39.676
697.00,39.670
698.00,39.832
699.00,40.112
700.00,40.224
701.00,40.363
702.00,40.547
703.00,40.748
704.00,40.852
705.00,40.790
706.00,41.009
707.00,41.114
708.00,41.064
709.00,41.518
710.00,41.936
711.00,41.507
712.00,41.675
713.00,41.993
714.00,42.050
715.00,42.104
716.00,42.225
717.00,42.430
718.00,42.710
719.00,42.744
720.00,42.821
721.00,47.101
722.00,47.129
723.00,47.181
724.00,47.341
725.00,47.426
726.00,47.449
727.00,47.600
728.00,47.666
729.00,47.805
730.00,47.881
731.00,47.967
732.00,48.040
733.00,48.166
734.00,48.259
735.00,48.290
736.00,48.395
737.00,48.502
738.00,48.620
739.00,48.595
740.00,48.703
741.00,48.768
742.00,48.874
743.00,48.918
744.00,48.958
745.00,49.104
746.00,49.126
747.00,49.159
748.00,49.262
749.00,49.369
750.00,49.359
751.00,49.364
752.00,49.510
753.00,49.550
754.00,49.552
755.00,49.599
756.00,49.671
757.00,49.764
758.00,49.842
759.00,49.872
760.00,49.942
761.00,49.978
762.00,50.088
763.00,50.066
764.00,50.115
765.00,50.170
766.00,50.270
767.00,50.344
768.00,50.347
769.00,50.340
770.00,50.442
771.00,50.470
772.00,50.596
773.00,50.473
774.00,50.590
775.00,50.718
776.00,50.640
777.00,50.787
778.00,50.782
779.00,50.830
780.00,50.865
781.00,50.924
782.00,50.918
783.00,50.861
784.00,50.940
785.00,50.953
786.00,51.054
787.00,50.993
788.00,51.042
789.00,51.074
790.00,51.023
791.00,51.203
792.00,51.120
793.00,51.120
794.00,51.215
795.00,51.157
796.00,51.233
797.00,51.131
798.00,51.237
799.00,51.139
800.00,51.202
801.00,51.198
802.00,51.258
803.00,51.230
804.00,51.189
805.00,51.310
806.00,51.224
807.00,51.249
808.00,51.290
809.00,51.271
810.00,51.308
811.00,51.230
812.00,51.351
813.00,51.351
814.00,51.315
815.00,51.280
816.00,51.324
817.00,51.351
818.00,51.328
819.00,51.285
820.00,51.339
821.00,51.348
822.00,51.395
823.00,51.342
824.00,51.477
825.00,51.371
826.00,51.294
827.00,51.358
828.00,51.320
829.00,51.261
830.00,51.420
831.00,53.524
832.00,53.533
833.00,53.483
834.00,53.526
835.00,53.496
836.00,53.536
837.00,53.516
838.00,53.530
839.00,53.539
840.00,53.467
841.00,53.499
842.00,53.485
843.00,53.508
844.00,53.551
845.00,53.463
846.00,53.524
847.00,53.461
848.00,53.466
849.00,53.381
850.00,53.418
851.00,53.381
852.00,53.367
853.00,53.329
854.00,53.364
855.00,53.294
856.00,53.286
857.00,53.283
858.00,53.241
859.00,53.249
860.00,53.237
861.00,53.264
862.00,53.221
863.00,53.234
864.00,53.237
865.00,53.239
866.00,53.236
867.00,53.223
868.00,53.220
869.00,53.224
870.00,53.227
871.00,53.205
872.00,53.199
873.00,53.218
874.00,53.189
875.00,53.169
876.00,53.187
877.00,53.161
878.00,53.173
879.00,53.155
880.00,53.161
881.00,53.139
882.00,53.192
883.00,53.134
884.00,53.103
885.00,53.103
886.00,53.109
887.00,53.050
888.00,53.032
889.00,53.050
890.00,53.054
891.00,53.012
892.00,52.997
893.00,52.967
894.00,53.010
895.00,52.952
896.00,52.894
897.00,53.087
898.00,52.885
899.00,52.891
900.00,52.877
901.00,52.912
902.00,52.916
903.00,52.867
904.00,52.868
905.00,52.845
906.00,52.842
907.00,52.803
908.00,52.780
909.00,52.781
910.00,52.731
911.00,52.733
912.00,52.758
913.00,52.712
914.00,52.698
915.00,52.703
916.00,52.670
917.00,52.659
918.00,52.627
919.00,52.616
920.00,52.593
921.00,52.595
922.00,52.572
923.00,52.544
924.00,52.535
925.00,52.549
926.00,52.516
927.00,52.473
928.00,52.503
929.00,52.490
930.00,52.441
931.00,52.438
932.00,52.395
933.00,52.398
934.00,52.386
935.00,52.355
936.00,52.336
937.00,52.323
938.00,52.297
939.00,52.304
940.00,52.294
941.00,52.294
942.00,52.266
943.00,52.232
944.00,52.319
945.00,52.245
946.00,52.231
947.00,52.196
948.00,52.176
949.00,52.148
950.00,52.132
951.00,52.109
952.00,52.094
953.00,52.055
954.00,52.049
955.00,52.001
956.00,52.006
957.00,51.969
958.00,51.993
959.00,51.927
960.00,51.913
961.00,51.901
962.00,51.902
963.00,51.865
964.00,51.870
965.00,51.859
966.00,51.829
967.00,51.841
968.00,51.806
969.00,51.863
970.00,51.807
971.00,51.848
972.00,51.816
973.00,51.859
974.00,51.870
975.00,51.819
976.00,51.825
977.00,51.821
978.00,51.857
979.00,51.806
980.00,51.836
981.00,51.835
982.00,51.810
983.00,51.828
984.00,51.807
985.00,51.821
986.00,51.798
987.00,51.807
988.00,51.776
989.00,51.745
990.00,51.790
991.00,51.738
992.00,51.751
993.00,51.716
994.00,51.712
995.00,51.704
996.00,51.699
997.00,51.703
998.00,51.668
999.00,51.679
1000.00,51.619
1001.00,51.614
1002.00,51.640
1003.00,51.618
1004.00,51.583
1005.00,51.577
1006.00,51.594
1007.00,51.553
1008.00,51.560
1009.00,51.537
1010.00,51.527
1011.00,51.520
1012.00,51.488
1013.00,51.507
1014.00,51.470
1015.00,51.481
1016.00,51.437
1017.00,51.425
1018.00,51.428
1019.00,51.385
1020.00,51.383
1021.00,51.357
1022.00,51.352
1023.00,51.310
1024.00,51.326
1025.00,51.292
1026.00,51.283
1027.00,51.285
1028.00,51.268
1029.00,51.256
1030.00,51.256
1031.00,51.234
1032.00,51.197
1033.00,51.190
1034.00,51.168
1035.00,51.129
1036.00,51.102
1037.00,51.085
1038.00,51.068
1039.00,51.039
1040.00,51.038
1041.00,51.006
1042.00,51.003
1043.00,50.975
1044.00,51.006
1045.00,50.981
1046.00,50.970
1047.00,51.001
1048.00,51.009
1049.00,51.022
1050.00,51.011
1051.00,51.062
1052.00,51.057
1053.00,51.069
1054.00,51.062
1055.00,51.073
1056.00,51.079
1057.00,51.071
1058.00,51.049
1059.00,51.044
1060.00,51.056
1061.00,51.047
1062.00,51.040
1063.00,51.069
1064.00,51.055
1065.00,51.036
1066.00,51.045
1067.00,51.014
1068.00,51.037
1069.00,50.984
1070.00,50.961
1071.00,50.953
1072.00,50.953
1073.00,50.940
1074.00,50.932
1075.00,50.927
1076.00,50.919
1077.00,50.894
1078.00,50.914
1079.00,50.931
1080.00,50.920
1081.00,50.909
1082.00,50.905
1083.00,50.882
1084.00,50.876
1085.00,50.882
1086.00,50.857
1087.00,50.850
1088.00,50.825
1089.00,50.824
1090.00,50.816
1091.00,50.809
1092.00,50.801
1093.00,50.787
1094.00,50.777
1095.00,50.778
1096.00,50.778
1097.00,50.769
1098.00,50.762
1099.00,50.746
1100.00,50.740
1101.00,50.738
1102.00,50.715
1103.00,50.722
1104.00,50.713
1105.00,50.696
1106.00,50.669
1107.00,50.684
1108.00,50.670
1109.00,50.669
1110.00,50.653
1111.00,50.657
1112.00,50.654
1113.00,50.622
1114.00,50.603
1115.00,50.608
1116.00,50.600
1117.00,50.597
1118.00,50.597
1119.00,50.583
1120.00,50.561
1121.00,50.561
1122.00,50.545
1123.00,50.546
1124.00,50.534
1125.00,50.527
1126.00,50.523
1127.00,50.529
1128.00,50.496
1129.00,50.486
1130.00,50.472
1131.00,50.471
1132.00,50.454
1133.00,50.460
1134.00,50.448
1135.00,50.438
1136.00,50.445
1137.00,50.442
1138.00,50.428
1139.00,50.439
1140.00,50.447
1141.00,50.435
1142.00,50.424
1143.00,50.436
1144.00,50.391
1145.00,50.393
1146.00,50.393
1147.00,50.392
1148.00,50.382
1149.00,50.396
1150.00,50.398
1151.00,50.422
1152.00,50.419
1153.00,50.393
1154.00,50.375
1155.00,50.376
1156.00,50.367
1157.00,50.370
1158.00,50.363
1159.00,50.364
1160.00,50.345
1161.00,50.369
1162.00,50.356
1163.00,50.349
1164.00,50.352
1165.00,50.345
1166.00,50.343
1167.00,50.318
1168.00,50.333
1169.00,50.327
1170.00,50.321
1171.00,50.300
1172.00,50.338
1173.00,50.337
1174.00,50.312
1175.00,50.321
1176.00,50.317
1177.00,50.294
1178.00,50.300
1179.00,50.314
1180.00,50.307
1181.00,50.319
1182.00,50.302
1183.00,50.298
1184.00,50.277
1185.00,50.297
1186.00,50.277
1187.00,50.286
1188.00,50.291
1189.00,50.270
1190.00,50.267
1191.00,50.259
1192.00,50.279
1193.00,50.253
1194.00,50.278
1195.00,50.259
1196.00,50.297
1197.00,50.282
1198.00,50.273
1199.00,50.271
1200.00,50.278
1201.00,50.287
1202.00,50.271
1203.00,50.274
1204.00,50.266
1205.00,50.286
1206.00,50.273
1207.00,50.262
1208.00,50.253
1209.00,50.269
1210.00,50.271
1211.00,50.261
1212.00,50.282
1213.00,50.247
1214.00,50.261
1215.00,50.244
1216.00,50.256
1217.00,50.268
1218.00,50.246
1219.00,50.260
1220.00,50.239
1221.00,50.237
1222.00,50.228
1223.00,50.255
1224.00,50.252
1225.00,50.238
1226.00,50.241
1227.00,50.234
1228.00,50.263
1229.00,50.259
1230.00,50.276
1231.00,50.276
1232.00,50.277
1233.00,50.287
1234.00,50.293
1235.00,50.272
1236.00,50.268
1237.00,50.271
1238.00,50.270
1239.00,50.286
1240.00,50.264
1241.00,50.276
1242.00,50.278
1243.00,50.293
1244.00,50.273
1245.00,50.298
1246.00,50.311
1247.00,50.298
1248.00,50.301
1249.00,50.316
1250.00,50.318
1251.00,50.295
1252.00,50.307
1253.00,50.293
1254.00,50.326
1255.00,50.307
1256.00,50.297
1257.00,50.291
1258.00,50.342
1259.00,50.302
1260.00,50.329
1261.00,50.333
1262.00,50.332
1263.00,50.338
1264.00,50.338
1265.00,50.338
1266.00,50.328
1267.00,50.336
1268.00,50.339
1269.00,50.362
1270.00,50.374
1271.00,50.373
1272.00,50.388
1273.00,50.393
1274.00,50.401
1275.00,50.413
1276.00,50.390
1277.00,50.413
1278.00,50.412
1279.00,50.429
1280.00,50.412
1281.00,50.412
1282.00,50.423
1283.00,50.412
1284.00,50.409
1285.00,50.406
1286.00,50.425
1287.00,50.426
1288.00,50.427
1289.00,50.416
1290.00,50.446
1291.00,50.430
1292.00,50.424
1293.00,50.436
1294.00,50.486
1295.00,50.473
1296.00,50.466
1297.00,50.477
1298.00,50.504
1299.00,50.469
1300.00,50.483
1301.00,50.471
1302.00,50.496
1303.00,50.475
1304.00,50.486
1305.00,50.505
1306.00,50.511
1307.00,50.527
1308.00,50.521
1309.00,50.528
1310.00,50.540
1311.00,50.517
1312.00,50.528
1313.00,50.541
1314.00,50.550
1315.00,50.567
1316.00,50.562
1317.00,50.591
1318.00,50.590
1319.00,50.581
1320.00,50.591
1321.00,50.765
1322.00,50.756
1323.00,50.746
1324.00,50.733
1325.00,50.730
1326.00,50.736
1327.00,50.717
1328.00,50.718
1329.00,50.706
1330.00,50.723
1331.00,50.723
1332.00,50.723
1333.00,50.735
1334.00,50.753
1335.00,50.782
1336.00,50.806
1337.00,50.838
1338.00,50.902
1339.00,50.928
1340.00,50.983
1341.00,51.047
1342.00,51.110
1343.00,51.142
1344.00,51.207
1345.00,51.257
1346.00,51.290
1347.00,51.301
1348.00,51.332
1349.00,51.361
1350.00,51.364
1351.00,51.377
1352.00,51.371
1353.00,51.372
1354.00,51.375
1355.00,51.361
1356.00,51.405
1357.00,51.395
1358.00,51.434
1359.00,51.427
1360.00,51.464
1361.00,51.435
1362.00,51.414
1363.00,51.448
1364.00,51.429
1365.00,51.435
1366.00,51.459
1367.00,51.421
1368.00,51.441
1369.00,51.436
1370.00,51.428
1371.00,51.388
1372.00,51.403
1373.00,51.411
1374.00,51.427
1375.00,51.404
1376.00,51.399
1377.00,51.383
1378.00,51.447
1379.00,51.443
1380.00,51.407
1381.00,51.457
1382.00,51.403
1383.00,51.382
1384.00,51.367
1385.00,51.357
1386.00,51.429
1387.00,51.394
1388.00,51.355
1389.00,51.346
1390.00,51.374
1391.00,51.415
1392.00,51.366
1393.00,51.420
1394.00,51.416
1395.00,51.353
1396.00,51.335
1397.00,51.384
1398.00,51.447
1399.00,51.400
1400.00,51.346
1401.00,51.366
1402.00,51.478
1403.00,51.430
1404.00,51.416
1405.00,51.441
1406.00,51.457
1407.00,51.447
1408.00,51.466
1409.00,51.441
1410.00,51.493
1411.00,51.464
1412.00,51.528
1413.00,51.478
1414.00,51.464
1415.00,51.502
1416.00,51.515
1417.00,51.539
1418.00,51.521
1419.00,51.523
1420.00,51.552
1421.00,51.589
1422.00,51.592
1423.00,51.601
1424.00,51.607
1425.00,51.618
1426.00,51.618
1427.00,51.642
1428.00,51.628
1429.00,51.648
1430.00,51.656
1431.00,51.671
1432.00,51.696
1433.00,51.723
1434.00,51.713
1435.00,51.757
1436.00,51.785
1437.00,51.761
1438.00,51.783
1439.00,51.799
1440.00,51.798
1441.00,51.807
1442.00,51.816
1443.00,51.843
1444.00,51.897
1445.00,51.879
1446.00,51.886
1447.00,51.910
1448.00,51.970
1449.00,51.946
1450.00,51.972
1451.00,51.978
1452.00,52.015
1453.00,51.998
1454.00,52.021
1455.00,52.044
1456.00,52.049
1457.00,52.054
1458.00,52.067
1459.00,52.099
1460.00,52.129
1461.00,52.112
1462.00,52.167
1463.00,52.161
1464.00,52.163
1465.00,52.180
1466.00,52.176
1467.00,52.208
1468.00,52.253
1469.00,52.224
1470.00,52.250
1471.00,52.259
1472.00,52.266
1473.00,52.276
1474.00,52.307
1475.00,52.318
1476.00,52.343
1477.00,52.331
1478.00,52.369
1479.00,52.385
1480.00,52.368
1481.00,52.373
1482.00,52.403
1483.00,52.400
1484.00,52.408
1485.00,52.429
1486.00,52.443
1487.00,52.470
1488.00,52.487
1489.00,52.483
1490.00,52.513
1491.00,52.528
1492.00,52.571
1493.00,52.540
1494.00,52.569
1495.00,52.569
1496.00,52.591
1497.00,52.566
1498.00,52.575
1499.00,52.601
1500.00,52.617
1501.00, 
1502.00, 
1503.00, 
1504.00, 
1505.00, 
1506.00, 
1507.00, 
1508.00, 
1509.00, 
1510.00, 
1511.00, 
1512.00, 
1513.00, 
1514.00, 
1515.00, 
1516.00, 
1517.00, 
1518.00, 
1519.00, 
1520.00, 
1521.00, 
1522.00, 
1523.00, 
1524.00, 
1525.00, 
1526.00, 
1527.00, 
1528.00, 
1529.00, 
1530.00, 
1531.00, 
1532.00, 
1533.00, 
1534.00, 
1535.00, 
1536.00, 
1537.00, 
1538.00, 
1539.00, 
1540.00, 
1541.00, 
1542.00, 
1543.00, 
1544.00, 
1545.00, 
1546.00, 
1547.00, 
1548.00, 
1549.00, 
1550.00, 
1551.00, 
1552.00, 
1553.00, 
1554.00, 
1555.00, 
1556.00, 
1557.00, 
1558.00, 
1559.00, 
1560.00, 
1561.00, 
1562.00, 
1563.00, 
1564.00, 
1565.00, 
1566.00, 
1567.00, 
1568.00, 
1569.00, 
1570.00, 
1571.00, 
1572.00, 
1573.00, 
1574.00, 
1575.00, 
1576.00, 
1577.00, 
1578.00, 
1579.00, 
1580.00, 
1581.00, 
1582.00, 
1583.00, 
1584.00, 
1585.00, 
1586.00, 
1587.00, 
1588.00, 
1589.00, 
1590.00, 
1591.00, 
1592.00, 
1593.00, 
1594.00, 
1595.00, 
1596.00, 
1597.00, 
1598.00, 
1599.00, 
1600.00, 
1601.00, 
1602.00, 
1603.00, 
1604.00, 
1605.00, 
1606.00, 
1607.00, 
1608.00, 
1609.00, 
1610.00, 
1611.00, 
1612.00, 
1613.00, 
1614.00, 
1615.00, 
1616.00, 
1617.00, 
1618.00, 
1619.00, 
1620.00, 
1621.00, 
1622.00, 
1623.00, 
1624.00, 
1625.00, 
1626.00, 
1627.00, 
1628.00, 
1629.00, 
1630.00, 
1631.00, 
1632.00, 
1633.00, 
1634.00, 
1635.00, 
1636.00, 
1637.00, 
1638.00, 
1639.00, 
1640.00, 
1641.00, 
1642.00, 
1643.00, 
1644.00, 
1645.00, 
1646.00, 
1647.00, 
1648.00, 
1649.00, 
1650.00, 
1651.00, 
1652.00, 
1653.00, 
1654.00, 
1655.00, 
1656.00, 
1657.00, 
1658.00, 
1659.00, 
1660.00, 
1661.00, 
1662.00, 
1663.00, 
1664.00, 
1665.00, 
1666.00, 
1667.00, 
1668.00, 
1669.00, 
1670.00, 
1671.00, 
1672.00, 
1673.00, 
1674.00, 
1675.00, 
1676.00, 
1677.00, 
1678.00, 
1679.00, 
1680.00, 
1681.00, 
1682.00, 
1683.00, 
1684.00, 
1685.00, 
1686.00, 
1687.00, 
1688.00, 
1689.00, 
1690.00, 
1691.00, 
1692.00, 
1693.00, 
1694.00, 
1695.00, 
1696.00, 
1697.00, 
1698.00, 
1699.00, 
1700.00, 
1701.00, 
1702.00, 
1703.00, 
1704.00, 
1705.00, 
1706.00, 
1707.00, 
1708.00, 
1709.00, 
1710.00, 
1711.00, 
1712.00, 
1713.00, 
1714.00, 
1715.00, 
1716.00, 
1717.00, 
1718.00, 
1719.00, 
1720.00, 
1721.00, 
1722.00, 
1723.00, 
1724.00, 
1725.00, 
1726.00, 
1727.00, 
1728.00, 
1729.00, 
1730.00, 
1731.00, 
1732.00, 
1733.00, 
1734.00, 
1735.00, 
1736.00, 
1737.00, 
1738.00, 
1739.00, 
1740.00, 
1741.00, 
1742.00, 
1743.00, 
1744.00, 
1745.00, 
1746.00, 
1747.00, 
1748.00, 
1749.00, 
1750.00, 
1751.00, 
1752.00, 
1753.00, 
1754.00, 
1755.00, 
1756.00, 
1757.00, 
1758.00, 
1759.00, 
1760.00, 
1761.00, 
1762.00, 
1763.00, 
1764.00, 
1765.00, 
1766.00, 
1767.00, 
1768.00, 
1769.00, 
1770.00, 
1771.00, 
1772.00, 
1773.00, 
1774.00, 
1775.00, 
1776.00, 
1777.00, 
1778.00, 
1779.00, 
1780.00, 
1781.00, 
1782.00, 
1783.00, 
1784.00, 
1785.00, 
1786.00, 
1787.00, 
1788.00, 
1789.00, 
1790.00, 
1791.00, 
1792.00, 
1793.00, 
1794.00, 
1795.00, 
1796.00, 
1797.00, 
1798.00, 
1799.00, 
1800.00, 
1801.00, 
1802.00, 
1803.00, 
1804.00, 
1805.00, 
1806.00, 
1807.00, 
1808.00, 
1809.00, 
1810.00, 
1811.00, 
1812.00, 
1813.00, 
1814.00, 
1815.00, 
1816.00, 
1817.00, 
1818.00, 
1819.00, 
1820.00, 
1821.00, 
1822.00, 
1823.00, 
1824.00, 
1825.00, 
1826.00, 
1827.00, 
1828.00, 
1829.00, 
1830.00, 
1831.00, 
1832.00, 
1833.00, 
1834.00, 
1835.00, 
1836.00, 
1837.00, 
1838.00, 
1839.00, 
1840.00, 
1841.00, 
1842.00, 
1843.00, 
1844.00, 
1845.00, 
1846.00, 
1847.00, 
1848.00, 
1849.00, 
1850.00, 
1851.00, 
1852.00, 
1853.00, 
1854.00, 
1855.00, 
1856.00, 
1857.00, 
1858.00, 
1859.00, 
1860.00, 
1861.00, 
1862.00, 
1863.00, 
1864.00, 
1865.00, 
1866.00, 
1867.00, 
1868.00, 
1869.00, 
1870.00, 
1871.00, 
1872.00, 
1873.00, 
1874.00, 
1875.00, 
1876.00, 
1877.00, 
1878.00, 
1879.00, 
1880.00, 
1881.00, 
1882.00, 
1883.00, 
1884.00, 
1885.00, 
1886.00, 
1887.00, 
1888.00, 
1889.00, 
1890.00, 
1891.00, 
1892.00, 
1893.00, 
1894.00, 
1895.00, 
1896.00, 
1897.00, 
1898.00, 
1899.00, 
1900.00, 
1901.00, 
1902.00, 
1903.00, 
1904.00, 
1905.00, 
1906.00, 
1907.00, 
1908.00, 
1909.00, 
1910.00, 
1911.00, 
1912.00, 
1913.00, 
1914.00, 
1915.00, 
1916.00, 
1917.00, 
1918.00, 
1919.00, 
1920.00, 
1921.00, 
1922.00, 
1923.00, 
1924.00, 
1925.00, 
1926.00, 
1927.00, 
1928.00, 
1929.00, 
1930.00, 
1931.00, 
1932.00, 
1933.00, 
1934.00, 
1935.00, 
1936.00, 
1937.00, 
1938.00, 
1939.00, 
1940.00, 
1941.00, 
1942.00, 
1943.00, 
1944.00, 
1945.00, 
1946.00, 
1947.00, 
1948.00, 
1949.00, 
1950.00, 
1951.00, 
1952.00, 
1953.00, 
1954.00, 
1955.00, 
1956.00, 
1957.00, 
1958.00, 
1959.00, 
1960.00, 
1961.00, 
1962.00, 
1963.00, 
1964.00, 
1965.00, 
1966.00, 
1967.00, 
1968.00, 
1969.00, 
1970.00, 
1971.00, 
1972.00, 
1973.00, 
1974.00, 
1975.00, 
1976.00, 
1977.00, 
1978.00, 
1979.00, 
1980.00, 
1981.00, 
1982.00, 
1983.00, 
1984.00, 
1985.00, 
1986.00, 
1987.00, 
1988.00, 
1989.00, 
1990.00, 
1991.00, 
1992.00, 
1993.00, 
1994.00, 
1995.00, 
1996.00, 
1997.00, 
1998.00, 
1999.00, 
2000.00, 
2001.00, 
2002.00, 
2003.00, 
2004.00, 
2005.00, 
2006.00, 
2007.00, 
2008.00, 
2009.00, 
2010.00, 
2011.00, 
2012.00, 
2013.00, 
2014.00, 
2015.00, 
2016.00, 
2017.00, 
2018.00, 
2019.00, 
2020.00, 
2021.00, 
2022.00, 
2023.00, 
2024.00, 
2025.00, 
2026.00, 
2027.00, 
2028.00, 
2029.00, 
2030.00, 
2031.00, 
2032.00, 
2033.00, 
2034.00, 
2035.00, 
2036.00, 
2037.00, 
2038.00, 
2039.00, 
2040.00, 
2041.00, 
2042.00, 
2043.00, 
2044.00, 
2045.00, 
2046.00, 
2047.00, 
2048.00, 
2049.00, 
2050.00, 
2051.00, 
2052.00, 
2053.00, 
2054.00, 
2055.00, 
2056.00, 
2057.00, 
2058.00, 
2059.00, 
2060.00, 
2061.00, 
2062.00, 
2063.00, 
2064.00, 
2065.00, 
2066.00, 
2067.00, 
2068.00, 
2069.00, 
2070.00, 
2071.00, 
2072.00, 
2073.00, 
2074.00, 
2075.00, 
2076.00, 
2077.00, 
2078.00, 
2079.00, 
2080.00, 
2081.00, 
2082.00, 
2083.00, 
2084.00, 
2085.00, 
2086.00, 
2087.00, 
2088.00, 
2089.00, 
2090.00, 
2091.00, 
2092.00, 
2093.00, 
2094.00, 
2095.00, 
2096.00, 
2097.00, 
2098.00, 
2099.00, 
2100.00, 
2101.00, 
2102.00, 
2103.00, 
2104.00, 
2105.00, 
2106.00, 
2107.00, 
2108.00, 
2109.00, 
2110.00, 
2111.00, 
2112.00, 
2113.00, 
2114.00, 
2115.00, 
2116.00, 
2117.00, 
2118.00, 
2119.00, 
2120.00, 
2121.00, 
2122.00, 
2123.00, 
2124.00, 
2125.00, 
2126.00, 
2127.00, 
2128.00, 
2129.00, 
2130.00, 
2131.00, 
2132.00, 
2133.00, 
2134.00, 
2135.00, 
2136.00, 
2137.00, 
2138.00, 
2139.00, 
2140.00, 
2141.00, 
2142.00, 
2143.00, 
2144.00, 
2145.00, 
2146.00, 
2147.00, 
2148.00, 
2149.00, 
2150.00, 
2151.00, 
2152.00, 
2153.00, 
2154.00, 
2155.00, 
2156.00, 
2157.00, 
2158.00, 
2159.00, 
2160.00, 
2161.00, 
2162.00, 
2163.00, 
2164.00, 
2165.00, 
2166.00, 
2167.00, 
2168.00, 
2169.00, 
2170.00, 
2171.00, 
2172.00, 
2173.00, 
2174.00, 
2175.00, 
2176.00, 
2177.00, 
2178.00, 
2179.00, 
2180.00, 
2181.00, 
2182.00, 
2183.00, 
2184.00, 
2185.00, 
2186.00, 
2187.00, 
2188.00, 
2189.00, 
2190.00, 
2191.00, 
2192.00, 
2193.00, 
2194.00, 
2195.00, 
2196.00, 
2197.00, 
2198.00, 
2199.00, 
2200.00, 
2201.00, 
2202.00, 
2203.00, 
2204.00, 
2205.00, 
2206.00, 
2207.00, 
2208.00, 
2209.00, 
2210.00, 
2211.00, 
2212.00, 
2213.00, 
2214.00, 
2215.00, 
2216.00, 
2217.00, 
2218.00, 
2219.00, 
2220.00, 
2221.00, 
2222.00, 
2223.00, 
2224.00, 
2225.00, 
2226.00, 
2227.00, 
2228.00, 
2229.00, 
2230.00, 
2231.00, 
2232.00, 
2233.00, 
2234.00, 
2235.00, 
2236.00, 
2237.00, 
2238.00, 
2239.00, 
2240.00, 
2241.00, 
2242.00, 
2243.00, 
2244.00, 
2245.00, 
2246.00, 
2247.00, 
2248.00, 
2249.00, 
2250.00, 
2251.00, 
2252.00, 
2253.00, 
2254.00, 
2255.00, 
2256.00, 
2257.00, 
2258.00, 
2259.00, 
2260.00, 
2261.00, 
2262.00, 
2263.00, 
2264.00, 
2265.00, 
2266.00, 
2267.00, 
2268.00, 
2269.00, 
2270.00, 
2271.00, 
2272.00, 
2273.00, 
2274.00, 
2275.00, 
2276.00, 
2277.00, 
2278.00, 
2279.00, 
2280.00, 
2281.00, 
2282.00, 
2283.00, 
2284.00, 
2285.00, 
2286.00, 
2287.00, 
2288.00, 
2289.00, 
2290.00, 
2291.00, 
2292.00, 
2293.00, 
2294.00, 
2295.00, 
2296.00, 
2297.00, 
2298.00, 
2299.00, 
2300.00, 
2301.00, 
2302.00, 
2303.00, 
2304.00, 
2305.00, 
2306.00, 
2307.00, 
2308.00, 
2309.00, 
2310.00, 
2311.00, 
2312.00, 
2313.00, 
2314.00, 
2315.00, 
2316.00, 
2317.00, 
2318.00, 
2319.00, 
2320.00, 
2321.00, 
2322.00, 
2323.00, 
2324.00, 
2325.00, 
2326.00, 
2327.00, 
2328.00, 
2329.00, 
2330.00, 
2331.00, 
2332.00, 
2333.00, 
2334.00, 
2335.00, 
2336.00, 
2337.00, 
2338.00, 
2339.00, 
2340.00, 
2341.00, 
2342.00, 
2343.00, 
2344.00, 
2345.00, 
2346.00, 
2347.00, 
2348.00, 
2349.00, 
2350.00, 
2351.00, 
2352.00, 
2353.00, 
2354.00, 
2355.00, 
2356.00, 
2357.00, 
2358.00, 
2359.00, 
2360.00, 
2361.00, 
2362.00, 
2363.00, 
2364.00, 
2365.00, 
2366.00, 
2367.00, 
2368.00, 
2369.00, 
2370.00, 
2371.00, 
2372.00, 
2373.00, 
2374.00, 
2375.00, 
2376.00, 
2377.00, 
2378.00, 
2379.00, 
2380.00, 
2381.00, 
2382.00, 
2383.00, 
2384.00, 
2385.00, 
2386.00, 
2387.00, 
2388.00, 
2389.00, 
2390.00, 
2391.00, 
2392.00, 
2393.00, 
2394.00, 
2395.00, 
2396.00, 
2397.00, 
2398.00, 
2399.00, 
2400.00, 
2401.00, 
2402.00, 
2403.00, 
2404.00, 
2405.00, 
2406.00, 
2407.00, 
2408.00, 
2409.00, 
2410.00, 
2411.00, 
2412.00, 
2413.00, 
2414.00, 
2415.00, 
2416.00, 
2417.00, 
2418.00, 
2419.00, 
2420.00, 
2421.00, 
2422.00, 
2423.00, 
2424.00, 
2425.00, 
2426.00, 
2427.00, 
2428.00, 
2429.00, 
2430.00, 
2431.00, 
2432.00, 
2433.00, 
2434.00, 
2435.00, 
2436.00, 
2437.00, 
2438.00, 
2439.00, 
2440.00, 
2441.00, 
2442.00, 
2443.00, 
2444.00, 
2445.00, 
2446.00, 
2447.00, 
2448.00, 
2449.00, 
2450.00, 
2451.00, 
2452.00, 
2453.00, 
2454.00, 
2455.00, 
2456.00, 
2457.00, 
2458.00, 
2459.00, 
2460.00, 
2461.00, 
2462.00, 
2463.00, 
2464.00, 
2465.00, 
2466.00, 
2467.00, 
2468.00, 
2469.00, 
2470.00, 
2471.00, 
2472.00, 
2473.00, 
2474.00, 
2475.00, 
2476.00, 
2477.00, 
2478.00, 
2479.00, 
2480.00, 
2481.00, 
2482.00, 
2483.00, 
2484.00, 
2485.00, 
2486.00, 
2487.00, 
2488.00, 
2489.00, 
2490.00, 
2491.00, 
2492.00, 
2493.00, 
2494.00, 
2495.00, 
2496.00, 
2497.00, 
2498.00, 
2499.00, 
2500.00, 
2501.00, 
2502.00, 
2503.00, 
2504.00, 
2505.00, 
2506.00, 
2507.00, 
2508.00, 
2509.00, 
2510.00, 
2511.00, 
2512.00, 
2513.00, 
2514.00, 
2515.00, 
2516.00, 
2517.00, 
2518.00, 
2519.00, 
2520.00, 
2521.00, 
2522.00, 
2523.00, 
2524.00, 
2525.00, 
2526.00, 
2527.00, 
2528.00, 
2529.00, 
2530.00, 
2531.00, 
2532.00, 
2533.00, 
2534.00, 
2535.00, 
2536.00, 
2537.00, 
2538.00, 
2539.00, 
2540.00, 
2541.00, 
2542.00, 
2543.00, 
2544.00, 
2545.00, 
2546.00, 
2547.00, 
2548.00, 
2549.00, 
2550.00, 
2551.00, 
2552.00, 
2553.00, 
2554.00, 
2555.00, 
2556.00, 
2557.00, 
2558.00, 
2559.00, 
2560.00, 
2561.00, 
2562.00, 
2563.00, 
2564.00, 
2565.00, 
2566.00, 
2567.00, 
2568.00, 
2569.00, 
2570.00, 
2571.00, 
2572.00, 
2573.00, 
2574.00, 
2575.00, 
2576.00, 
2577.00, 
2578.00, 
2579.00, 
2580.00, 
2581.00, 
2582.00, 
2583.00, 
2584.00, 
2585.00, 
2586.00, 
2587.00, 
2588.00, 
2589.00, 
2590.00, 
2591.00, 
2592.00, 
2593.00, 
2594.00, 
2595.00, 
2596.00, 
2597.00, 
2598.00, 
2599.00, 
2600.00, 
