"2bP2 - RawData"
"Wavelength nm.","T%"
200.00,0.000
201.00,0.001
202.00,0.001
203.00,0.002
204.00,0.000
205.00,0.000
206.00,0.003
207.00,0.002
208.00,0.000
209.00,0.003
210.00,0.001
211.00,0.001
212.00,-0.001
213.00,-0.000
214.00,0.001
215.00,0.000
216.00,0.001
217.00,-0.002
218.00,0.001
219.00,0.001
220.00,0.001
221.00,-0.002
222.00,0.001
223.00,0.001
224.00,-0.004
225.00,0.001
226.00,0.002
227.00,0.001
228.00,-0.000
229.00,0.000
230.00,0.001
231.00,0.000
232.00,0.000
233.00,-0.001
234.00,0.002
235.00,0.000
236.00,-0.000
237.00,0.002
238.00,-0.001
239.00,-0.001
240.00,-0.000
241.00,0.002
242.00,0.000
243.00,0.000
244.00,-0.000
245.00,0.001
246.00,-0.000
247.00,0.002
248.00,0.000
249.00,0.000
250.00,0.003
251.00,0.000
252.00,0.000
253.00,-0.000
254.00,0.002
255.00,-0.000
256.00,0.000
257.00,0.002
258.00,-0.000
259.00,-0.001
260.00,0.001
261.00,0.000
262.00,-0.000
263.00,-0.001
264.00,-0.000
265.00,-0.001
266.00,-0.001
267.00,-0.001
268.00,0.002
269.00,0.001
270.00,-0.000
271.00,-0.000
272.00,0.000
273.00,0.000
274.00,-0.000
275.00,-0.000
276.00,-0.000
277.00,0.001
278.00,-0.000
279.00,0.002
280.00,0.001
281.00,0.001
282.00,-0.000
283.00,0.000
284.00,0.001
285.00,0.002
286.00,0.000
287.00,-0.000
288.00,0.000
289.00,0.000
290.00,-0.001
291.00,0.001
292.00,0.001
293.00,0.001
294.00,0.001
295.00,0.001
296.00,0.002
297.00,-0.002
298.00,0.001
299.00,0.000
300.00,0.002
301.00,0.004
302.00,0.006
303.00,0.007
304.00,0.011
305.00,0.017
306.00,0.026
307.00,0.038
308.00,0.059
309.00,0.090
310.00,0.121
311.00,0.163
312.00,0.220
313.00,0.294
314.00,0.382
315.00,0.499
316.00,0.634
317.00,0.786
318.00,0.961
319.00,1.174
320.00,1.419
321.00,1.699
322.00,1.986
323.00,2.328
324.00,2.686
325.00,3.059
326.00,3.431
327.00,3.838
328.00,4.283
329.00,4.718
330.00,5.169
331.00,5.623
332.00,6.075
333.00,6.629
334.00,7.023
335.00,7.521
336.00,8.009
337.00,8.494
338.00,8.929
339.00,9.360
340.00,9.775
341.00,10.201
342.00,10.573
343.00,10.981
344.00,11.292
345.00,11.700
346.00,11.986
347.00,12.270
348.00,12.572
349.00,12.842
350.00,13.067
351.00,13.278
352.00,13.468
353.00,13.708
354.00,13.876
355.00,14.063
356.00,14.213
357.00,14.351
358.00,14.475
359.00,14.620
360.00,14.743
361.00,14.832
362.00,14.897
363.00,14.988
364.00,15.023
365.00,15.033
366.00,15.107
367.00,15.145
368.00,15.161
369.00,15.174
370.00,15.183
371.00,15.162
372.00,15.128
373.00,15.131
374.00,15.131
375.00,15.088
376.00,15.070
377.00,15.008
378.00,14.947
379.00,14.858
380.00,14.832
381.00,14.812
382.00,14.778
383.00,14.750
384.00,14.743
385.00,14.747
386.00,14.732
387.00,14.740
388.00,14.755
389.00,14.726
390.00,14.706
391.00,14.714
392.00,14.697
393.00,14.698
394.00,14.655
395.00,14.685
396.00,14.675
397.00,14.644
398.00,14.664
399.00,14.627
400.00,14.607
401.00,14.583
402.00,14.596
403.00,14.626
404.00,14.590
405.00,14.579
406.00,14.574
407.00,14.532
408.00,14.545
409.00,14.461
410.00,14.429
411.00,14.449
412.00,14.414
413.00,14.416
414.00,14.400
415.00,14.430
416.00,14.426
417.00,14.434
418.00,14.489
419.00,14.490
420.00,14.513
421.00,14.502
422.00,14.514
423.00,14.549
424.00,14.557
425.00,14.566
426.00,14.637
427.00,14.674
428.00,14.700
429.00,14.739
430.00,14.786
431.00,14.834
432.00,14.863
433.00,14.912
434.00,14.958
435.00,14.997
436.00,15.074
437.00,15.139
438.00,15.224
439.00,15.272
440.00,15.344
441.00,15.416
442.00,15.473
443.00,15.562
444.00,15.638
445.00,15.732
446.00,15.814
447.00,15.912
448.00,15.998
449.00,16.109
450.00,16.200
451.00,16.267
452.00,16.402
453.00,16.520
454.00,16.578
455.00,16.679
456.00,16.791
457.00,16.916
458.00,17.013
459.00,17.133
460.00,17.258
461.00,17.380
462.00,17.480
463.00,17.613
464.00,17.743
465.00,17.848
466.00,17.997
467.00,18.130
468.00,18.209
469.00,18.358
470.00,18.520
471.00,18.505
472.00,18.738
473.00,18.820
474.00,18.971
475.00,19.098
476.00,19.194
477.00,19.335
478.00,19.451
479.00,19.632
480.00,19.791
481.00,19.905
482.00,20.037
483.00,20.161
484.00,20.345
485.00,20.515
486.00,20.678
487.00,20.844
488.00,20.988
489.00,21.135
490.00,21.320
491.00,21.453
492.00,21.586
493.00,21.815
494.00,21.937
495.00,21.995
496.00,22.150
497.00,22.251
498.00,22.451
499.00,22.600
500.00,22.734
501.00,22.837
502.00,23.004
503.00,23.157
504.00,23.244
505.00,23.413
506.00,23.548
507.00,23.611
508.00,23.747
509.00,23.954
510.00,24.080
511.00,24.166
512.00,24.358
513.00,24.503
514.00,24.637
515.00,24.788
516.00,24.868
517.00,25.003
518.00,25.159
519.00,25.240
520.00,25.332
521.00,25.431
522.00,25.532
523.00,25.598
524.00,25.715
525.00,25.845
526.00,25.959
527.00,26.039
528.00,26.149
529.00,26.313
530.00,26.454
531.00,26.584
532.00,26.684
533.00,26.846
534.00,26.896
535.00,26.989
536.00,27.087
537.00,27.184
538.00,27.254
539.00,27.350
540.00,27.441
541.00,27.529
542.00,27.651
543.00,27.613
544.00,27.738
545.00,27.823
546.00,27.881
547.00,28.016
548.00,28.077
549.00,28.131
550.00,28.217
551.00,28.369
552.00,28.435
553.00,28.452
554.00,28.515
555.00,28.612
556.00,28.739
557.00,28.784
558.00,28.851
559.00,28.896
560.00,28.972
561.00,29.044
562.00,29.114
563.00,29.107
564.00,29.201
565.00,29.246
566.00,29.241
567.00,29.389
568.00,29.431
569.00,29.424
570.00,29.471
571.00,29.606
572.00,29.539
573.00,29.642
574.00,29.678
575.00,29.720
576.00,29.729
577.00,29.803
578.00,29.910
579.00,29.995
580.00,30.026
581.00,30.146
582.00,30.244
583.00,30.293
584.00,30.337
585.00,30.419
586.00,30.487
587.00,30.515
588.00,30.601
589.00,30.565
590.00,30.666
591.00,30.727
592.00,30.726
593.00,30.810
594.00,30.894
595.00,31.001
596.00,31.033
597.00,31.113
598.00,31.153
599.00,31.185
600.00,31.346
601.00,31.347
602.00,31.349
603.00,31.402
604.00,31.378
605.00,31.452
606.00,31.551
607.00,31.612
608.00,31.615
609.00,31.761
610.00,31.921
611.00,31.796
612.00,31.864
613.00,31.977
614.00,31.994
615.00,32.121
616.00,32.211
617.00,32.159
618.00,32.224
619.00,32.365
620.00,32.340
621.00,32.427
622.00,32.553
623.00,32.594
624.00,32.734
625.00,32.832
626.00,32.792
627.00,32.833
628.00,32.971
629.00,33.071
630.00,33.091
631.00,33.217
632.00,33.311
633.00,33.425
634.00,33.567
635.00,33.686
636.00,33.789
637.00,33.871
638.00,33.888
639.00,34.020
640.00,34.176
641.00,34.205
642.00,34.271
643.00,34.391
644.00,34.461
645.00,34.572
646.00,34.748
647.00,34.860
648.00,34.896
649.00,34.994
650.00,35.044
651.00,35.262
652.00,35.308
653.00,35.380
654.00,35.498
655.00,35.728
656.00,36.022
657.00,36.056
658.00,36.123
659.00,36.192
660.00,36.357
661.00,36.334
662.00,36.414
663.00,36.641
664.00,36.880
665.00,37.063
666.00,37.010
667.00,37.124
668.00,37.206
669.00,37.467
670.00,37.712
671.00,37.638
672.00,37.764
673.00,37.930
674.00,38.031
675.00,38.169
676.00,38.448
677.00,38.585
678.00,38.453
679.00,38.727
680.00,38.866
681.00,39.112
682.00,39.179
683.00,39.245
684.00,39.420
685.00,39.519
686.00,39.381
687.00,39.686
688.00,39.902
689.00,39.967
690.00,40.283
691.00,40.481
692.00,40.276
693.00,40.372
694.00,40.668
695.00,40.888
696.00,41.062
697.00,41.039
698.00,41.192
699.00,41.330
700.00,41.399
701.00,41.532
702.00,41.750
703.00,41.949
704.00,42.000
705.00,41.986
706.00,42.112
707.00,42.270
708.00,42.168
709.00,42.626
710.00,43.067
711.00,42.682
712.00,42.757
713.00,43.056
714.00,43.157
715.00,43.159
716.00,43.205
717.00,43.476
718.00,43.713
719.00,43.702
720.00,43.834
721.00,48.101
722.00,48.140
723.00,48.171
724.00,48.286
725.00,48.356
726.00,48.404
727.00,48.500
728.00,48.659
729.00,48.670
730.00,48.757
731.00,48.771
732.00,48.892
733.00,48.965
734.00,49.129
735.00,49.178
736.00,49.148
737.00,49.233
738.00,49.374
739.00,49.413
740.00,49.503
741.00,49.564
742.00,49.600
743.00,49.632
744.00,49.661
745.00,49.742
746.00,49.815
747.00,49.858
748.00,49.893
749.00,49.967
750.00,49.986
751.00,50.077
752.00,50.068
753.00,50.165
754.00,50.195
755.00,50.204
756.00,50.228
757.00,50.340
758.00,50.418
759.00,50.383
760.00,50.466
761.00,50.485
762.00,50.501
763.00,50.586
764.00,50.553
765.00,50.594
766.00,50.730
767.00,50.744
768.00,50.787
769.00,50.787
770.00,50.867
771.00,50.864
772.00,51.029
773.00,50.938
774.00,51.017
775.00,51.048
776.00,51.060
777.00,51.173
778.00,51.219
779.00,51.212
780.00,51.200
781.00,51.206
782.00,51.248
783.00,51.223
784.00,51.246
785.00,51.302
786.00,51.368
787.00,51.318
788.00,51.316
789.00,51.360
790.00,51.287
791.00,51.439
792.00,51.391
793.00,51.391
794.00,51.418
795.00,51.389
796.00,51.461
797.00,51.433
798.00,51.411
799.00,51.481
800.00,51.513
801.00,51.466
802.00,51.530
803.00,51.471
804.00,51.461
805.00,51.479
806.00,51.457
807.00,51.511
808.00,51.492
809.00,51.430
810.00,51.587
811.00,51.435
812.00,51.553
813.00,51.490
814.00,51.518
815.00,51.509
816.00,51.482
817.00,51.561
818.00,51.458
819.00,51.456
820.00,51.556
821.00,51.483
822.00,51.462
823.00,51.482
824.00,51.522
825.00,51.564
826.00,51.437
827.00,51.533
828.00,51.526
829.00,51.402
830.00,51.545
831.00,53.862
832.00,53.815
833.00,53.838
834.00,53.870
835.00,53.825
836.00,53.830
837.00,53.838
838.00,53.832
839.00,53.819
840.00,53.745
841.00,53.768
842.00,53.779
843.00,53.771
844.00,53.807
845.00,53.725
846.00,53.736
847.00,53.727
848.00,53.727
849.00,53.669
850.00,53.697
851.00,53.633
852.00,53.642
853.00,53.613
854.00,53.639
855.00,53.516
856.00,53.563
857.00,53.691
858.00,53.507
859.00,53.521
860.00,53.520
861.00,53.523
862.00,53.447
863.00,53.507
864.00,53.489
865.00,53.501
866.00,53.496
867.00,53.456
868.00,53.462
869.00,53.476
870.00,53.455
871.00,53.437
872.00,53.412
873.00,53.422
874.00,53.379
875.00,53.392
876.00,53.393
877.00,53.393
878.00,53.400
879.00,53.395
880.00,53.397
881.00,53.356
882.00,53.399
883.00,53.355
884.00,53.324
885.00,53.319
886.00,53.339
887.00,53.325
888.00,53.284
889.00,53.269
890.00,53.387
891.00,53.243
892.00,53.239
893.00,53.210
894.00,53.236
895.00,53.193
896.00,53.172
897.00,53.161
898.00,53.118
899.00,53.150
900.00,53.104
901.00,53.129
902.00,53.114
903.00,53.080
904.00,53.092
905.00,53.076
906.00,53.071
907.00,53.038
908.00,53.002
909.00,53.023
910.00,52.976
911.00,52.975
912.00,52.966
913.00,52.940
914.00,52.927
915.00,52.931
916.00,52.890
917.00,52.885
918.00,52.862
919.00,52.832
920.00,52.821
921.00,52.826
922.00,52.797
923.00,52.801
924.00,52.750
925.00,52.772
926.00,52.751
927.00,52.733
928.00,52.637
929.00,52.726
930.00,52.657
931.00,52.683
932.00,52.624
933.00,52.640
934.00,52.617
935.00,52.600
936.00,52.572
937.00,52.572
938.00,52.528
939.00,52.550
940.00,52.510
941.00,52.509
942.00,52.505
943.00,52.461
944.00,52.467
945.00,52.444
946.00,52.419
947.00,52.393
948.00,52.386
949.00,52.361
950.00,52.353
951.00,52.324
952.00,52.306
953.00,52.273
954.00,52.267
955.00,52.221
956.00,52.219
957.00,52.195
958.00,52.204
959.00,52.124
960.00,52.128
961.00,52.130
962.00,52.122
963.00,52.084
964.00,52.082
965.00,52.080
966.00,52.041
967.00,52.053
968.00,52.023
969.00,52.061
970.00,52.007
971.00,52.021
972.00,52.011
973.00,52.028
974.00,52.037
975.00,52.033
976.00,52.027
977.00,52.038
978.00,52.094
979.00,52.035
980.00,52.057
981.00,52.064
982.00,52.031
983.00,52.044
984.00,52.025
985.00,52.031
986.00,52.027
987.00,52.020
988.00,52.004
989.00,51.985
990.00,51.988
991.00,51.955
992.00,51.988
993.00,51.947
994.00,51.928
995.00,51.917
996.00,51.918
997.00,51.922
998.00,51.891
999.00,51.904
1000.00,51.868
1001.00,51.851
1002.00,51.860
1003.00,51.844
1004.00,51.808
1005.00,51.795
1006.00,51.829
1007.00,51.777
1008.00,51.779
1009.00,51.752
1010.00,51.749
1011.00,51.744
1012.00,51.698
1013.00,51.708
1014.00,51.680
1015.00,51.692
1016.00,51.654
1017.00,51.652
1018.00,51.636
1019.00,51.619
1020.00,51.613
1021.00,51.600
1022.00,51.601
1023.00,51.546
1024.00,51.564
1025.00,51.540
1026.00,51.521
1027.00,51.513
1028.00,51.494
1029.00,51.469
1030.00,51.445
1031.00,51.458
1032.00,51.423
1033.00,51.430
1034.00,51.415
1035.00,51.370
1036.00,51.361
1037.00,51.345
1038.00,51.313
1039.00,51.277
1040.00,51.265
1041.00,51.239
1042.00,51.230
1043.00,51.207
1044.00,51.244
1045.00,51.222
1046.00,51.201
1047.00,51.230
1048.00,51.228
1049.00,51.245
1050.00,51.249
1051.00,51.297
1052.00,51.318
1053.00,51.301
1054.00,51.304
1055.00,51.326
1056.00,51.320
1057.00,51.335
1058.00,51.309
1059.00,51.298
1060.00,51.312
1061.00,51.290
1062.00,51.277
1063.00,51.287
1064.00,51.280
1065.00,51.259
1066.00,51.272
1067.00,51.269
1068.00,51.255
1069.00,51.215
1070.00,51.204
1071.00,51.219
1072.00,51.226
1073.00,51.199
1074.00,51.199
1075.00,51.172
1076.00,51.185
1077.00,51.179
1078.00,51.154
1079.00,51.158
1080.00,51.164
1081.00,51.137
1082.00,51.130
1083.00,51.115
1084.00,51.111
1085.00,51.131
1086.00,51.102
1087.00,51.105
1088.00,51.092
1089.00,51.082
1090.00,51.080
1091.00,51.085
1092.00,51.061
1093.00,51.036
1094.00,51.015
1095.00,50.995
1096.00,50.993
1097.00,51.009
1098.00,51.006
1099.00,50.978
1100.00,50.959
1101.00,50.963
1102.00,50.943
1103.00,50.941
1104.00,50.943
1105.00,50.919
1106.00,50.901
1107.00,50.917
1108.00,50.891
1109.00,50.892
1110.00,50.887
1111.00,50.872
1112.00,50.868
1113.00,50.871
1114.00,50.833
1115.00,50.858
1116.00,50.834
1117.00,50.812
1118.00,50.823
1119.00,50.808
1120.00,50.811
1121.00,50.818
1122.00,50.796
1123.00,50.796
1124.00,50.782
1125.00,50.783
1126.00,50.772
1127.00,50.771
1128.00,50.762
1129.00,50.750
1130.00,50.723
1131.00,50.726
1132.00,50.723
1133.00,50.718
1134.00,50.723
1135.00,50.694
1136.00,50.699
1137.00,50.707
1138.00,50.691
1139.00,50.692
1140.00,50.696
1141.00,50.679
1142.00,50.665
1143.00,50.708
1144.00,50.669
1145.00,50.646
1146.00,50.652
1147.00,50.644
1148.00,50.641
1149.00,50.641
1150.00,50.633
1151.00,50.642
1152.00,50.616
1153.00,50.617
1154.00,50.609
1155.00,50.595
1156.00,50.601
1157.00,50.600
1158.00,50.595
1159.00,50.614
1160.00,50.589
1161.00,50.598
1162.00,50.595
1163.00,50.576
1164.00,50.591
1165.00,50.591
1166.00,50.580
1167.00,50.566
1168.00,50.574
1169.00,50.562
1170.00,50.560
1171.00,50.527
1172.00,50.549
1173.00,50.551
1174.00,50.566
1175.00,50.582
1176.00,50.577
1177.00,50.555
1178.00,50.555
1179.00,50.570
1180.00,50.556
1181.00,50.582
1182.00,50.558
1183.00,50.552
1184.00,50.548
1185.00,50.544
1186.00,50.527
1187.00,50.564
1188.00,50.541
1189.00,50.550
1190.00,50.556
1191.00,50.530
1192.00,50.556
1193.00,50.531
1194.00,50.542
1195.00,50.521
1196.00,50.540
1197.00,50.544
1198.00,50.546
1199.00,50.529
1200.00,50.538
1201.00,50.546
1202.00,50.515
1203.00,50.511
1204.00,50.499
1205.00,50.520
1206.00,50.521
1207.00,50.517
1208.00,50.507
1209.00,50.518
1210.00,50.500
1211.00,50.504
1212.00,50.523
1213.00,50.474
1214.00,50.510
1215.00,50.487
1216.00,50.498
1217.00,50.518
1218.00,50.509
1219.00,50.514
1220.00,50.511
1221.00,50.518
1222.00,50.483
1223.00,50.503
1224.00,50.486
1225.00,50.479
1226.00,50.480
1227.00,50.472
1228.00,50.510
1229.00,50.503
1230.00,50.534
1231.00,50.528
1232.00,50.520
1233.00,50.531
1234.00,50.530
1235.00,50.538
1236.00,50.574
1237.00,50.550
1238.00,50.542
1239.00,50.558
1240.00,50.527
1241.00,50.537
1242.00,50.539
1243.00,50.542
1244.00,50.526
1245.00,50.555
1246.00,50.559
1247.00,50.547
1248.00,50.523
1249.00,50.537
1250.00,50.573
1251.00,50.556
1252.00,50.567
1253.00,50.558
1254.00,50.569
1255.00,50.561
1256.00,50.560
1257.00,50.533
1258.00,50.588
1259.00,50.568
1260.00,50.583
1261.00,50.602
1262.00,50.586
1263.00,50.598
1264.00,50.611
1265.00,50.607
1266.00,50.597
1267.00,50.613
1268.00,50.620
1269.00,50.624
1270.00,50.636
1271.00,50.628
1272.00,50.643
1273.00,50.650
1274.00,50.655
1275.00,50.663
1276.00,50.652
1277.00,50.662
1278.00,50.672
1279.00,50.675
1280.00,50.676
1281.00,50.676
1282.00,50.678
1283.00,50.688
1284.00,50.680
1285.00,50.659
1286.00,50.684
1287.00,50.671
1288.00,50.676
1289.00,50.669
1290.00,50.689
1291.00,50.680
1292.00,50.687
1293.00,50.669
1294.00,50.690
1295.00,50.702
1296.00,50.715
1297.00,50.721
1298.00,50.736
1299.00,50.701
1300.00,50.731
1301.00,50.727
1302.00,50.757
1303.00,50.754
1304.00,50.739
1305.00,50.779
1306.00,50.781
1307.00,50.792
1308.00,50.802
1309.00,50.789
1310.00,50.794
1311.00,50.783
1312.00,50.783
1313.00,50.802
1314.00,50.793
1315.00,50.809
1316.00,50.812
1317.00,50.841
1318.00,50.822
1319.00,50.830
1320.00,50.843
1321.00,50.995
1322.00,51.013
1323.00,50.985
1324.00,50.982
1325.00,50.978
1326.00,50.976
1327.00,50.966
1328.00,50.966
1329.00,50.961
1330.00,50.976
1331.00,50.960
1332.00,50.970
1333.00,50.988
1334.00,50.992
1335.00,51.021
1336.00,51.054
1337.00,51.060
1338.00,51.112
1339.00,51.173
1340.00,51.242
1341.00,51.326
1342.00,51.351
1343.00,51.395
1344.00,51.454
1345.00,51.492
1346.00,51.535
1347.00,51.552
1348.00,51.576
1349.00,51.608
1350.00,51.608
1351.00,51.635
1352.00,51.646
1353.00,51.658
1354.00,51.666
1355.00,51.643
1356.00,51.687
1357.00,51.677
1358.00,51.702
1359.00,51.685
1360.00,51.706
1361.00,51.723
1362.00,51.669
1363.00,51.732
1364.00,51.694
1365.00,51.678
1366.00,51.705
1367.00,51.676
1368.00,51.688
1369.00,51.705
1370.00,51.690
1371.00,51.665
1372.00,51.670
1373.00,51.664
1374.00,51.690
1375.00,51.661
1376.00,51.637
1377.00,51.628
1378.00,51.701
1379.00,51.683
1380.00,51.651
1381.00,51.692
1382.00,51.661
1383.00,51.628
1384.00,51.612
1385.00,51.598
1386.00,51.711
1387.00,51.676
1388.00,51.620
1389.00,51.593
1390.00,51.629
1391.00,51.655
1392.00,51.596
1393.00,51.631
1394.00,51.638
1395.00,51.586
1396.00,51.572
1397.00,51.635
1398.00,51.613
1399.00,51.643
1400.00,51.603
1401.00,51.631
1402.00,51.445
1403.00,51.649
1404.00,51.641
1405.00,51.657
1406.00,51.678
1407.00,51.681
1408.00,51.684
1409.00,51.654
1410.00,51.697
1411.00,51.685
1412.00,51.700
1413.00,51.669
1414.00,51.709
1415.00,51.698
1416.00,51.740
1417.00,51.748
1418.00,51.739
1419.00,51.738
1420.00,51.771
1421.00,51.815
1422.00,51.811
1423.00,51.822
1424.00,51.830
1425.00,51.836
1426.00,51.848
1427.00,51.861
1428.00,51.833
1429.00,51.864
1430.00,51.872
1431.00,51.898
1432.00,51.927
1433.00,51.953
1434.00,51.932
1435.00,51.976
1436.00,52.001
1437.00,51.989
1438.00,52.009
1439.00,52.025
1440.00,52.037
1441.00,52.027
1442.00,52.054
1443.00,52.092
1444.00,52.106
1445.00,52.094
1446.00,52.133
1447.00,52.137
1448.00,52.185
1449.00,52.162
1450.00,52.166
1451.00,52.180
1452.00,52.214
1453.00,52.203
1454.00,52.246
1455.00,52.258
1456.00,52.279
1457.00,52.287
1458.00,52.295
1459.00,52.329
1460.00,52.333
1461.00,52.340
1462.00,52.406
1463.00,52.376
1464.00,52.383
1465.00,52.409
1466.00,52.387
1467.00,52.417
1468.00,52.465
1469.00,52.428
1470.00,52.462
1471.00,52.469
1472.00,52.466
1473.00,52.491
1474.00,52.503
1475.00,52.508
1476.00,52.542
1477.00,52.524
1478.00,52.553
1479.00,52.575
1480.00,52.552
1481.00,52.571
1482.00,52.616
1483.00,52.612
1484.00,52.644
1485.00,52.651
1486.00,52.652
1487.00,52.693
1488.00,52.693
1489.00,52.680
1490.00,52.704
1491.00,52.701
1492.00,52.731
1493.00,52.698
1494.00,52.731
1495.00,52.724
1496.00,52.740
1497.00,52.736
1498.00,52.764
1499.00,52.777
1500.00,52.796
1501.00, 
1502.00, 
1503.00, 
1504.00, 
1505.00, 
1506.00, 
1507.00, 
1508.00, 
1509.00, 
1510.00, 
1511.00, 
1512.00, 
1513.00, 
1514.00, 
1515.00, 
1516.00, 
1517.00, 
1518.00, 
1519.00, 
1520.00, 
1521.00, 
1522.00, 
1523.00, 
1524.00, 
1525.00, 
1526.00, 
1527.00, 
1528.00, 
1529.00, 
1530.00, 
1531.00, 
1532.00, 
1533.00, 
1534.00, 
1535.00, 
1536.00, 
1537.00, 
1538.00, 
1539.00, 
1540.00, 
1541.00, 
1542.00, 
1543.00, 
1544.00, 
1545.00, 
1546.00, 
1547.00, 
1548.00, 
1549.00, 
1550.00, 
1551.00, 
1552.00, 
1553.00, 
1554.00, 
1555.00, 
1556.00, 
1557.00, 
1558.00, 
1559.00, 
1560.00, 
1561.00, 
1562.00, 
1563.00, 
1564.00, 
1565.00, 
1566.00, 
1567.00, 
1568.00, 
1569.00, 
1570.00, 
1571.00, 
1572.00, 
1573.00, 
1574.00, 
1575.00, 
1576.00, 
1577.00, 
1578.00, 
1579.00, 
1580.00, 
1581.00, 
1582.00, 
1583.00, 
1584.00, 
1585.00, 
1586.00, 
1587.00, 
1588.00, 
1589.00, 
1590.00, 
1591.00, 
1592.00, 
1593.00, 
1594.00, 
1595.00, 
1596.00, 
1597.00, 
1598.00, 
1599.00, 
1600.00, 
1601.00, 
1602.00, 
1603.00, 
1604.00, 
1605.00, 
1606.00, 
1607.00, 
1608.00, 
1609.00, 
1610.00, 
1611.00, 
1612.00, 
1613.00, 
1614.00, 
1615.00, 
1616.00, 
1617.00, 
1618.00, 
1619.00, 
1620.00, 
1621.00, 
1622.00, 
1623.00, 
1624.00, 
1625.00, 
1626.00, 
1627.00, 
1628.00, 
1629.00, 
1630.00, 
1631.00, 
1632.00, 
1633.00, 
1634.00, 
1635.00, 
1636.00, 
1637.00, 
1638.00, 
1639.00, 
1640.00, 
1641.00, 
1642.00, 
1643.00, 
1644.00, 
1645.00, 
1646.00, 
1647.00, 
1648.00, 
1649.00, 
1650.00, 
1651.00, 
1652.00, 
1653.00, 
1654.00, 
1655.00, 
1656.00, 
1657.00, 
1658.00, 
1659.00, 
1660.00, 
1661.00, 
1662.00, 
1663.00, 
1664.00, 
1665.00, 
1666.00, 
1667.00, 
1668.00, 
1669.00, 
1670.00, 
1671.00, 
1672.00, 
1673.00, 
1674.00, 
1675.00, 
1676.00, 
1677.00, 
1678.00, 
1679.00, 
1680.00, 
1681.00, 
1682.00, 
1683.00, 
1684.00, 
1685.00, 
1686.00, 
1687.00, 
1688.00, 
1689.00, 
1690.00, 
1691.00, 
1692.00, 
1693.00, 
1694.00, 
1695.00, 
1696.00, 
1697.00, 
1698.00, 
1699.00, 
1700.00, 
1701.00, 
1702.00, 
1703.00, 
1704.00, 
1705.00, 
1706.00, 
1707.00, 
1708.00, 
1709.00, 
1710.00, 
1711.00, 
1712.00, 
1713.00, 
1714.00, 
1715.00, 
1716.00, 
1717.00, 
1718.00, 
1719.00, 
1720.00, 
1721.00, 
1722.00, 
1723.00, 
1724.00, 
1725.00, 
1726.00, 
1727.00, 
1728.00, 
1729.00, 
1730.00, 
1731.00, 
1732.00, 
1733.00, 
1734.00, 
1735.00, 
1736.00, 
1737.00, 
1738.00, 
1739.00, 
1740.00, 
1741.00, 
1742.00, 
1743.00, 
1744.00, 
1745.00, 
1746.00, 
1747.00, 
1748.00, 
1749.00, 
1750.00, 
1751.00, 
1752.00, 
1753.00, 
1754.00, 
1755.00, 
1756.00, 
1757.00, 
1758.00, 
1759.00, 
1760.00, 
1761.00, 
1762.00, 
1763.00, 
1764.00, 
1765.00, 
1766.00, 
1767.00, 
1768.00, 
1769.00, 
1770.00, 
1771.00, 
1772.00, 
1773.00, 
1774.00, 
1775.00, 
1776.00, 
1777.00, 
1778.00, 
1779.00, 
1780.00, 
1781.00, 
1782.00, 
1783.00, 
1784.00, 
1785.00, 
1786.00, 
1787.00, 
1788.00, 
1789.00, 
1790.00, 
1791.00, 
1792.00, 
1793.00, 
1794.00, 
1795.00, 
1796.00, 
1797.00, 
1798.00, 
1799.00, 
1800.00, 
1801.00, 
1802.00, 
1803.00, 
1804.00, 
1805.00, 
1806.00, 
1807.00, 
1808.00, 
1809.00, 
1810.00, 
1811.00, 
1812.00, 
1813.00, 
1814.00, 
1815.00, 
1816.00, 
1817.00, 
1818.00, 
1819.00, 
1820.00, 
1821.00, 
1822.00, 
1823.00, 
1824.00, 
1825.00, 
1826.00, 
1827.00, 
1828.00, 
1829.00, 
1830.00, 
1831.00, 
1832.00, 
1833.00, 
1834.00, 
1835.00, 
1836.00, 
1837.00, 
1838.00, 
1839.00, 
1840.00, 
1841.00, 
1842.00, 
1843.00, 
1844.00, 
1845.00, 
1846.00, 
1847.00, 
1848.00, 
1849.00, 
1850.00, 
1851.00, 
1852.00, 
1853.00, 
1854.00, 
1855.00, 
1856.00, 
1857.00, 
1858.00, 
1859.00, 
1860.00, 
1861.00, 
1862.00, 
1863.00, 
1864.00, 
1865.00, 
1866.00, 
1867.00, 
1868.00, 
1869.00, 
1870.00, 
1871.00, 
1872.00, 
1873.00, 
1874.00, 
1875.00, 
1876.00, 
1877.00, 
1878.00, 
1879.00, 
1880.00, 
1881.00, 
1882.00, 
1883.00, 
1884.00, 
1885.00, 
1886.00, 
1887.00, 
1888.00, 
1889.00, 
1890.00, 
1891.00, 
1892.00, 
1893.00, 
1894.00, 
1895.00, 
1896.00, 
1897.00, 
1898.00, 
1899.00, 
1900.00, 
1901.00, 
1902.00, 
1903.00, 
1904.00, 
1905.00, 
1906.00, 
1907.00, 
1908.00, 
1909.00, 
1910.00, 
1911.00, 
1912.00, 
1913.00, 
1914.00, 
1915.00, 
1916.00, 
1917.00, 
1918.00, 
1919.00, 
1920.00, 
1921.00, 
1922.00, 
1923.00, 
1924.00, 
1925.00, 
1926.00, 
1927.00, 
1928.00, 
1929.00, 
1930.00, 
1931.00, 
1932.00, 
1933.00, 
1934.00, 
1935.00, 
1936.00, 
1937.00, 
1938.00, 
1939.00, 
1940.00, 
1941.00, 
1942.00, 
1943.00, 
1944.00, 
1945.00, 
1946.00, 
1947.00, 
1948.00, 
1949.00, 
1950.00, 
1951.00, 
1952.00, 
1953.00, 
1954.00, 
1955.00, 
1956.00, 
1957.00, 
1958.00, 
1959.00, 
1960.00, 
1961.00, 
1962.00, 
1963.00, 
1964.00, 
1965.00, 
1966.00, 
1967.00, 
1968.00, 
1969.00, 
1970.00, 
1971.00, 
1972.00, 
1973.00, 
1974.00, 
1975.00, 
1976.00, 
1977.00, 
1978.00, 
1979.00, 
1980.00, 
1981.00, 
1982.00, 
1983.00, 
1984.00, 
1985.00, 
1986.00, 
1987.00, 
1988.00, 
1989.00, 
1990.00, 
1991.00, 
1992.00, 
1993.00, 
1994.00, 
1995.00, 
1996.00, 
1997.00, 
1998.00, 
1999.00, 
2000.00, 
2001.00, 
2002.00, 
2003.00, 
2004.00, 
2005.00, 
2006.00, 
2007.00, 
2008.00, 
2009.00, 
2010.00, 
2011.00, 
2012.00, 
2013.00, 
2014.00, 
2015.00, 
2016.00, 
2017.00, 
2018.00, 
2019.00, 
2020.00, 
2021.00, 
2022.00, 
2023.00, 
2024.00, 
2025.00, 
2026.00, 
2027.00, 
2028.00, 
2029.00, 
2030.00, 
2031.00, 
2032.00, 
2033.00, 
2034.00, 
2035.00, 
2036.00, 
2037.00, 
2038.00, 
2039.00, 
2040.00, 
2041.00, 
2042.00, 
2043.00, 
2044.00, 
2045.00, 
2046.00, 
2047.00, 
2048.00, 
2049.00, 
2050.00, 
2051.00, 
2052.00, 
2053.00, 
2054.00, 
2055.00, 
2056.00, 
2057.00, 
2058.00, 
2059.00, 
2060.00, 
2061.00, 
2062.00, 
2063.00, 
2064.00, 
2065.00, 
2066.00, 
2067.00, 
2068.00, 
2069.00, 
2070.00, 
2071.00, 
2072.00, 
2073.00, 
2074.00, 
2075.00, 
2076.00, 
2077.00, 
2078.00, 
2079.00, 
2080.00, 
2081.00, 
2082.00, 
2083.00, 
2084.00, 
2085.00, 
2086.00, 
2087.00, 
2088.00, 
2089.00, 
2090.00, 
2091.00, 
2092.00, 
2093.00, 
2094.00, 
2095.00, 
2096.00, 
2097.00, 
2098.00, 
2099.00, 
2100.00, 
2101.00, 
2102.00, 
2103.00, 
2104.00, 
2105.00, 
2106.00, 
2107.00, 
2108.00, 
2109.00, 
2110.00, 
2111.00, 
2112.00, 
2113.00, 
2114.00, 
2115.00, 
2116.00, 
2117.00, 
2118.00, 
2119.00, 
2120.00, 
2121.00, 
2122.00, 
2123.00, 
2124.00, 
2125.00, 
2126.00, 
2127.00, 
2128.00, 
2129.00, 
2130.00, 
2131.00, 
2132.00, 
2133.00, 
2134.00, 
2135.00, 
2136.00, 
2137.00, 
2138.00, 
2139.00, 
2140.00, 
2141.00, 
2142.00, 
2143.00, 
2144.00, 
2145.00, 
2146.00, 
2147.00, 
2148.00, 
2149.00, 
2150.00, 
2151.00, 
2152.00, 
2153.00, 
2154.00, 
2155.00, 
2156.00, 
2157.00, 
2158.00, 
2159.00, 
2160.00, 
2161.00, 
2162.00, 
2163.00, 
2164.00, 
2165.00, 
2166.00, 
2167.00, 
2168.00, 
2169.00, 
2170.00, 
2171.00, 
2172.00, 
2173.00, 
2174.00, 
2175.00, 
2176.00, 
2177.00, 
2178.00, 
2179.00, 
2180.00, 
2181.00, 
2182.00, 
2183.00, 
2184.00, 
2185.00, 
2186.00, 
2187.00, 
2188.00, 
2189.00, 
2190.00, 
2191.00, 
2192.00, 
2193.00, 
2194.00, 
2195.00, 
2196.00, 
2197.00, 
2198.00, 
2199.00, 
2200.00, 
2201.00, 
2202.00, 
2203.00, 
2204.00, 
2205.00, 
2206.00, 
2207.00, 
2208.00, 
2209.00, 
2210.00, 
2211.00, 
2212.00, 
2213.00, 
2214.00, 
2215.00, 
2216.00, 
2217.00, 
2218.00, 
2219.00, 
2220.00, 
2221.00, 
2222.00, 
2223.00, 
2224.00, 
2225.00, 
2226.00, 
2227.00, 
2228.00, 
2229.00, 
2230.00, 
2231.00, 
2232.00, 
2233.00, 
2234.00, 
2235.00, 
2236.00, 
2237.00, 
2238.00, 
2239.00, 
2240.00, 
2241.00, 
2242.00, 
2243.00, 
2244.00, 
2245.00, 
2246.00, 
2247.00, 
2248.00, 
2249.00, 
2250.00, 
2251.00, 
2252.00, 
2253.00, 
2254.00, 
2255.00, 
2256.00, 
2257.00, 
2258.00, 
2259.00, 
2260.00, 
2261.00, 
2262.00, 
2263.00, 
2264.00, 
2265.00, 
2266.00, 
2267.00, 
2268.00, 
2269.00, 
2270.00, 
2271.00, 
2272.00, 
2273.00, 
2274.00, 
2275.00, 
2276.00, 
2277.00, 
2278.00, 
2279.00, 
2280.00, 
2281.00, 
2282.00, 
2283.00, 
2284.00, 
2285.00, 
2286.00, 
2287.00, 
2288.00, 
2289.00, 
2290.00, 
2291.00, 
2292.00, 
2293.00, 
2294.00, 
2295.00, 
2296.00, 
2297.00, 
2298.00, 
2299.00, 
2300.00, 
2301.00, 
2302.00, 
2303.00, 
2304.00, 
2305.00, 
2306.00, 
2307.00, 
2308.00, 
2309.00, 
2310.00, 
2311.00, 
2312.00, 
2313.00, 
2314.00, 
2315.00, 
2316.00, 
2317.00, 
2318.00, 
2319.00, 
2320.00, 
2321.00, 
2322.00, 
2323.00, 
2324.00, 
2325.00, 
2326.00, 
2327.00, 
2328.00, 
2329.00, 
2330.00, 
2331.00, 
2332.00, 
2333.00, 
2334.00, 
2335.00, 
2336.00, 
2337.00, 
2338.00, 
2339.00, 
2340.00, 
2341.00, 
2342.00, 
2343.00, 
2344.00, 
2345.00, 
2346.00, 
2347.00, 
2348.00, 
2349.00, 
2350.00, 
2351.00, 
2352.00, 
2353.00, 
2354.00, 
2355.00, 
2356.00, 
2357.00, 
2358.00, 
2359.00, 
2360.00, 
2361.00, 
2362.00, 
2363.00, 
2364.00, 
2365.00, 
2366.00, 
2367.00, 
2368.00, 
2369.00, 
2370.00, 
2371.00, 
2372.00, 
2373.00, 
2374.00, 
2375.00, 
2376.00, 
2377.00, 
2378.00, 
2379.00, 
2380.00, 
2381.00, 
2382.00, 
2383.00, 
2384.00, 
2385.00, 
2386.00, 
2387.00, 
2388.00, 
2389.00, 
2390.00, 
2391.00, 
2392.00, 
2393.00, 
2394.00, 
2395.00, 
2396.00, 
2397.00, 
2398.00, 
2399.00, 
2400.00, 
2401.00, 
2402.00, 
2403.00, 
2404.00, 
2405.00, 
2406.00, 
2407.00, 
2408.00, 
2409.00, 
2410.00, 
2411.00, 
2412.00, 
2413.00, 
2414.00, 
2415.00, 
2416.00, 
2417.00, 
2418.00, 
2419.00, 
2420.00, 
2421.00, 
2422.00, 
2423.00, 
2424.00, 
2425.00, 
2426.00, 
2427.00, 
2428.00, 
2429.00, 
2430.00, 
2431.00, 
2432.00, 
2433.00, 
2434.00, 
2435.00, 
2436.00, 
2437.00, 
2438.00, 
2439.00, 
2440.00, 
2441.00, 
2442.00, 
2443.00, 
2444.00, 
2445.00, 
2446.00, 
2447.00, 
2448.00, 
2449.00, 
2450.00, 
2451.00, 
2452.00, 
2453.00, 
2454.00, 
2455.00, 
2456.00, 
2457.00, 
2458.00, 
2459.00, 
2460.00, 
2461.00, 
2462.00, 
2463.00, 
2464.00, 
2465.00, 
2466.00, 
2467.00, 
2468.00, 
2469.00, 
2470.00, 
2471.00, 
2472.00, 
2473.00, 
2474.00, 
2475.00, 
2476.00, 
2477.00, 
2478.00, 
2479.00, 
2480.00, 
2481.00, 
2482.00, 
2483.00, 
2484.00, 
2485.00, 
2486.00, 
2487.00, 
2488.00, 
2489.00, 
2490.00, 
2491.00, 
2492.00, 
2493.00, 
2494.00, 
2495.00, 
2496.00, 
2497.00, 
2498.00, 
2499.00, 
2500.00, 
2501.00, 
2502.00, 
2503.00, 
2504.00, 
2505.00, 
2506.00, 
2507.00, 
2508.00, 
2509.00, 
2510.00, 
2511.00, 
2512.00, 
2513.00, 
2514.00, 
2515.00, 
2516.00, 
2517.00, 
2518.00, 
2519.00, 
2520.00, 
2521.00, 
2522.00, 
2523.00, 
2524.00, 
2525.00, 
2526.00, 
2527.00, 
2528.00, 
2529.00, 
2530.00, 
2531.00, 
2532.00, 
2533.00, 
2534.00, 
2535.00, 
2536.00, 
2537.00, 
2538.00, 
2539.00, 
2540.00, 
2541.00, 
2542.00, 
2543.00, 
2544.00, 
2545.00, 
2546.00, 
2547.00, 
2548.00, 
2549.00, 
2550.00, 
2551.00, 
2552.00, 
2553.00, 
2554.00, 
2555.00, 
2556.00, 
2557.00, 
2558.00, 
2559.00, 
2560.00, 
2561.00, 
2562.00, 
2563.00, 
2564.00, 
2565.00, 
2566.00, 
2567.00, 
2568.00, 
2569.00, 
2570.00, 
2571.00, 
2572.00, 
2573.00, 
2574.00, 
2575.00, 
2576.00, 
2577.00, 
2578.00, 
2579.00, 
2580.00, 
2581.00, 
2582.00, 
2583.00, 
2584.00, 
2585.00, 
2586.00, 
2587.00, 
2588.00, 
2589.00, 
2590.00, 
2591.00, 
2592.00, 
2593.00, 
2594.00, 
2595.00, 
2596.00, 
2597.00, 
2598.00, 
2599.00, 
2600.00, 
