"2cP3 - RawData"
"Wavelength nm.","T%"
200.00,0.004
201.00,0.003
202.00,0.002
203.00,-0.001
204.00,-0.000
205.00,-0.001
206.00,-0.000
207.00,0.003
208.00,0.001
209.00,0.002
210.00,0.002
211.00,0.002
212.00,0.001
213.00,-0.002
214.00,0.002
215.00,-0.001
216.00,0.002
217.00,0.002
218.00,0.002
219.00,0.001
220.00,0.002
221.00,0.004
222.00,-0.001
223.00,0.004
224.00,0.001
225.00,-0.001
226.00,-0.000
227.00,0.001
228.00,-0.000
229.00,-0.001
230.00,-0.000
231.00,-0.000
232.00,-0.001
233.00,0.001
234.00,0.002
235.00,-0.000
236.00,0.002
237.00,-0.000
238.00,0.001
239.00,-0.001
240.00,-0.000
241.00,0.001
242.00,0.000
243.00,0.001
244.00,0.000
245.00,-0.000
246.00,-0.000
247.00,-0.000
248.00,0.000
249.00,0.001
250.00,0.002
251.00,-0.000
252.00,-0.001
253.00,0.000
254.00,-0.001
255.00,0.000
256.00,0.000
257.00,-0.001
258.00,-0.001
259.00,-0.000
260.00,-0.001
261.00,-0.001
262.00,0.001
263.00,-0.000
264.00,-0.001
265.00,0.001
266.00,0.001
267.00,0.001
268.00,0.000
269.00,-0.000
270.00,-0.000
271.00,0.000
272.00,-0.000
273.00,-0.001
274.00,0.001
275.00,0.001
276.00,-0.000
277.00,-0.000
278.00,-0.001
279.00,0.001
280.00,-0.000
281.00,0.001
282.00,0.001
283.00,-0.001
284.00,-0.001
285.00,0.000
286.00,0.001
287.00,0.000
288.00,0.002
289.00,-0.000
290.00,-0.001
291.00,-0.001
292.00,0.001
293.00,-0.000
294.00,-0.000
295.00,-0.001
296.00,0.000
297.00,-0.001
298.00,0.003
299.00,0.002
300.00,0.000
301.00,0.003
302.00,0.005
303.00,0.007
304.00,0.010
305.00,0.016
306.00,0.025
307.00,0.035
308.00,0.053
309.00,0.084
310.00,0.113
311.00,0.155
312.00,0.212
313.00,0.285
314.00,0.379
315.00,0.495
316.00,0.630
317.00,0.787
318.00,0.969
319.00,1.192
320.00,1.451
321.00,1.750
322.00,2.050
323.00,2.426
324.00,2.809
325.00,3.195
326.00,3.588
327.00,4.065
328.00,4.555
329.00,5.029
330.00,5.527
331.00,6.038
332.00,6.571
333.00,7.122
334.00,7.655
335.00,8.200
336.00,8.745
337.00,9.214
338.00,9.773
339.00,10.229
340.00,10.772
341.00,11.267
342.00,11.723
343.00,12.178
344.00,12.609
345.00,12.991
346.00,13.347
347.00,13.693
348.00,14.057
349.00,14.399
350.00,14.671
351.00,14.948
352.00,15.205
353.00,15.461
354.00,15.700
355.00,15.881
356.00,16.120
357.00,16.312
358.00,16.449
359.00,16.624
360.00,16.760
361.00,16.867
362.00,16.956
363.00,17.124
364.00,17.187
365.00,17.255
366.00,17.374
367.00,17.411
368.00,17.459
369.00,17.472
370.00,17.509
371.00,17.497
372.00,17.529
373.00,17.523
374.00,17.530
375.00,17.494
376.00,17.473
377.00,17.438
378.00,17.359
379.00,17.316
380.00,17.265
381.00,17.240
382.00,17.233
383.00,17.237
384.00,17.244
385.00,17.195
386.00,17.206
387.00,17.228
388.00,17.287
389.00,17.278
390.00,17.302
391.00,17.323
392.00,17.304
393.00,17.298
394.00,17.301
395.00,17.305
396.00,17.301
397.00,17.321
398.00,17.323
399.00,17.317
400.00,17.331
401.00,17.306
402.00,17.300
403.00,17.296
404.00,17.312
405.00,17.285
406.00,17.296
407.00,17.278
408.00,17.240
409.00,17.194
410.00,17.150
411.00,17.146
412.00,17.158
413.00,17.120
414.00,17.108
415.00,17.157
416.00,17.129
417.00,17.167
418.00,17.254
419.00,17.202
420.00,17.215
421.00,17.227
422.00,17.256
423.00,17.312
424.00,17.295
425.00,17.322
426.00,17.343
427.00,17.351
428.00,17.434
429.00,17.437
430.00,17.503
431.00,17.535
432.00,17.574
433.00,17.624
434.00,17.671
435.00,17.706
436.00,17.755
437.00,17.835
438.00,17.917
439.00,17.956
440.00,18.045
441.00,18.088
442.00,18.138
443.00,18.248
444.00,18.316
445.00,18.385
446.00,18.475
447.00,18.575
448.00,18.653
449.00,18.761
450.00,18.838
451.00,18.931
452.00,19.071
453.00,19.131
454.00,19.227
455.00,19.324
456.00,19.422
457.00,19.550
458.00,19.642
459.00,19.736
460.00,19.830
461.00,19.977
462.00,20.088
463.00,20.218
464.00,20.349
465.00,20.435
466.00,20.544
467.00,20.661
468.00,20.783
469.00,20.931
470.00,21.030
471.00,21.136
472.00,21.254
473.00,21.291
474.00,21.468
475.00,21.577
476.00,21.695
477.00,21.810
478.00,21.939
479.00,22.091
480.00,22.223
481.00,22.349
482.00,22.505
483.00,22.647
484.00,22.795
485.00,22.949
486.00,23.076
487.00,23.209
488.00,23.367
489.00,23.430
490.00,23.709
491.00,23.857
492.00,24.002
493.00,24.201
494.00,24.286
495.00,24.359
496.00,24.464
497.00,24.611
498.00,24.794
499.00,24.897
500.00,25.034
501.00,25.149
502.00,25.295
503.00,25.435
504.00,25.544
505.00,25.706
506.00,25.810
507.00,25.931
508.00,25.985
509.00,26.182
510.00,26.294
511.00,26.407
512.00,26.589
513.00,26.723
514.00,26.871
515.00,26.942
516.00,27.080
517.00,27.234
518.00,27.317
519.00,27.444
520.00,27.541
521.00,27.568
522.00,27.649
523.00,27.727
524.00,27.839
525.00,28.031
526.00,28.162
527.00,28.289
528.00,28.371
529.00,28.494
530.00,28.589
531.00,28.773
532.00,28.868
533.00,29.021
534.00,29.078
535.00,29.202
536.00,29.283
537.00,29.358
538.00,29.470
539.00,29.555
540.00,29.637
541.00,29.748
542.00,29.858
543.00,29.852
544.00,29.953
545.00,30.036
546.00,30.087
547.00,30.235
548.00,30.242
549.00,30.371
550.00,30.482
551.00,30.531
552.00,30.629
553.00,30.701
554.00,30.785
555.00,30.849
556.00,30.980
557.00,31.050
558.00,31.060
559.00,31.133
560.00,31.251
561.00,31.307
562.00,31.376
563.00,31.402
564.00,31.478
565.00,31.524
566.00,31.562
567.00,31.678
568.00,31.628
569.00,31.714
570.00,31.770
571.00,31.775
572.00,31.910
573.00,31.918
574.00,31.875
575.00,32.053
576.00,32.067
577.00,32.170
578.00,32.243
579.00,32.298
580.00,32.376
581.00,32.485
582.00,32.580
583.00,32.585
584.00,32.736
585.00,32.855
586.00,32.809
587.00,32.921
588.00,32.942
589.00,32.853
590.00,33.019
591.00,33.117
592.00,33.086
593.00,33.143
594.00,33.247
595.00,33.344
596.00,33.324
597.00,33.402
598.00,33.504
599.00,33.492
600.00,33.689
601.00,33.759
602.00,33.773
603.00,33.836
604.00,33.793
605.00,33.881
606.00,34.022
607.00,34.043
608.00,34.137
609.00,34.182
610.00,34.264
611.00,34.210
612.00,34.283
613.00,34.302
614.00,34.353
615.00,34.357
616.00,34.512
617.00,34.575
618.00,34.652
619.00,34.731
620.00,34.751
621.00,34.848
622.00,34.937
623.00,35.004
624.00,35.084
625.00,35.086
626.00,35.185
627.00,35.263
628.00,35.318
629.00,35.331
630.00,35.361
631.00,35.560
632.00,35.658
633.00,35.756
634.00,35.818
635.00,36.032
636.00,36.070
637.00,36.127
638.00,36.243
639.00,36.280
640.00,36.440
641.00,36.464
642.00,36.533
643.00,36.582
644.00,36.720
645.00,36.829
646.00,36.931
647.00,37.001
648.00,37.085
649.00,37.213
650.00,37.263
651.00,37.337
652.00,37.454
653.00,37.547
654.00,37.649
655.00,37.762
656.00,37.872
657.00,38.225
658.00,38.303
659.00,38.269
660.00,38.357
661.00,38.300
662.00,38.450
663.00,38.587
664.00,38.646
665.00,38.849
666.00,38.744
667.00,38.820
668.00,38.890
669.00,39.568
670.00,39.407
671.00,39.297
672.00,39.437
673.00,39.603
674.00,39.812
675.00,39.920
676.00,40.058
677.00,40.161
678.00,40.075
679.00,40.267
680.00,40.407
681.00,40.519
682.00,40.571
683.00,40.719
684.00,40.830
685.00,40.914
686.00,40.890
687.00,41.065
688.00,41.244
689.00,41.315
690.00,41.470
691.00,41.724
692.00,41.623
693.00,41.641
694.00,41.806
695.00,42.002
696.00,42.120
697.00,42.145
698.00,42.356
699.00,42.435
700.00,42.500
701.00,42.704
702.00,42.816
703.00,42.944
704.00,43.030
705.00,43.067
706.00,43.202
707.00,43.458
708.00,43.227
709.00,43.528
710.00,43.769
711.00,43.564
712.00,43.642
713.00,43.809
714.00,43.859
715.00,43.993
716.00,44.044
717.00,44.134
718.00,44.327
719.00,44.404
720.00,44.463
721.00,48.667
722.00,48.736
723.00,48.730
724.00,48.776
725.00,48.877
726.00,48.879
727.00,48.932
728.00,49.055
729.00,49.065
730.00,49.114
731.00,49.186
732.00,49.207
733.00,49.257
734.00,49.318
735.00,49.410
736.00,49.358
737.00,49.476
738.00,49.537
739.00,49.567
740.00,49.560
741.00,49.679
742.00,49.676
743.00,49.698
744.00,49.735
745.00,49.826
746.00,49.800
747.00,49.878
748.00,49.874
749.00,49.918
750.00,49.942
751.00,49.839
752.00,49.991
753.00,50.009
754.00,50.005
755.00,49.969
756.00,50.059
757.00,50.152
758.00,50.159
759.00,50.158
760.00,50.173
761.00,50.178
762.00,50.262
763.00,50.264
764.00,50.340
765.00,50.305
766.00,50.398
767.00,50.379
768.00,50.445
769.00,50.420
770.00,50.486
771.00,50.484
772.00,50.576
773.00,50.525
774.00,50.536
775.00,50.613
776.00,50.583
777.00,50.652
778.00,50.694
779.00,50.657
780.00,50.677
781.00,50.681
782.00,50.698
783.00,50.682
784.00,50.689
785.00,50.746
786.00,50.714
787.00,50.750
788.00,50.694
789.00,50.768
790.00,50.720
791.00,50.849
792.00,50.733
793.00,50.774
794.00,50.737
795.00,50.652
796.00,50.800
797.00,50.727
798.00,50.790
799.00,50.711
800.00,50.761
801.00,50.759
802.00,50.748
803.00,50.753
804.00,50.739
805.00,50.716
806.00,50.649
807.00,50.666
808.00,50.711
809.00,50.640
810.00,50.805
811.00,50.635
812.00,50.667
813.00,50.735
814.00,50.663
815.00,50.638
816.00,50.674
817.00,50.729
818.00,50.605
819.00,50.550
820.00,50.660
821.00,50.627
822.00,50.623
823.00,50.520
824.00,50.568
825.00,50.581
826.00,50.592
827.00,50.670
828.00,50.557
829.00,50.522
830.00,50.604
831.00,53.022
832.00,53.012
833.00,52.956
834.00,52.985
835.00,52.965
836.00,52.980
837.00,52.942
838.00,52.962
839.00,52.916
840.00,52.877
841.00,52.885
842.00,52.845
843.00,52.859
844.00,52.882
845.00,52.777
846.00,52.843
847.00,52.833
848.00,52.813
849.00,52.757
850.00,52.734
851.00,52.710
852.00,52.669
853.00,52.633
854.00,52.641
855.00,52.597
856.00,52.586
857.00,52.568
858.00,52.554
859.00,52.520
860.00,52.545
861.00,52.568
862.00,52.500
863.00,52.512
864.00,52.511
865.00,52.509
866.00,52.464
867.00,52.464
868.00,52.442
869.00,52.453
870.00,52.417
871.00,52.416
872.00,52.396
873.00,52.435
874.00,52.357
875.00,52.394
876.00,52.366
877.00,52.368
878.00,52.334
879.00,52.348
880.00,52.314
881.00,52.312
882.00,52.332
883.00,52.301
884.00,52.258
885.00,52.237
886.00,52.246
887.00,52.255
888.00,52.198
889.00,52.206
890.00,52.205
891.00,52.175
892.00,52.137
893.00,52.116
894.00,52.114
895.00,52.082
896.00,52.064
897.00,52.056
898.00,52.035
899.00,52.017
900.00,52.003
901.00,52.018
902.00,51.996
903.00,51.966
904.00,51.920
905.00,52.060
906.00,51.915
907.00,51.906
908.00,51.897
909.00,51.885
910.00,51.834
911.00,51.827
912.00,51.854
913.00,51.801
914.00,51.788
915.00,51.772
916.00,51.734
917.00,51.728
918.00,51.700
919.00,51.691
920.00,51.684
921.00,51.634
922.00,51.630
923.00,51.605
924.00,51.615
925.00,51.600
926.00,51.582
927.00,51.538
928.00,51.520
929.00,51.518
930.00,51.493
931.00,51.499
932.00,51.473
933.00,51.475
934.00,51.470
935.00,51.406
936.00,51.402
937.00,51.402
938.00,51.353
939.00,51.363
940.00,51.323
941.00,51.332
942.00,51.304
943.00,51.264
944.00,51.261
945.00,51.254
946.00,51.210
947.00,51.196
948.00,51.195
949.00,51.161
950.00,51.122
951.00,51.114
952.00,51.083
953.00,51.063
954.00,51.036
955.00,51.013
956.00,51.005
957.00,50.964
958.00,50.986
959.00,50.935
960.00,50.912
961.00,50.874
962.00,50.908
963.00,50.864
964.00,50.853
965.00,50.847
966.00,50.838
967.00,50.850
968.00,50.820
969.00,50.866
970.00,50.802
971.00,50.825
972.00,50.811
973.00,50.821
974.00,50.862
975.00,50.819
976.00,50.835
977.00,50.856
978.00,50.873
979.00,50.819
980.00,50.855
981.00,50.855
982.00,50.816
983.00,50.823
984.00,50.801
985.00,50.811
986.00,50.798
987.00,50.763
988.00,50.776
989.00,50.760
990.00,50.750
991.00,50.732
992.00,50.744
993.00,50.740
994.00,50.707
995.00,50.700
996.00,50.691
997.00,50.687
998.00,50.649
999.00,50.672
1000.00,50.623
1001.00,50.615
1002.00,50.625
1003.00,50.614
1004.00,50.583
1005.00,50.567
1006.00,50.568
1007.00,50.542
1008.00,50.536
1009.00,50.519
1010.00,50.500
1011.00,50.507
1012.00,50.460
1013.00,50.476
1014.00,50.449
1015.00,50.450
1016.00,50.413
1017.00,50.408
1018.00,50.398
1019.00,50.382
1020.00,50.348
1021.00,50.359
1022.00,50.340
1023.00,50.311
1024.00,50.342
1025.00,50.293
1026.00,50.276
1027.00,50.257
1028.00,50.241
1029.00,50.232
1030.00,50.200
1031.00,50.201
1032.00,50.173
1033.00,50.173
1034.00,50.128
1035.00,50.114
1036.00,50.084
1037.00,50.063
1038.00,50.055
1039.00,50.009
1040.00,50.019
1041.00,49.971
1042.00,49.970
1043.00,49.950
1044.00,49.989
1045.00,49.960
1046.00,49.962
1047.00,49.981
1048.00,49.977
1049.00,50.002
1050.00,49.988
1051.00,50.020
1052.00,50.034
1053.00,50.036
1054.00,50.062
1055.00,50.064
1056.00,50.067
1057.00,50.079
1058.00,50.060
1059.00,50.050
1060.00,50.048
1061.00,50.046
1062.00,50.035
1063.00,50.040
1064.00,50.013
1065.00,50.020
1066.00,49.996
1067.00,49.981
1068.00,50.018
1069.00,49.984
1070.00,49.943
1071.00,49.926
1072.00,49.929
1073.00,49.909
1074.00,49.913
1075.00,49.892
1076.00,49.890
1077.00,49.888
1078.00,49.864
1079.00,49.858
1080.00,49.871
1081.00,49.849
1082.00,49.896
1083.00,49.868
1084.00,49.837
1085.00,49.832
1086.00,49.830
1087.00,49.842
1088.00,49.809
1089.00,49.784
1090.00,49.796
1091.00,49.782
1092.00,49.757
1093.00,49.735
1094.00,49.721
1095.00,49.705
1096.00,49.703
1097.00,49.683
1098.00,49.697
1099.00,49.683
1100.00,49.677
1101.00,49.678
1102.00,49.665
1103.00,49.649
1104.00,49.643
1105.00,49.614
1106.00,49.616
1107.00,49.624
1108.00,49.610
1109.00,49.597
1110.00,49.602
1111.00,49.579
1112.00,49.582
1113.00,49.561
1114.00,49.567
1115.00,49.604
1116.00,49.548
1117.00,49.531
1118.00,49.535
1119.00,49.503
1120.00,49.509
1121.00,49.501
1122.00,49.493
1123.00,49.494
1124.00,49.490
1125.00,49.464
1126.00,49.464
1127.00,49.455
1128.00,49.455
1129.00,49.439
1130.00,49.428
1131.00,49.428
1132.00,49.424
1133.00,49.418
1134.00,49.429
1135.00,49.399
1136.00,49.404
1137.00,49.388
1138.00,49.383
1139.00,49.393
1140.00,49.375
1141.00,49.346
1142.00,49.354
1143.00,49.377
1144.00,49.336
1145.00,49.350
1146.00,49.351
1147.00,49.340
1148.00,49.337
1149.00,49.329
1150.00,49.340
1151.00,49.348
1152.00,49.323
1153.00,49.321
1154.00,49.312
1155.00,49.313
1156.00,49.298
1157.00,49.304
1158.00,49.289
1159.00,49.292
1160.00,49.274
1161.00,49.296
1162.00,49.285
1163.00,49.277
1164.00,49.293
1165.00,49.275
1166.00,49.269
1167.00,49.269
1168.00,49.274
1169.00,49.268
1170.00,49.276
1171.00,49.244
1172.00,49.265
1173.00,49.254
1174.00,49.244
1175.00,49.247
1176.00,49.242
1177.00,49.218
1178.00,49.226
1179.00,49.238
1180.00,49.221
1181.00,49.242
1182.00,49.221
1183.00,49.231
1184.00,49.201
1185.00,49.218
1186.00,49.210
1187.00,49.213
1188.00,49.182
1189.00,49.191
1190.00,49.199
1191.00,49.185
1192.00,49.206
1193.00,49.183
1194.00,49.210
1195.00,49.185
1196.00,49.204
1197.00,49.206
1198.00,49.192
1199.00,49.181
1200.00,49.192
1201.00,49.202
1202.00,49.184
1203.00,49.198
1204.00,49.178
1205.00,49.197
1206.00,49.192
1207.00,49.185
1208.00,49.181
1209.00,49.170
1210.00,49.168
1211.00,49.170
1212.00,49.174
1213.00,49.130
1214.00,49.172
1215.00,49.154
1216.00,49.157
1217.00,49.174
1218.00,49.145
1219.00,49.172
1220.00,49.161
1221.00,49.161
1222.00,49.159
1223.00,49.176
1224.00,49.160
1225.00,49.158
1226.00,49.159
1227.00,49.152
1228.00,49.174
1229.00,49.165
1230.00,49.216
1231.00,49.188
1232.00,49.197
1233.00,49.206
1234.00,49.207
1235.00,49.198
1236.00,49.208
1237.00,49.209
1238.00,49.212
1239.00,49.226
1240.00,49.198
1241.00,49.218
1242.00,49.215
1243.00,49.227
1244.00,49.213
1245.00,49.231
1246.00,49.229
1247.00,49.237
1248.00,49.218
1249.00,49.238
1250.00,49.241
1251.00,49.217
1252.00,49.248
1253.00,49.227
1254.00,49.238
1255.00,49.226
1256.00,49.223
1257.00,49.174
1258.00,49.241
1259.00,49.232
1260.00,49.262
1261.00,49.265
1262.00,49.257
1263.00,49.262
1264.00,49.267
1265.00,49.262
1266.00,49.266
1267.00,49.269
1268.00,49.278
1269.00,49.276
1270.00,49.299
1271.00,49.309
1272.00,49.334
1273.00,49.322
1274.00,49.326
1275.00,49.322
1276.00,49.323
1277.00,49.333
1278.00,49.325
1279.00,49.323
1280.00,49.333
1281.00,49.327
1282.00,49.348
1283.00,49.336
1284.00,49.338
1285.00,49.328
1286.00,49.341
1287.00,49.319
1288.00,49.332
1289.00,49.322
1290.00,49.338
1291.00,49.347
1292.00,49.368
1293.00,49.355
1294.00,49.382
1295.00,49.376
1296.00,49.386
1297.00,49.388
1298.00,49.399
1299.00,49.388
1300.00,49.394
1301.00,49.396
1302.00,49.407
1303.00,49.408
1304.00,49.404
1305.00,49.425
1306.00,49.410
1307.00,49.424
1308.00,49.417
1309.00,49.422
1310.00,49.446
1311.00,49.457
1312.00,49.421
1313.00,49.428
1314.00,49.438
1315.00,49.467
1316.00,49.461
1317.00,49.469
1318.00,49.470
1319.00,49.485
1320.00,49.493
1321.00,49.656
1322.00,49.682
1323.00,49.652
1324.00,49.665
1325.00,49.648
1326.00,49.664
1327.00,49.642
1328.00,49.639
1329.00,49.645
1330.00,49.645
1331.00,49.631
1332.00,49.652
1333.00,49.654
1334.00,49.677
1335.00,49.693
1336.00,49.725
1337.00,49.749
1338.00,49.811
1339.00,49.850
1340.00,49.910
1341.00,49.970
1342.00,50.033
1343.00,50.090
1344.00,50.127
1345.00,50.177
1346.00,50.229
1347.00,50.247
1348.00,50.247
1349.00,50.286
1350.00,50.290
1351.00,50.310
1352.00,50.313
1353.00,50.302
1354.00,50.305
1355.00,50.304
1356.00,50.346
1357.00,50.304
1358.00,50.357
1359.00,50.333
1360.00,50.411
1361.00,50.418
1362.00,50.301
1363.00,50.405
1364.00,50.366
1365.00,50.365
1366.00,50.432
1367.00,50.358
1368.00,50.333
1369.00,50.344
1370.00,50.327
1371.00,50.312
1372.00,50.314
1373.00,50.313
1374.00,50.361
1375.00,50.320
1376.00,50.307
1377.00,50.303
1378.00,50.389
1379.00,50.316
1380.00,50.319
1381.00,50.313
1382.00,50.281
1383.00,50.293
1384.00,50.282
1385.00,50.249
1386.00,50.292
1387.00,50.241
1388.00,50.334
1389.00,50.258
1390.00,50.289
1391.00,50.277
1392.00,50.259
1393.00,50.349
1394.00,50.288
1395.00,50.251
1396.00,50.248
1397.00,50.271
1398.00,50.340
1399.00,50.328
1400.00,50.291
1401.00,50.290
1402.00,50.468
1403.00,50.394
1404.00,50.308
1405.00,50.343
1406.00,50.344
1407.00,50.343
1408.00,50.337
1409.00,50.326
1410.00,50.373
1411.00,50.341
1412.00,50.411
1413.00,50.367
1414.00,50.347
1415.00,50.392
1416.00,50.418
1417.00,50.463
1418.00,50.449
1419.00,50.395
1420.00,50.441
1421.00,50.479
1422.00,50.469
1423.00,50.480
1424.00,50.491
1425.00,50.491
1426.00,50.501
1427.00,50.529
1428.00,50.524
1429.00,50.535
1430.00,50.542
1431.00,50.570
1432.00,50.587
1433.00,50.611
1434.00,50.607
1435.00,50.646
1436.00,50.663
1437.00,50.654
1438.00,50.665
1439.00,50.689
1440.00,50.692
1441.00,50.703
1442.00,50.720
1443.00,50.744
1444.00,50.752
1445.00,50.768
1446.00,50.788
1447.00,50.797
1448.00,50.848
1449.00,50.832
1450.00,50.840
1451.00,50.857
1452.00,50.868
1453.00,50.888
1454.00,50.907
1455.00,50.914
1456.00,50.948
1457.00,50.940
1458.00,50.938
1459.00,50.982
1460.00,50.974
1461.00,51.005
1462.00,51.020
1463.00,51.037
1464.00,51.059
1465.00,51.063
1466.00,51.052
1467.00,51.093
1468.00,51.124
1469.00,51.109
1470.00,51.114
1471.00,51.134
1472.00,51.148
1473.00,51.168
1474.00,51.164
1475.00,51.207
1476.00,51.240
1477.00,51.214
1478.00,51.244
1479.00,51.240
1480.00,51.219
1481.00,51.238
1482.00,51.272
1483.00,51.278
1484.00,51.293
1485.00,51.308
1486.00,51.328
1487.00,51.354
1488.00,51.346
1489.00,51.353
1490.00,51.373
1491.00,51.375
1492.00,51.392
1493.00,51.393
1494.00,51.419
1495.00,51.407
1496.00,51.402
1497.00,51.432
1498.00,51.429
1499.00,51.441
1500.00,51.471
1501.00, 
1502.00, 
1503.00, 
1504.00, 
1505.00, 
1506.00, 
1507.00, 
1508.00, 
1509.00, 
1510.00, 
1511.00, 
1512.00, 
1513.00, 
1514.00, 
1515.00, 
1516.00, 
1517.00, 
1518.00, 
1519.00, 
1520.00, 
1521.00, 
1522.00, 
1523.00, 
1524.00, 
1525.00, 
1526.00, 
1527.00, 
1528.00, 
1529.00, 
1530.00, 
1531.00, 
1532.00, 
1533.00, 
1534.00, 
1535.00, 
1536.00, 
1537.00, 
1538.00, 
1539.00, 
1540.00, 
1541.00, 
1542.00, 
1543.00, 
1544.00, 
1545.00, 
1546.00, 
1547.00, 
1548.00, 
1549.00, 
1550.00, 
1551.00, 
1552.00, 
1553.00, 
1554.00, 
1555.00, 
1556.00, 
1557.00, 
1558.00, 
1559.00, 
1560.00, 
1561.00, 
1562.00, 
1563.00, 
1564.00, 
1565.00, 
1566.00, 
1567.00, 
1568.00, 
1569.00, 
1570.00, 
1571.00, 
1572.00, 
1573.00, 
1574.00, 
1575.00, 
1576.00, 
1577.00, 
1578.00, 
1579.00, 
1580.00, 
1581.00, 
1582.00, 
1583.00, 
1584.00, 
1585.00, 
1586.00, 
1587.00, 
1588.00, 
1589.00, 
1590.00, 
1591.00, 
1592.00, 
1593.00, 
1594.00, 
1595.00, 
1596.00, 
1597.00, 
1598.00, 
1599.00, 
1600.00, 
1601.00, 
1602.00, 
1603.00, 
1604.00, 
1605.00, 
1606.00, 
1607.00, 
1608.00, 
1609.00, 
1610.00, 
1611.00, 
1612.00, 
1613.00, 
1614.00, 
1615.00, 
1616.00, 
1617.00, 
1618.00, 
1619.00, 
1620.00, 
1621.00, 
1622.00, 
1623.00, 
1624.00, 
1625.00, 
1626.00, 
1627.00, 
1628.00, 
1629.00, 
1630.00, 
1631.00, 
1632.00, 
1633.00, 
1634.00, 
1635.00, 
1636.00, 
1637.00, 
1638.00, 
1639.00, 
1640.00, 
1641.00, 
1642.00, 
1643.00, 
1644.00, 
1645.00, 
1646.00, 
1647.00, 
1648.00, 
1649.00, 
1650.00, 
1651.00, 
1652.00, 
1653.00, 
1654.00, 
1655.00, 
1656.00, 
1657.00, 
1658.00, 
1659.00, 
1660.00, 
1661.00, 
1662.00, 
1663.00, 
1664.00, 
1665.00, 
1666.00, 
1667.00, 
1668.00, 
1669.00, 
1670.00, 
1671.00, 
1672.00, 
1673.00, 
1674.00, 
1675.00, 
1676.00, 
1677.00, 
1678.00, 
1679.00, 
1680.00, 
1681.00, 
1682.00, 
1683.00, 
1684.00, 
1685.00, 
1686.00, 
1687.00, 
1688.00, 
1689.00, 
1690.00, 
1691.00, 
1692.00, 
1693.00, 
1694.00, 
1695.00, 
1696.00, 
1697.00, 
1698.00, 
1699.00, 
1700.00, 
1701.00, 
1702.00, 
1703.00, 
1704.00, 
1705.00, 
1706.00, 
1707.00, 
1708.00, 
1709.00, 
1710.00, 
1711.00, 
1712.00, 
1713.00, 
1714.00, 
1715.00, 
1716.00, 
1717.00, 
1718.00, 
1719.00, 
1720.00, 
1721.00, 
1722.00, 
1723.00, 
1724.00, 
1725.00, 
1726.00, 
1727.00, 
1728.00, 
1729.00, 
1730.00, 
1731.00, 
1732.00, 
1733.00, 
1734.00, 
1735.00, 
1736.00, 
1737.00, 
1738.00, 
1739.00, 
1740.00, 
1741.00, 
1742.00, 
1743.00, 
1744.00, 
1745.00, 
1746.00, 
1747.00, 
1748.00, 
1749.00, 
1750.00, 
1751.00, 
1752.00, 
1753.00, 
1754.00, 
1755.00, 
1756.00, 
1757.00, 
1758.00, 
1759.00, 
1760.00, 
1761.00, 
1762.00, 
1763.00, 
1764.00, 
1765.00, 
1766.00, 
1767.00, 
1768.00, 
1769.00, 
1770.00, 
1771.00, 
1772.00, 
1773.00, 
1774.00, 
1775.00, 
1776.00, 
1777.00, 
1778.00, 
1779.00, 
1780.00, 
1781.00, 
1782.00, 
1783.00, 
1784.00, 
1785.00, 
1786.00, 
1787.00, 
1788.00, 
1789.00, 
1790.00, 
1791.00, 
1792.00, 
1793.00, 
1794.00, 
1795.00, 
1796.00, 
1797.00, 
1798.00, 
1799.00, 
1800.00, 
1801.00, 
1802.00, 
1803.00, 
1804.00, 
1805.00, 
1806.00, 
1807.00, 
1808.00, 
1809.00, 
1810.00, 
1811.00, 
1812.00, 
1813.00, 
1814.00, 
1815.00, 
1816.00, 
1817.00, 
1818.00, 
1819.00, 
1820.00, 
1821.00, 
1822.00, 
1823.00, 
1824.00, 
1825.00, 
1826.00, 
1827.00, 
1828.00, 
1829.00, 
1830.00, 
1831.00, 
1832.00, 
1833.00, 
1834.00, 
1835.00, 
1836.00, 
1837.00, 
1838.00, 
1839.00, 
1840.00, 
1841.00, 
1842.00, 
1843.00, 
1844.00, 
1845.00, 
1846.00, 
1847.00, 
1848.00, 
1849.00, 
1850.00, 
1851.00, 
1852.00, 
1853.00, 
1854.00, 
1855.00, 
1856.00, 
1857.00, 
1858.00, 
1859.00, 
1860.00, 
1861.00, 
1862.00, 
1863.00, 
1864.00, 
1865.00, 
1866.00, 
1867.00, 
1868.00, 
1869.00, 
1870.00, 
1871.00, 
1872.00, 
1873.00, 
1874.00, 
1875.00, 
1876.00, 
1877.00, 
1878.00, 
1879.00, 
1880.00, 
1881.00, 
1882.00, 
1883.00, 
1884.00, 
1885.00, 
1886.00, 
1887.00, 
1888.00, 
1889.00, 
1890.00, 
1891.00, 
1892.00, 
1893.00, 
1894.00, 
1895.00, 
1896.00, 
1897.00, 
1898.00, 
1899.00, 
1900.00, 
1901.00, 
1902.00, 
1903.00, 
1904.00, 
1905.00, 
1906.00, 
1907.00, 
1908.00, 
1909.00, 
1910.00, 
1911.00, 
1912.00, 
1913.00, 
1914.00, 
1915.00, 
1916.00, 
1917.00, 
1918.00, 
1919.00, 
1920.00, 
1921.00, 
1922.00, 
1923.00, 
1924.00, 
1925.00, 
1926.00, 
1927.00, 
1928.00, 
1929.00, 
1930.00, 
1931.00, 
1932.00, 
1933.00, 
1934.00, 
1935.00, 
1936.00, 
1937.00, 
1938.00, 
1939.00, 
1940.00, 
1941.00, 
1942.00, 
1943.00, 
1944.00, 
1945.00, 
1946.00, 
1947.00, 
1948.00, 
1949.00, 
1950.00, 
1951.00, 
1952.00, 
1953.00, 
1954.00, 
1955.00, 
1956.00, 
1957.00, 
1958.00, 
1959.00, 
1960.00, 
1961.00, 
1962.00, 
1963.00, 
1964.00, 
1965.00, 
1966.00, 
1967.00, 
1968.00, 
1969.00, 
1970.00, 
1971.00, 
1972.00, 
1973.00, 
1974.00, 
1975.00, 
1976.00, 
1977.00, 
1978.00, 
1979.00, 
1980.00, 
1981.00, 
1982.00, 
1983.00, 
1984.00, 
1985.00, 
1986.00, 
1987.00, 
1988.00, 
1989.00, 
1990.00, 
1991.00, 
1992.00, 
1993.00, 
1994.00, 
1995.00, 
1996.00, 
1997.00, 
1998.00, 
1999.00, 
2000.00, 
2001.00, 
2002.00, 
2003.00, 
2004.00, 
2005.00, 
2006.00, 
2007.00, 
2008.00, 
2009.00, 
2010.00, 
2011.00, 
2012.00, 
2013.00, 
2014.00, 
2015.00, 
2016.00, 
2017.00, 
2018.00, 
2019.00, 
2020.00, 
2021.00, 
2022.00, 
2023.00, 
2024.00, 
2025.00, 
2026.00, 
2027.00, 
2028.00, 
2029.00, 
2030.00, 
2031.00, 
2032.00, 
2033.00, 
2034.00, 
2035.00, 
2036.00, 
2037.00, 
2038.00, 
2039.00, 
2040.00, 
2041.00, 
2042.00, 
2043.00, 
2044.00, 
2045.00, 
2046.00, 
2047.00, 
2048.00, 
2049.00, 
2050.00, 
2051.00, 
2052.00, 
2053.00, 
2054.00, 
2055.00, 
2056.00, 
2057.00, 
2058.00, 
2059.00, 
2060.00, 
2061.00, 
2062.00, 
2063.00, 
2064.00, 
2065.00, 
2066.00, 
2067.00, 
2068.00, 
2069.00, 
2070.00, 
2071.00, 
2072.00, 
2073.00, 
2074.00, 
2075.00, 
2076.00, 
2077.00, 
2078.00, 
2079.00, 
2080.00, 
2081.00, 
2082.00, 
2083.00, 
2084.00, 
2085.00, 
2086.00, 
2087.00, 
2088.00, 
2089.00, 
2090.00, 
2091.00, 
2092.00, 
2093.00, 
2094.00, 
2095.00, 
2096.00, 
2097.00, 
2098.00, 
2099.00, 
2100.00, 
2101.00, 
2102.00, 
2103.00, 
2104.00, 
2105.00, 
2106.00, 
2107.00, 
2108.00, 
2109.00, 
2110.00, 
2111.00, 
2112.00, 
2113.00, 
2114.00, 
2115.00, 
2116.00, 
2117.00, 
2118.00, 
2119.00, 
2120.00, 
2121.00, 
2122.00, 
2123.00, 
2124.00, 
2125.00, 
2126.00, 
2127.00, 
2128.00, 
2129.00, 
2130.00, 
2131.00, 
2132.00, 
2133.00, 
2134.00, 
2135.00, 
2136.00, 
2137.00, 
2138.00, 
2139.00, 
2140.00, 
2141.00, 
2142.00, 
2143.00, 
2144.00, 
2145.00, 
2146.00, 
2147.00, 
2148.00, 
2149.00, 
2150.00, 
2151.00, 
2152.00, 
2153.00, 
2154.00, 
2155.00, 
2156.00, 
2157.00, 
2158.00, 
2159.00, 
2160.00, 
2161.00, 
2162.00, 
2163.00, 
2164.00, 
2165.00, 
2166.00, 
2167.00, 
2168.00, 
2169.00, 
2170.00, 
2171.00, 
2172.00, 
2173.00, 
2174.00, 
2175.00, 
2176.00, 
2177.00, 
2178.00, 
2179.00, 
2180.00, 
2181.00, 
2182.00, 
2183.00, 
2184.00, 
2185.00, 
2186.00, 
2187.00, 
2188.00, 
2189.00, 
2190.00, 
2191.00, 
2192.00, 
2193.00, 
2194.00, 
2195.00, 
2196.00, 
2197.00, 
2198.00, 
2199.00, 
2200.00, 
2201.00, 
2202.00, 
2203.00, 
2204.00, 
2205.00, 
2206.00, 
2207.00, 
2208.00, 
2209.00, 
2210.00, 
2211.00, 
2212.00, 
2213.00, 
2214.00, 
2215.00, 
2216.00, 
2217.00, 
2218.00, 
2219.00, 
2220.00, 
2221.00, 
2222.00, 
2223.00, 
2224.00, 
2225.00, 
2226.00, 
2227.00, 
2228.00, 
2229.00, 
2230.00, 
2231.00, 
2232.00, 
2233.00, 
2234.00, 
2235.00, 
2236.00, 
2237.00, 
2238.00, 
2239.00, 
2240.00, 
2241.00, 
2242.00, 
2243.00, 
2244.00, 
2245.00, 
2246.00, 
2247.00, 
2248.00, 
2249.00, 
2250.00, 
2251.00, 
2252.00, 
2253.00, 
2254.00, 
2255.00, 
2256.00, 
2257.00, 
2258.00, 
2259.00, 
2260.00, 
2261.00, 
2262.00, 
2263.00, 
2264.00, 
2265.00, 
2266.00, 
2267.00, 
2268.00, 
2269.00, 
2270.00, 
2271.00, 
2272.00, 
2273.00, 
2274.00, 
2275.00, 
2276.00, 
2277.00, 
2278.00, 
2279.00, 
2280.00, 
2281.00, 
2282.00, 
2283.00, 
2284.00, 
2285.00, 
2286.00, 
2287.00, 
2288.00, 
2289.00, 
2290.00, 
2291.00, 
2292.00, 
2293.00, 
2294.00, 
2295.00, 
2296.00, 
2297.00, 
2298.00, 
2299.00, 
2300.00, 
2301.00, 
2302.00, 
2303.00, 
2304.00, 
2305.00, 
2306.00, 
2307.00, 
2308.00, 
2309.00, 
2310.00, 
2311.00, 
2312.00, 
2313.00, 
2314.00, 
2315.00, 
2316.00, 
2317.00, 
2318.00, 
2319.00, 
2320.00, 
2321.00, 
2322.00, 
2323.00, 
2324.00, 
2325.00, 
2326.00, 
2327.00, 
2328.00, 
2329.00, 
2330.00, 
2331.00, 
2332.00, 
2333.00, 
2334.00, 
2335.00, 
2336.00, 
2337.00, 
2338.00, 
2339.00, 
2340.00, 
2341.00, 
2342.00, 
2343.00, 
2344.00, 
2345.00, 
2346.00, 
2347.00, 
2348.00, 
2349.00, 
2350.00, 
2351.00, 
2352.00, 
2353.00, 
2354.00, 
2355.00, 
2356.00, 
2357.00, 
2358.00, 
2359.00, 
2360.00, 
2361.00, 
2362.00, 
2363.00, 
2364.00, 
2365.00, 
2366.00, 
2367.00, 
2368.00, 
2369.00, 
2370.00, 
2371.00, 
2372.00, 
2373.00, 
2374.00, 
2375.00, 
2376.00, 
2377.00, 
2378.00, 
2379.00, 
2380.00, 
2381.00, 
2382.00, 
2383.00, 
2384.00, 
2385.00, 
2386.00, 
2387.00, 
2388.00, 
2389.00, 
2390.00, 
2391.00, 
2392.00, 
2393.00, 
2394.00, 
2395.00, 
2396.00, 
2397.00, 
2398.00, 
2399.00, 
2400.00, 
2401.00, 
2402.00, 
2403.00, 
2404.00, 
2405.00, 
2406.00, 
2407.00, 
2408.00, 
2409.00, 
2410.00, 
2411.00, 
2412.00, 
2413.00, 
2414.00, 
2415.00, 
2416.00, 
2417.00, 
2418.00, 
2419.00, 
2420.00, 
2421.00, 
2422.00, 
2423.00, 
2424.00, 
2425.00, 
2426.00, 
2427.00, 
2428.00, 
2429.00, 
2430.00, 
2431.00, 
2432.00, 
2433.00, 
2434.00, 
2435.00, 
2436.00, 
2437.00, 
2438.00, 
2439.00, 
2440.00, 
2441.00, 
2442.00, 
2443.00, 
2444.00, 
2445.00, 
2446.00, 
2447.00, 
2448.00, 
2449.00, 
2450.00, 
2451.00, 
2452.00, 
2453.00, 
2454.00, 
2455.00, 
2456.00, 
2457.00, 
2458.00, 
2459.00, 
2460.00, 
2461.00, 
2462.00, 
2463.00, 
2464.00, 
2465.00, 
2466.00, 
2467.00, 
2468.00, 
2469.00, 
2470.00, 
2471.00, 
2472.00, 
2473.00, 
2474.00, 
2475.00, 
2476.00, 
2477.00, 
2478.00, 
2479.00, 
2480.00, 
2481.00, 
2482.00, 
2483.00, 
2484.00, 
2485.00, 
2486.00, 
2487.00, 
2488.00, 
2489.00, 
2490.00, 
2491.00, 
2492.00, 
2493.00, 
2494.00, 
2495.00, 
2496.00, 
2497.00, 
2498.00, 
2499.00, 
2500.00, 
2501.00, 
2502.00, 
2503.00, 
2504.00, 
2505.00, 
2506.00, 
2507.00, 
2508.00, 
2509.00, 
2510.00, 
2511.00, 
2512.00, 
2513.00, 
2514.00, 
2515.00, 
2516.00, 
2517.00, 
2518.00, 
2519.00, 
2520.00, 
2521.00, 
2522.00, 
2523.00, 
2524.00, 
2525.00, 
2526.00, 
2527.00, 
2528.00, 
2529.00, 
2530.00, 
2531.00, 
2532.00, 
2533.00, 
2534.00, 
2535.00, 
2536.00, 
2537.00, 
2538.00, 
2539.00, 
2540.00, 
2541.00, 
2542.00, 
2543.00, 
2544.00, 
2545.00, 
2546.00, 
2547.00, 
2548.00, 
2549.00, 
2550.00, 
2551.00, 
2552.00, 
2553.00, 
2554.00, 
2555.00, 
2556.00, 
2557.00, 
2558.00, 
2559.00, 
2560.00, 
2561.00, 
2562.00, 
2563.00, 
2564.00, 
2565.00, 
2566.00, 
2567.00, 
2568.00, 
2569.00, 
2570.00, 
2571.00, 
2572.00, 
2573.00, 
2574.00, 
2575.00, 
2576.00, 
2577.00, 
2578.00, 
2579.00, 
2580.00, 
2581.00, 
2582.00, 
2583.00, 
2584.00, 
2585.00, 
2586.00, 
2587.00, 
2588.00, 
2589.00, 
2590.00, 
2591.00, 
2592.00, 
2593.00, 
2594.00, 
2595.00, 
2596.00, 
2597.00, 
2598.00, 
2599.00, 
2600.00, 
