"2cP4 - RawData"
"Wavelength nm.","T%"
200.00,-0.000
201.00,-0.001
202.00,0.003
203.00,-0.000
204.00,0.002
205.00,0.002
206.00,0.002
207.00,0.001
208.00,0.001
209.00,-0.001
210.00,-0.000
211.00,-0.001
212.00,0.000
213.00,0.002
214.00,0.002
215.00,0.002
216.00,0.004
217.00,0.003
218.00,-0.002
219.00,-0.001
220.00,0.001
221.00,0.002
222.00,-0.001
223.00,0.003
224.00,-0.003
225.00,0.000
226.00,0.002
227.00,0.001
228.00,0.001
229.00,0.001
230.00,0.001
231.00,0.000
232.00,0.001
233.00,0.001
234.00,0.001
235.00,-0.000
236.00,-0.001
237.00,-0.000
238.00,-0.001
239.00,0.000
240.00,-0.001
241.00,0.002
242.00,0.001
243.00,0.002
244.00,-0.001
245.00,0.001
246.00,0.002
247.00,0.003
248.00,0.001
249.00,0.000
250.00,0.000
251.00,-0.000
252.00,-0.003
253.00,-0.000
254.00,-0.001
255.00,-0.000
256.00,-0.001
257.00,0.001
258.00,-0.000
259.00,0.000
260.00,0.001
261.00,-0.000
262.00,0.001
263.00,-0.001
264.00,0.000
265.00,-0.000
266.00,0.000
267.00,0.002
268.00,-0.000
269.00,0.001
270.00,0.001
271.00,-0.001
272.00,0.000
273.00,-0.000
274.00,0.001
275.00,0.001
276.00,0.002
277.00,-0.001
278.00,-0.002
279.00,0.000
280.00,-0.000
281.00,0.002
282.00,-0.000
283.00,0.001
284.00,-0.000
285.00,0.000
286.00,0.002
287.00,0.000
288.00,0.001
289.00,0.002
290.00,0.001
291.00,-0.001
292.00,-0.000
293.00,0.000
294.00,-0.000
295.00,0.001
296.00,0.001
297.00,0.001
298.00,0.003
299.00,0.002
300.00,-0.000
301.00,0.001
302.00,0.004
303.00,0.007
304.00,0.007
305.00,0.013
306.00,0.020
307.00,0.030
308.00,0.047
309.00,0.071
310.00,0.098
311.00,0.130
312.00,0.176
313.00,0.239
314.00,0.314
315.00,0.411
316.00,0.530
317.00,0.658
318.00,0.816
319.00,0.997
320.00,1.216
321.00,1.448
322.00,1.717
323.00,2.013
324.00,2.317
325.00,2.642
326.00,3.006
327.00,3.361
328.00,3.767
329.00,4.168
330.00,4.580
331.00,4.993
332.00,5.409
333.00,5.877
334.00,6.299
335.00,6.738
336.00,7.180
337.00,7.665
338.00,8.054
339.00,8.424
340.00,8.843
341.00,9.235
342.00,9.586
343.00,9.958
344.00,10.332
345.00,10.618
346.00,10.932
347.00,11.158
348.00,11.450
349.00,11.731
350.00,11.930
351.00,12.118
352.00,12.346
353.00,12.521
354.00,12.713
355.00,12.866
356.00,13.027
357.00,13.157
358.00,13.259
359.00,13.417
360.00,13.543
361.00,13.602
362.00,13.696
363.00,13.784
364.00,13.825
365.00,13.861
366.00,13.894
367.00,13.930
368.00,13.944
369.00,13.956
370.00,13.980
371.00,13.984
372.00,13.929
373.00,13.953
374.00,13.940
375.00,13.882
376.00,13.892
377.00,13.803
378.00,13.758
379.00,13.705
380.00,13.678
381.00,13.618
382.00,13.608
383.00,13.592
384.00,13.585
385.00,13.593
386.00,13.588
387.00,13.613
388.00,13.609
389.00,13.605
390.00,13.598
391.00,13.568
392.00,13.588
393.00,13.545
394.00,13.556
395.00,13.565
396.00,13.542
397.00,13.541
398.00,13.538
399.00,13.542
400.00,13.530
401.00,13.487
402.00,13.511
403.00,13.534
404.00,13.512
405.00,13.498
406.00,13.485
407.00,13.464
408.00,13.459
409.00,13.405
410.00,13.366
411.00,13.410
412.00,13.377
413.00,13.367
414.00,13.364
415.00,13.376
416.00,13.410
417.00,13.400
418.00,13.448
419.00,13.460
420.00,13.493
421.00,13.467
422.00,13.476
423.00,13.550
424.00,13.550
425.00,13.583
426.00,13.595
427.00,13.634
428.00,13.705
429.00,13.720
430.00,13.773
431.00,13.821
432.00,13.860
433.00,13.898
434.00,13.960
435.00,14.014
436.00,14.071
437.00,14.126
438.00,14.209
439.00,14.280
440.00,14.344
441.00,14.395
442.00,14.471
443.00,14.561
444.00,14.652
445.00,14.729
446.00,14.804
447.00,14.912
448.00,14.977
449.00,15.094
450.00,15.201
451.00,15.251
452.00,15.411
453.00,15.499
454.00,15.569
455.00,15.673
456.00,15.807
457.00,15.908
458.00,15.995
459.00,16.128
460.00,16.257
461.00,16.369
462.00,16.488
463.00,16.631
464.00,16.752
465.00,16.872
466.00,17.000
467.00,17.135
468.00,17.248
469.00,17.376
470.00,17.482
471.00,17.578
472.00,17.709
473.00,17.816
474.00,17.940
475.00,18.070
476.00,18.191
477.00,18.285
478.00,18.453
479.00,18.591
480.00,18.754
481.00,18.892
482.00,19.064
483.00,19.202
484.00,19.351
485.00,19.499
486.00,19.653
487.00,19.823
488.00,19.971
489.00,20.125
490.00,20.304
491.00,20.436
492.00,20.560
493.00,20.756
494.00,20.919
495.00,20.994
496.00,21.141
497.00,21.246
498.00,21.409
499.00,21.535
500.00,21.680
501.00,21.812
502.00,21.979
503.00,22.081
504.00,22.111
505.00,22.373
506.00,22.493
507.00,22.613
508.00,22.738
509.00,22.900
510.00,23.031
511.00,23.115
512.00,23.303
513.00,23.463
514.00,23.590
515.00,23.746
516.00,23.834
517.00,23.937
518.00,24.094
519.00,24.187
520.00,24.268
521.00,24.357
522.00,24.463
523.00,24.536
524.00,24.685
525.00,24.828
526.00,24.914
527.00,25.026
528.00,25.097
529.00,25.262
530.00,25.418
531.00,25.511
532.00,25.632
533.00,25.794
534.00,25.821
535.00,25.933
536.00,25.995
537.00,26.119
538.00,26.209
539.00,26.277
540.00,26.381
541.00,26.500
542.00,26.613
543.00,26.601
544.00,26.702
545.00,26.775
546.00,26.789
547.00,26.968
548.00,27.020
549.00,27.076
550.00,27.190
551.00,27.307
552.00,27.377
553.00,27.428
554.00,27.493
555.00,27.562
556.00,27.678
557.00,27.709
558.00,27.766
559.00,27.811
560.00,27.953
561.00,28.033
562.00,28.008
563.00,28.038
564.00,28.139
565.00,28.157
566.00,28.257
567.00,28.308
568.00,28.334
569.00,28.411
570.00,28.464
571.00,28.518
572.00,28.604
573.00,28.580
574.00,28.627
575.00,28.691
576.00,28.711
577.00,28.791
578.00,28.832
579.00,28.900
580.00,28.965
581.00,29.134
582.00,29.219
583.00,29.227
584.00,29.320
585.00,29.444
586.00,29.471
587.00,29.545
588.00,29.569
589.00,29.546
590.00,29.662
591.00,29.707
592.00,29.663
593.00,29.742
594.00,29.880
595.00,29.964
596.00,30.026
597.00,30.082
598.00,30.137
599.00,30.178
600.00,30.251
601.00,30.277
602.00,30.272
603.00,30.381
604.00,30.405
605.00,30.475
606.00,30.532
607.00,30.590
608.00,30.641
609.00,30.746
610.00,30.963
611.00,30.819
612.00,30.873
613.00,30.959
614.00,31.003
615.00,31.129
616.00,31.221
617.00,31.267
618.00,31.261
619.00,31.371
620.00,31.404
621.00,31.465
622.00,31.595
623.00,31.678
624.00,31.756
625.00,31.835
626.00,31.916
627.00,32.004
628.00,32.030
629.00,32.106
630.00,32.126
631.00,32.253
632.00,32.414
633.00,32.520
634.00,32.628
635.00,32.740
636.00,32.794
637.00,32.869
638.00,32.987
639.00,33.135
640.00,33.249
641.00,33.286
642.00,33.331
643.00,33.432
644.00,33.546
645.00,33.635
646.00,33.803
647.00,33.971
648.00,33.997
649.00,34.096
650.00,34.210
651.00,34.388
652.00,34.408
653.00,34.477
654.00,34.569
655.00,34.883
656.00,35.135
657.00,35.061
658.00,35.267
659.00,35.335
660.00,35.422
661.00,35.507
662.00,35.587
663.00,35.732
664.00,36.050
665.00,36.202
666.00,36.053
667.00,36.135
668.00,36.369
669.00,36.530
670.00,36.898
671.00,37.066
672.00,37.007
673.00,37.078
674.00,37.208
675.00,37.355
676.00,37.516
677.00,37.794
678.00,37.671
679.00,37.810
680.00,38.093
681.00,38.365
682.00,38.357
683.00,38.448
684.00,38.706
685.00,38.820
686.00,38.709
687.00,38.914
688.00,39.082
689.00,39.218
690.00,39.478
691.00,39.722
692.00,39.583
693.00,39.683
694.00,39.910
695.00,40.129
696.00,40.257
697.00,40.249
698.00,40.485
699.00,40.711
700.00,40.715
701.00,40.775
702.00,40.970
703.00,41.176
704.00,41.243
705.00,41.262
706.00,41.383
707.00,41.360
708.00,41.604
709.00,42.269
710.00,42.359
711.00,42.037
712.00,42.153
713.00,42.419
714.00,42.505
715.00,42.546
716.00,42.635
717.00,42.830
718.00,43.056
719.00,43.045
720.00,43.229
721.00,47.497
722.00,47.622
723.00,47.751
724.00,47.763
725.00,47.803
726.00,47.877
727.00,47.897
728.00,48.099
729.00,48.193
730.00,48.242
731.00,48.337
732.00,48.369
733.00,48.515
734.00,48.570
735.00,48.680
736.00,48.679
737.00,48.753
738.00,48.875
739.00,48.894
740.00,48.923
741.00,49.067
742.00,49.109
743.00,49.184
744.00,49.229
745.00,49.247
746.00,49.286
747.00,49.379
748.00,49.423
749.00,49.483
750.00,49.529
751.00,49.558
752.00,49.625
753.00,49.646
754.00,49.683
755.00,49.662
756.00,49.767
757.00,49.871
758.00,49.923
759.00,49.957
760.00,49.997
761.00,50.028
762.00,50.064
763.00,50.095
764.00,50.200
765.00,50.196
766.00,50.294
767.00,50.356
768.00,50.362
769.00,50.400
770.00,50.417
771.00,50.452
772.00,50.580
773.00,50.465
774.00,50.569
775.00,50.665
776.00,50.639
777.00,50.742
778.00,50.768
779.00,50.805
780.00,50.827
781.00,50.797
782.00,50.848
783.00,50.777
784.00,50.868
785.00,50.892
786.00,50.952
787.00,50.955
788.00,50.963
789.00,50.999
790.00,50.927
791.00,51.084
792.00,51.045
793.00,51.012
794.00,51.035
795.00,51.052
796.00,51.023
797.00,51.033
798.00,51.046
799.00,51.022
800.00,51.063
801.00,51.093
802.00,51.130
803.00,51.120
804.00,51.101
805.00,51.142
806.00,51.110
807.00,51.087
808.00,51.109
809.00,51.105
810.00,51.181
811.00,51.069
812.00,51.157
813.00,51.111
814.00,51.196
815.00,51.080
816.00,51.167
817.00,51.153
818.00,51.068
819.00,51.057
820.00,51.026
821.00,51.142
822.00,51.109
823.00,51.052
824.00,51.053
825.00,51.145
826.00,51.130
827.00,51.152
828.00,51.107
829.00,51.049
830.00,51.157
831.00,53.245
832.00,53.239
833.00,53.200
834.00,53.246
835.00,53.214
836.00,53.219
837.00,53.191
838.00,53.200
839.00,53.179
840.00,53.164
841.00,53.155
842.00,53.131
843.00,53.145
844.00,53.173
845.00,53.100
846.00,53.136
847.00,53.100
848.00,53.087
849.00,53.033
850.00,53.026
851.00,52.954
852.00,53.085
853.00,52.946
854.00,52.965
855.00,52.907
856.00,52.919
857.00,52.914
858.00,52.857
859.00,52.872
860.00,52.859
861.00,52.876
862.00,52.850
863.00,52.851
864.00,52.844
865.00,52.860
866.00,52.861
867.00,52.816
868.00,52.822
869.00,52.817
870.00,52.837
871.00,52.810
872.00,52.782
873.00,52.804
874.00,52.762
875.00,52.757
876.00,52.766
877.00,52.880
878.00,52.733
879.00,52.762
880.00,52.762
881.00,52.708
882.00,52.758
883.00,52.846
884.00,52.671
885.00,52.692
886.00,52.691
887.00,52.670
888.00,52.635
889.00,52.646
890.00,52.638
891.00,52.609
892.00,52.571
893.00,52.551
894.00,52.590
895.00,52.546
896.00,52.525
897.00,52.526
898.00,52.487
899.00,52.472
900.00,52.470
901.00,52.452
902.00,52.439
903.00,52.408
904.00,52.403
905.00,52.377
906.00,52.366
907.00,52.354
908.00,52.351
909.00,52.339
910.00,52.286
911.00,52.312
912.00,52.313
913.00,52.273
914.00,52.267
915.00,52.258
916.00,52.229
917.00,52.228
918.00,52.202
919.00,52.163
920.00,52.145
921.00,52.148
922.00,52.148
923.00,52.101
924.00,52.083
925.00,52.086
926.00,52.072
927.00,52.045
928.00,52.020
929.00,52.026
930.00,51.991
931.00,51.991
932.00,51.946
933.00,51.959
934.00,51.955
935.00,51.926
936.00,51.921
937.00,51.863
938.00,51.975
939.00,51.865
940.00,51.827
941.00,51.821
942.00,51.807
943.00,51.785
944.00,51.753
945.00,51.778
946.00,51.749
947.00,51.734
948.00,51.686
949.00,51.670
950.00,51.673
951.00,51.654
952.00,51.623
953.00,51.618
954.00,51.569
955.00,51.529
956.00,51.531
957.00,51.482
958.00,51.496
959.00,51.445
960.00,51.426
961.00,51.438
962.00,51.432
963.00,51.403
964.00,51.394
965.00,51.391
966.00,51.363
967.00,51.377
968.00,51.344
969.00,51.377
970.00,51.321
971.00,51.352
972.00,51.352
973.00,51.365
974.00,51.394
975.00,51.367
976.00,51.352
977.00,51.348
978.00,51.443
979.00,51.334
980.00,51.371
981.00,51.380
982.00,51.324
983.00,51.334
984.00,51.390
985.00,51.343
986.00,51.341
987.00,51.323
988.00,51.327
989.00,51.299
990.00,51.277
991.00,51.278
992.00,51.303
993.00,51.266
994.00,51.255
995.00,51.262
996.00,51.244
997.00,51.233
998.00,51.222
999.00,51.222
1000.00,51.153
1001.00,51.149
1002.00,51.171
1003.00,51.153
1004.00,51.124
1005.00,51.106
1006.00,51.126
1007.00,51.093
1008.00,51.094
1009.00,51.079
1010.00,51.066
1011.00,51.061
1012.00,51.038
1013.00,51.042
1014.00,51.012
1015.00,51.011
1016.00,50.970
1017.00,50.958
1018.00,50.952
1019.00,50.933
1020.00,50.917
1021.00,50.918
1022.00,50.908
1023.00,50.855
1024.00,50.865
1025.00,50.854
1026.00,50.830
1027.00,50.824
1028.00,50.804
1029.00,50.786
1030.00,50.755
1031.00,50.761
1032.00,50.738
1033.00,50.732
1034.00,50.702
1035.00,50.674
1036.00,50.644
1037.00,50.623
1038.00,50.616
1039.00,50.582
1040.00,50.573
1041.00,50.544
1042.00,50.517
1043.00,50.509
1044.00,50.535
1045.00,50.523
1046.00,50.513
1047.00,50.537
1048.00,50.541
1049.00,50.564
1050.00,50.558
1051.00,50.586
1052.00,50.616
1053.00,50.601
1054.00,50.611
1055.00,50.623
1056.00,50.629
1057.00,50.633
1058.00,50.617
1059.00,50.622
1060.00,50.626
1061.00,50.601
1062.00,50.638
1063.00,50.616
1064.00,50.602
1065.00,50.596
1066.00,50.591
1067.00,50.571
1068.00,50.601
1069.00,50.563
1070.00,50.525
1071.00,50.523
1072.00,50.516
1073.00,50.507
1074.00,50.498
1075.00,50.478
1076.00,50.483
1077.00,50.475
1078.00,50.432
1079.00,50.443
1080.00,50.444
1081.00,50.419
1082.00,50.425
1083.00,50.414
1084.00,50.406
1085.00,50.401
1086.00,50.383
1087.00,50.396
1088.00,50.374
1089.00,50.349
1090.00,50.367
1091.00,50.357
1092.00,50.340
1093.00,50.333
1094.00,50.317
1095.00,50.303
1096.00,50.289
1097.00,50.265
1098.00,50.277
1099.00,50.260
1100.00,50.234
1101.00,50.242
1102.00,50.227
1103.00,50.206
1104.00,50.220
1105.00,50.195
1106.00,50.197
1107.00,50.211
1108.00,50.191
1109.00,50.189
1110.00,50.188
1111.00,50.167
1112.00,50.152
1113.00,50.143
1114.00,50.126
1115.00,50.143
1116.00,50.127
1117.00,50.109
1118.00,50.117
1119.00,50.089
1120.00,50.118
1121.00,50.098
1122.00,50.077
1123.00,50.099
1124.00,50.054
1125.00,50.040
1126.00,50.038
1127.00,50.028
1128.00,50.013
1129.00,50.004
1130.00,49.991
1131.00,50.000
1132.00,49.990
1133.00,49.977
1134.00,49.996
1135.00,49.971
1136.00,49.969
1137.00,49.973
1138.00,49.967
1139.00,49.967
1140.00,49.961
1141.00,49.939
1142.00,49.941
1143.00,49.956
1144.00,49.918
1145.00,49.926
1146.00,49.927
1147.00,49.911
1148.00,49.918
1149.00,49.904
1150.00,49.910
1151.00,49.919
1152.00,49.895
1153.00,49.892
1154.00,49.896
1155.00,49.883
1156.00,49.878
1157.00,49.875
1158.00,49.877
1159.00,49.879
1160.00,49.874
1161.00,49.877
1162.00,49.875
1163.00,49.864
1164.00,49.864
1165.00,49.866
1166.00,49.850
1167.00,49.848
1168.00,49.858
1169.00,49.848
1170.00,49.851
1171.00,49.834
1172.00,49.838
1173.00,49.846
1174.00,49.835
1175.00,49.845
1176.00,49.838
1177.00,49.808
1178.00,49.827
1179.00,49.829
1180.00,49.815
1181.00,49.830
1182.00,49.812
1183.00,49.822
1184.00,49.822
1185.00,49.806
1186.00,49.809
1187.00,49.811
1188.00,49.788
1189.00,49.800
1190.00,49.797
1191.00,49.785
1192.00,49.809
1193.00,49.792
1194.00,49.803
1195.00,49.787
1196.00,49.797
1197.00,49.800
1198.00,49.793
1199.00,49.786
1200.00,49.798
1201.00,49.798
1202.00,49.784
1203.00,49.782
1204.00,49.775
1205.00,49.779
1206.00,49.779
1207.00,49.779
1208.00,49.787
1209.00,49.784
1210.00,49.767
1211.00,49.784
1212.00,49.789
1213.00,49.742
1214.00,49.778
1215.00,49.760
1216.00,49.761
1217.00,49.773
1218.00,49.750
1219.00,49.756
1220.00,49.769
1221.00,49.743
1222.00,49.747
1223.00,49.780
1224.00,49.750
1225.00,49.743
1226.00,49.746
1227.00,49.738
1228.00,49.775
1229.00,49.787
1230.00,49.815
1231.00,49.813
1232.00,49.803
1233.00,49.825
1234.00,49.811
1235.00,49.803
1236.00,49.818
1237.00,49.797
1238.00,49.798
1239.00,49.798
1240.00,49.796
1241.00,49.815
1242.00,49.818
1243.00,49.816
1244.00,49.825
1245.00,49.826
1246.00,49.820
1247.00,49.825
1248.00,49.811
1249.00,49.819
1250.00,49.835
1251.00,49.821
1252.00,49.843
1253.00,49.831
1254.00,49.832
1255.00,49.837
1256.00,49.808
1257.00,49.789
1258.00,49.847
1259.00,49.835
1260.00,49.854
1261.00,49.861
1262.00,49.841
1263.00,49.861
1264.00,49.861
1265.00,49.856
1266.00,49.858
1267.00,49.859
1268.00,49.868
1269.00,49.871
1270.00,49.884
1271.00,49.877
1272.00,49.898
1273.00,49.897
1274.00,49.908
1275.00,49.925
1276.00,49.901
1277.00,49.914
1278.00,49.913
1279.00,49.913
1280.00,49.917
1281.00,49.922
1282.00,49.930
1283.00,49.933
1284.00,49.925
1285.00,49.936
1286.00,49.933
1287.00,49.937
1288.00,49.939
1289.00,49.935
1290.00,49.938
1291.00,49.951
1292.00,49.957
1293.00,49.954
1294.00,49.970
1295.00,49.968
1296.00,49.973
1297.00,49.991
1298.00,49.992
1299.00,49.976
1300.00,49.987
1301.00,49.984
1302.00,50.002
1303.00,50.000
1304.00,49.985
1305.00,50.011
1306.00,50.010
1307.00,50.026
1308.00,50.028
1309.00,50.011
1310.00,50.038
1311.00,50.024
1312.00,50.034
1313.00,50.045
1314.00,50.061
1315.00,50.070
1316.00,50.066
1317.00,50.087
1318.00,50.094
1319.00,50.099
1320.00,50.102
1321.00,50.272
1322.00,50.273
1323.00,50.247
1324.00,50.246
1325.00,50.240
1326.00,50.244
1327.00,50.256
1328.00,50.227
1329.00,50.234
1330.00,50.232
1331.00,50.229
1332.00,50.213
1333.00,50.250
1334.00,50.243
1335.00,50.284
1336.00,50.293
1337.00,50.330
1338.00,50.388
1339.00,50.442
1340.00,50.481
1341.00,50.561
1342.00,50.607
1343.00,50.672
1344.00,50.710
1345.00,50.773
1346.00,50.807
1347.00,50.838
1348.00,50.848
1349.00,50.897
1350.00,50.881
1351.00,50.916
1352.00,50.904
1353.00,50.908
1354.00,50.917
1355.00,50.905
1356.00,50.921
1357.00,50.926
1358.00,50.949
1359.00,50.936
1360.00,50.986
1361.00,50.989
1362.00,50.899
1363.00,50.988
1364.00,50.935
1365.00,50.954
1366.00,50.981
1367.00,50.924
1368.00,50.924
1369.00,50.954
1370.00,50.937
1371.00,50.931
1372.00,50.920
1373.00,50.910
1374.00,50.910
1375.00,50.902
1376.00,50.880
1377.00,50.872
1378.00,50.907
1379.00,50.982
1380.00,50.936
1381.00,50.929
1382.00,50.906
1383.00,50.887
1384.00,50.872
1385.00,50.846
1386.00,50.901
1387.00,50.902
1388.00,50.881
1389.00,50.825
1390.00,50.891
1391.00,50.903
1392.00,50.868
1393.00,50.888
1394.00,50.896
1395.00,50.831
1396.00,50.867
1397.00,50.886
1398.00,50.929
1399.00,50.917
1400.00,50.892
1401.00,50.896
1402.00,50.922
1403.00,50.929
1404.00,50.908
1405.00,50.947
1406.00,50.926
1407.00,50.958
1408.00,50.964
1409.00,51.024
1410.00,50.990
1411.00,50.943
1412.00,51.011
1413.00,50.990
1414.00,50.958
1415.00,51.025
1416.00,51.034
1417.00,51.042
1418.00,51.045
1419.00,51.007
1420.00,51.034
1421.00,51.076
1422.00,51.077
1423.00,51.078
1424.00,51.105
1425.00,51.095
1426.00,51.128
1427.00,51.134
1428.00,51.143
1429.00,51.160
1430.00,51.162
1431.00,51.186
1432.00,51.211
1433.00,51.222
1434.00,51.223
1435.00,51.239
1436.00,51.282
1437.00,51.260
1438.00,51.292
1439.00,51.301
1440.00,51.331
1441.00,51.317
1442.00,51.323
1443.00,51.367
1444.00,51.375
1445.00,51.389
1446.00,51.402
1447.00,51.425
1448.00,51.467
1449.00,51.476
1450.00,51.469
1451.00,51.482
1452.00,51.486
1453.00,51.522
1454.00,51.518
1455.00,51.537
1456.00,51.559
1457.00,51.553
1458.00,51.561
1459.00,51.602
1460.00,51.602
1461.00,51.610
1462.00,51.645
1463.00,51.654
1464.00,51.664
1465.00,51.690
1466.00,51.660
1467.00,51.706
1468.00,51.738
1469.00,51.725
1470.00,51.744
1471.00,51.771
1472.00,51.763
1473.00,51.785
1474.00,51.783
1475.00,51.812
1476.00,51.825
1477.00,51.819
1478.00,51.848
1479.00,51.866
1480.00,51.837
1481.00,51.873
1482.00,51.896
1483.00,51.891
1484.00,51.907
1485.00,51.931
1486.00,51.960
1487.00,51.992
1488.00,51.962
1489.00,51.992
1490.00,52.005
1491.00,52.017
1492.00,52.034
1493.00,52.033
1494.00,52.042
1495.00,52.057
1496.00,52.056
1497.00,52.077
1498.00,52.072
1499.00,52.077
1500.00,52.106
1501.00, 
1502.00, 
1503.00, 
1504.00, 
1505.00, 
1506.00, 
1507.00, 
1508.00, 
1509.00, 
1510.00, 
1511.00, 
1512.00, 
1513.00, 
1514.00, 
1515.00, 
1516.00, 
1517.00, 
1518.00, 
1519.00, 
1520.00, 
1521.00, 
1522.00, 
1523.00, 
1524.00, 
1525.00, 
1526.00, 
1527.00, 
1528.00, 
1529.00, 
1530.00, 
1531.00, 
1532.00, 
1533.00, 
1534.00, 
1535.00, 
1536.00, 
1537.00, 
1538.00, 
1539.00, 
1540.00, 
1541.00, 
1542.00, 
1543.00, 
1544.00, 
1545.00, 
1546.00, 
1547.00, 
1548.00, 
1549.00, 
1550.00, 
1551.00, 
1552.00, 
1553.00, 
1554.00, 
1555.00, 
1556.00, 
1557.00, 
1558.00, 
1559.00, 
1560.00, 
1561.00, 
1562.00, 
1563.00, 
1564.00, 
1565.00, 
1566.00, 
1567.00, 
1568.00, 
1569.00, 
1570.00, 
1571.00, 
1572.00, 
1573.00, 
1574.00, 
1575.00, 
1576.00, 
1577.00, 
1578.00, 
1579.00, 
1580.00, 
1581.00, 
1582.00, 
1583.00, 
1584.00, 
1585.00, 
1586.00, 
1587.00, 
1588.00, 
1589.00, 
1590.00, 
1591.00, 
1592.00, 
1593.00, 
1594.00, 
1595.00, 
1596.00, 
1597.00, 
1598.00, 
1599.00, 
1600.00, 
1601.00, 
1602.00, 
1603.00, 
1604.00, 
1605.00, 
1606.00, 
1607.00, 
1608.00, 
1609.00, 
1610.00, 
1611.00, 
1612.00, 
1613.00, 
1614.00, 
1615.00, 
1616.00, 
1617.00, 
1618.00, 
1619.00, 
1620.00, 
1621.00, 
1622.00, 
1623.00, 
1624.00, 
1625.00, 
1626.00, 
1627.00, 
1628.00, 
1629.00, 
1630.00, 
1631.00, 
1632.00, 
1633.00, 
1634.00, 
1635.00, 
1636.00, 
1637.00, 
1638.00, 
1639.00, 
1640.00, 
1641.00, 
1642.00, 
1643.00, 
1644.00, 
1645.00, 
1646.00, 
1647.00, 
1648.00, 
1649.00, 
1650.00, 
1651.00, 
1652.00, 
1653.00, 
1654.00, 
1655.00, 
1656.00, 
1657.00, 
1658.00, 
1659.00, 
1660.00, 
1661.00, 
1662.00, 
1663.00, 
1664.00, 
1665.00, 
1666.00, 
1667.00, 
1668.00, 
1669.00, 
1670.00, 
1671.00, 
1672.00, 
1673.00, 
1674.00, 
1675.00, 
1676.00, 
1677.00, 
1678.00, 
1679.00, 
1680.00, 
1681.00, 
1682.00, 
1683.00, 
1684.00, 
1685.00, 
1686.00, 
1687.00, 
1688.00, 
1689.00, 
1690.00, 
1691.00, 
1692.00, 
1693.00, 
1694.00, 
1695.00, 
1696.00, 
1697.00, 
1698.00, 
1699.00, 
1700.00, 
1701.00, 
1702.00, 
1703.00, 
1704.00, 
1705.00, 
1706.00, 
1707.00, 
1708.00, 
1709.00, 
1710.00, 
1711.00, 
1712.00, 
1713.00, 
1714.00, 
1715.00, 
1716.00, 
1717.00, 
1718.00, 
1719.00, 
1720.00, 
1721.00, 
1722.00, 
1723.00, 
1724.00, 
1725.00, 
1726.00, 
1727.00, 
1728.00, 
1729.00, 
1730.00, 
1731.00, 
1732.00, 
1733.00, 
1734.00, 
1735.00, 
1736.00, 
1737.00, 
1738.00, 
1739.00, 
1740.00, 
1741.00, 
1742.00, 
1743.00, 
1744.00, 
1745.00, 
1746.00, 
1747.00, 
1748.00, 
1749.00, 
1750.00, 
1751.00, 
1752.00, 
1753.00, 
1754.00, 
1755.00, 
1756.00, 
1757.00, 
1758.00, 
1759.00, 
1760.00, 
1761.00, 
1762.00, 
1763.00, 
1764.00, 
1765.00, 
1766.00, 
1767.00, 
1768.00, 
1769.00, 
1770.00, 
1771.00, 
1772.00, 
1773.00, 
1774.00, 
1775.00, 
1776.00, 
1777.00, 
1778.00, 
1779.00, 
1780.00, 
1781.00, 
1782.00, 
1783.00, 
1784.00, 
1785.00, 
1786.00, 
1787.00, 
1788.00, 
1789.00, 
1790.00, 
1791.00, 
1792.00, 
1793.00, 
1794.00, 
1795.00, 
1796.00, 
1797.00, 
1798.00, 
1799.00, 
1800.00, 
1801.00, 
1802.00, 
1803.00, 
1804.00, 
1805.00, 
1806.00, 
1807.00, 
1808.00, 
1809.00, 
1810.00, 
1811.00, 
1812.00, 
1813.00, 
1814.00, 
1815.00, 
1816.00, 
1817.00, 
1818.00, 
1819.00, 
1820.00, 
1821.00, 
1822.00, 
1823.00, 
1824.00, 
1825.00, 
1826.00, 
1827.00, 
1828.00, 
1829.00, 
1830.00, 
1831.00, 
1832.00, 
1833.00, 
1834.00, 
1835.00, 
1836.00, 
1837.00, 
1838.00, 
1839.00, 
1840.00, 
1841.00, 
1842.00, 
1843.00, 
1844.00, 
1845.00, 
1846.00, 
1847.00, 
1848.00, 
1849.00, 
1850.00, 
1851.00, 
1852.00, 
1853.00, 
1854.00, 
1855.00, 
1856.00, 
1857.00, 
1858.00, 
1859.00, 
1860.00, 
1861.00, 
1862.00, 
1863.00, 
1864.00, 
1865.00, 
1866.00, 
1867.00, 
1868.00, 
1869.00, 
1870.00, 
1871.00, 
1872.00, 
1873.00, 
1874.00, 
1875.00, 
1876.00, 
1877.00, 
1878.00, 
1879.00, 
1880.00, 
1881.00, 
1882.00, 
1883.00, 
1884.00, 
1885.00, 
1886.00, 
1887.00, 
1888.00, 
1889.00, 
1890.00, 
1891.00, 
1892.00, 
1893.00, 
1894.00, 
1895.00, 
1896.00, 
1897.00, 
1898.00, 
1899.00, 
1900.00, 
1901.00, 
1902.00, 
1903.00, 
1904.00, 
1905.00, 
1906.00, 
1907.00, 
1908.00, 
1909.00, 
1910.00, 
1911.00, 
1912.00, 
1913.00, 
1914.00, 
1915.00, 
1916.00, 
1917.00, 
1918.00, 
1919.00, 
1920.00, 
1921.00, 
1922.00, 
1923.00, 
1924.00, 
1925.00, 
1926.00, 
1927.00, 
1928.00, 
1929.00, 
1930.00, 
1931.00, 
1932.00, 
1933.00, 
1934.00, 
1935.00, 
1936.00, 
1937.00, 
1938.00, 
1939.00, 
1940.00, 
1941.00, 
1942.00, 
1943.00, 
1944.00, 
1945.00, 
1946.00, 
1947.00, 
1948.00, 
1949.00, 
1950.00, 
1951.00, 
1952.00, 
1953.00, 
1954.00, 
1955.00, 
1956.00, 
1957.00, 
1958.00, 
1959.00, 
1960.00, 
1961.00, 
1962.00, 
1963.00, 
1964.00, 
1965.00, 
1966.00, 
1967.00, 
1968.00, 
1969.00, 
1970.00, 
1971.00, 
1972.00, 
1973.00, 
1974.00, 
1975.00, 
1976.00, 
1977.00, 
1978.00, 
1979.00, 
1980.00, 
1981.00, 
1982.00, 
1983.00, 
1984.00, 
1985.00, 
1986.00, 
1987.00, 
1988.00, 
1989.00, 
1990.00, 
1991.00, 
1992.00, 
1993.00, 
1994.00, 
1995.00, 
1996.00, 
1997.00, 
1998.00, 
1999.00, 
2000.00, 
2001.00, 
2002.00, 
2003.00, 
2004.00, 
2005.00, 
2006.00, 
2007.00, 
2008.00, 
2009.00, 
2010.00, 
2011.00, 
2012.00, 
2013.00, 
2014.00, 
2015.00, 
2016.00, 
2017.00, 
2018.00, 
2019.00, 
2020.00, 
2021.00, 
2022.00, 
2023.00, 
2024.00, 
2025.00, 
2026.00, 
2027.00, 
2028.00, 
2029.00, 
2030.00, 
2031.00, 
2032.00, 
2033.00, 
2034.00, 
2035.00, 
2036.00, 
2037.00, 
2038.00, 
2039.00, 
2040.00, 
2041.00, 
2042.00, 
2043.00, 
2044.00, 
2045.00, 
2046.00, 
2047.00, 
2048.00, 
2049.00, 
2050.00, 
2051.00, 
2052.00, 
2053.00, 
2054.00, 
2055.00, 
2056.00, 
2057.00, 
2058.00, 
2059.00, 
2060.00, 
2061.00, 
2062.00, 
2063.00, 
2064.00, 
2065.00, 
2066.00, 
2067.00, 
2068.00, 
2069.00, 
2070.00, 
2071.00, 
2072.00, 
2073.00, 
2074.00, 
2075.00, 
2076.00, 
2077.00, 
2078.00, 
2079.00, 
2080.00, 
2081.00, 
2082.00, 
2083.00, 
2084.00, 
2085.00, 
2086.00, 
2087.00, 
2088.00, 
2089.00, 
2090.00, 
2091.00, 
2092.00, 
2093.00, 
2094.00, 
2095.00, 
2096.00, 
2097.00, 
2098.00, 
2099.00, 
2100.00, 
2101.00, 
2102.00, 
2103.00, 
2104.00, 
2105.00, 
2106.00, 
2107.00, 
2108.00, 
2109.00, 
2110.00, 
2111.00, 
2112.00, 
2113.00, 
2114.00, 
2115.00, 
2116.00, 
2117.00, 
2118.00, 
2119.00, 
2120.00, 
2121.00, 
2122.00, 
2123.00, 
2124.00, 
2125.00, 
2126.00, 
2127.00, 
2128.00, 
2129.00, 
2130.00, 
2131.00, 
2132.00, 
2133.00, 
2134.00, 
2135.00, 
2136.00, 
2137.00, 
2138.00, 
2139.00, 
2140.00, 
2141.00, 
2142.00, 
2143.00, 
2144.00, 
2145.00, 
2146.00, 
2147.00, 
2148.00, 
2149.00, 
2150.00, 
2151.00, 
2152.00, 
2153.00, 
2154.00, 
2155.00, 
2156.00, 
2157.00, 
2158.00, 
2159.00, 
2160.00, 
2161.00, 
2162.00, 
2163.00, 
2164.00, 
2165.00, 
2166.00, 
2167.00, 
2168.00, 
2169.00, 
2170.00, 
2171.00, 
2172.00, 
2173.00, 
2174.00, 
2175.00, 
2176.00, 
2177.00, 
2178.00, 
2179.00, 
2180.00, 
2181.00, 
2182.00, 
2183.00, 
2184.00, 
2185.00, 
2186.00, 
2187.00, 
2188.00, 
2189.00, 
2190.00, 
2191.00, 
2192.00, 
2193.00, 
2194.00, 
2195.00, 
2196.00, 
2197.00, 
2198.00, 
2199.00, 
2200.00, 
2201.00, 
2202.00, 
2203.00, 
2204.00, 
2205.00, 
2206.00, 
2207.00, 
2208.00, 
2209.00, 
2210.00, 
2211.00, 
2212.00, 
2213.00, 
2214.00, 
2215.00, 
2216.00, 
2217.00, 
2218.00, 
2219.00, 
2220.00, 
2221.00, 
2222.00, 
2223.00, 
2224.00, 
2225.00, 
2226.00, 
2227.00, 
2228.00, 
2229.00, 
2230.00, 
2231.00, 
2232.00, 
2233.00, 
2234.00, 
2235.00, 
2236.00, 
2237.00, 
2238.00, 
2239.00, 
2240.00, 
2241.00, 
2242.00, 
2243.00, 
2244.00, 
2245.00, 
2246.00, 
2247.00, 
2248.00, 
2249.00, 
2250.00, 
2251.00, 
2252.00, 
2253.00, 
2254.00, 
2255.00, 
2256.00, 
2257.00, 
2258.00, 
2259.00, 
2260.00, 
2261.00, 
2262.00, 
2263.00, 
2264.00, 
2265.00, 
2266.00, 
2267.00, 
2268.00, 
2269.00, 
2270.00, 
2271.00, 
2272.00, 
2273.00, 
2274.00, 
2275.00, 
2276.00, 
2277.00, 
2278.00, 
2279.00, 
2280.00, 
2281.00, 
2282.00, 
2283.00, 
2284.00, 
2285.00, 
2286.00, 
2287.00, 
2288.00, 
2289.00, 
2290.00, 
2291.00, 
2292.00, 
2293.00, 
2294.00, 
2295.00, 
2296.00, 
2297.00, 
2298.00, 
2299.00, 
2300.00, 
2301.00, 
2302.00, 
2303.00, 
2304.00, 
2305.00, 
2306.00, 
2307.00, 
2308.00, 
2309.00, 
2310.00, 
2311.00, 
2312.00, 
2313.00, 
2314.00, 
2315.00, 
2316.00, 
2317.00, 
2318.00, 
2319.00, 
2320.00, 
2321.00, 
2322.00, 
2323.00, 
2324.00, 
2325.00, 
2326.00, 
2327.00, 
2328.00, 
2329.00, 
2330.00, 
2331.00, 
2332.00, 
2333.00, 
2334.00, 
2335.00, 
2336.00, 
2337.00, 
2338.00, 
2339.00, 
2340.00, 
2341.00, 
2342.00, 
2343.00, 
2344.00, 
2345.00, 
2346.00, 
2347.00, 
2348.00, 
2349.00, 
2350.00, 
2351.00, 
2352.00, 
2353.00, 
2354.00, 
2355.00, 
2356.00, 
2357.00, 
2358.00, 
2359.00, 
2360.00, 
2361.00, 
2362.00, 
2363.00, 
2364.00, 
2365.00, 
2366.00, 
2367.00, 
2368.00, 
2369.00, 
2370.00, 
2371.00, 
2372.00, 
2373.00, 
2374.00, 
2375.00, 
2376.00, 
2377.00, 
2378.00, 
2379.00, 
2380.00, 
2381.00, 
2382.00, 
2383.00, 
2384.00, 
2385.00, 
2386.00, 
2387.00, 
2388.00, 
2389.00, 
2390.00, 
2391.00, 
2392.00, 
2393.00, 
2394.00, 
2395.00, 
2396.00, 
2397.00, 
2398.00, 
2399.00, 
2400.00, 
2401.00, 
2402.00, 
2403.00, 
2404.00, 
2405.00, 
2406.00, 
2407.00, 
2408.00, 
2409.00, 
2410.00, 
2411.00, 
2412.00, 
2413.00, 
2414.00, 
2415.00, 
2416.00, 
2417.00, 
2418.00, 
2419.00, 
2420.00, 
2421.00, 
2422.00, 
2423.00, 
2424.00, 
2425.00, 
2426.00, 
2427.00, 
2428.00, 
2429.00, 
2430.00, 
2431.00, 
2432.00, 
2433.00, 
2434.00, 
2435.00, 
2436.00, 
2437.00, 
2438.00, 
2439.00, 
2440.00, 
2441.00, 
2442.00, 
2443.00, 
2444.00, 
2445.00, 
2446.00, 
2447.00, 
2448.00, 
2449.00, 
2450.00, 
2451.00, 
2452.00, 
2453.00, 
2454.00, 
2455.00, 
2456.00, 
2457.00, 
2458.00, 
2459.00, 
2460.00, 
2461.00, 
2462.00, 
2463.00, 
2464.00, 
2465.00, 
2466.00, 
2467.00, 
2468.00, 
2469.00, 
2470.00, 
2471.00, 
2472.00, 
2473.00, 
2474.00, 
2475.00, 
2476.00, 
2477.00, 
2478.00, 
2479.00, 
2480.00, 
2481.00, 
2482.00, 
2483.00, 
2484.00, 
2485.00, 
2486.00, 
2487.00, 
2488.00, 
2489.00, 
2490.00, 
2491.00, 
2492.00, 
2493.00, 
2494.00, 
2495.00, 
2496.00, 
2497.00, 
2498.00, 
2499.00, 
2500.00, 
2501.00, 
2502.00, 
2503.00, 
2504.00, 
2505.00, 
2506.00, 
2507.00, 
2508.00, 
2509.00, 
2510.00, 
2511.00, 
2512.00, 
2513.00, 
2514.00, 
2515.00, 
2516.00, 
2517.00, 
2518.00, 
2519.00, 
2520.00, 
2521.00, 
2522.00, 
2523.00, 
2524.00, 
2525.00, 
2526.00, 
2527.00, 
2528.00, 
2529.00, 
2530.00, 
2531.00, 
2532.00, 
2533.00, 
2534.00, 
2535.00, 
2536.00, 
2537.00, 
2538.00, 
2539.00, 
2540.00, 
2541.00, 
2542.00, 
2543.00, 
2544.00, 
2545.00, 
2546.00, 
2547.00, 
2548.00, 
2549.00, 
2550.00, 
2551.00, 
2552.00, 
2553.00, 
2554.00, 
2555.00, 
2556.00, 
2557.00, 
2558.00, 
2559.00, 
2560.00, 
2561.00, 
2562.00, 
2563.00, 
2564.00, 
2565.00, 
2566.00, 
2567.00, 
2568.00, 
2569.00, 
2570.00, 
2571.00, 
2572.00, 
2573.00, 
2574.00, 
2575.00, 
2576.00, 
2577.00, 
2578.00, 
2579.00, 
2580.00, 
2581.00, 
2582.00, 
2583.00, 
2584.00, 
2585.00, 
2586.00, 
2587.00, 
2588.00, 
2589.00, 
2590.00, 
2591.00, 
2592.00, 
2593.00, 
2594.00, 
2595.00, 
2596.00, 
2597.00, 
2598.00, 
2599.00, 
2600.00, 
