"2cP5 - RawData"
"Wavelength nm.","T%"
200.00,-0.000
201.00,0.002
202.00,-0.000
203.00,0.003
204.00,-0.000
205.00,0.003
206.00,0.001
207.00,-0.000
208.00,0.000
209.00,0.001
210.00,0.000
211.00,0.002
212.00,0.000
213.00,0.001
214.00,0.001
215.00,-0.001
216.00,0.004
217.00,0.005
218.00,-0.001
219.00,-0.002
220.00,0.002
221.00,0.002
222.00,-0.000
223.00,-0.001
224.00,0.002
225.00,0.000
226.00,0.002
227.00,0.000
228.00,0.000
229.00,0.001
230.00,0.003
231.00,-0.001
232.00,-0.002
233.00,0.001
234.00,0.001
235.00,0.001
236.00,-0.001
237.00,-0.000
238.00,0.002
239.00,-0.000
240.00,0.001
241.00,0.001
242.00,0.001
243.00,-0.000
244.00,-0.001
245.00,0.001
246.00,-0.001
247.00,0.000
248.00,0.001
249.00,0.000
250.00,0.000
251.00,0.001
252.00,0.000
253.00,-0.001
254.00,0.000
255.00,0.001
256.00,-0.000
257.00,0.001
258.00,0.001
259.00,-0.000
260.00,0.000
261.00,0.001
262.00,-0.002
263.00,0.002
264.00,-0.001
265.00,-0.000
266.00,0.001
267.00,0.001
268.00,0.000
269.00,0.000
270.00,0.002
271.00,0.000
272.00,0.001
273.00,0.001
274.00,0.001
275.00,-0.000
276.00,0.000
277.00,-0.002
278.00,-0.001
279.00,0.000
280.00,0.001
281.00,0.001
282.00,0.001
283.00,0.001
284.00,0.000
285.00,0.000
286.00,0.001
287.00,0.000
288.00,0.000
289.00,-0.000
290.00,-0.001
291.00,-0.001
292.00,0.001
293.00,0.001
294.00,-0.001
295.00,0.001
296.00,-0.000
297.00,0.001
298.00,0.001
299.00,-0.001
300.00,0.003
301.00,0.004
302.00,0.003
303.00,0.006
304.00,0.007
305.00,0.011
306.00,0.019
307.00,0.028
308.00,0.041
309.00,0.069
310.00,0.092
311.00,0.126
312.00,0.167
313.00,0.232
314.00,0.306
315.00,0.397
316.00,0.507
317.00,0.633
318.00,0.785
319.00,0.928
320.00,1.159
321.00,1.387
322.00,1.647
323.00,1.935
324.00,2.232
325.00,2.543
326.00,2.874
327.00,3.239
328.00,3.602
329.00,3.985
330.00,4.405
331.00,4.814
332.00,5.218
333.00,5.649
334.00,6.062
335.00,6.469
336.00,6.882
337.00,7.330
338.00,7.713
339.00,8.098
340.00,8.501
341.00,8.874
342.00,9.216
343.00,9.545
344.00,9.922
345.00,10.209
346.00,10.451
347.00,10.754
348.00,10.988
349.00,11.235
350.00,11.482
351.00,11.652
352.00,11.860
353.00,12.048
354.00,12.196
355.00,12.338
356.00,12.513
357.00,12.601
358.00,12.722
359.00,12.871
360.00,12.982
361.00,13.061
362.00,13.154
363.00,13.242
364.00,13.230
365.00,13.242
366.00,13.330
367.00,13.320
368.00,13.344
369.00,13.379
370.00,13.377
371.00,13.378
372.00,13.332
373.00,13.363
374.00,13.365
375.00,13.304
376.00,13.267
377.00,13.227
378.00,13.139
379.00,13.100
380.00,13.046
381.00,13.042
382.00,13.007
383.00,12.983
384.00,12.968
385.00,12.980
386.00,12.968
387.00,12.974
388.00,12.999
389.00,12.962
390.00,12.971
391.00,12.953
392.00,12.974
393.00,12.924
394.00,12.924
395.00,12.927
396.00,12.903
397.00,12.913
398.00,12.894
399.00,12.876
400.00,12.875
401.00,12.857
402.00,12.865
403.00,12.889
404.00,12.853
405.00,12.846
406.00,12.845
407.00,12.811
408.00,12.818
409.00,12.747
410.00,12.738
411.00,12.756
412.00,12.726
413.00,12.719
414.00,12.704
415.00,12.727
416.00,12.726
417.00,12.753
418.00,12.783
419.00,12.800
420.00,12.827
421.00,12.793
422.00,12.833
423.00,12.892
424.00,12.890
425.00,12.922
426.00,12.951
427.00,12.988
428.00,13.023
429.00,13.048
430.00,13.114
431.00,13.153
432.00,13.189
433.00,13.244
434.00,13.286
435.00,13.343
436.00,13.402
437.00,13.473
438.00,13.540
439.00,13.583
440.00,13.651
441.00,13.724
442.00,13.791
443.00,13.885
444.00,13.959
445.00,14.043
446.00,14.124
447.00,14.226
448.00,14.310
449.00,14.395
450.00,14.527
451.00,14.573
452.00,14.711
453.00,14.816
454.00,14.875
455.00,14.986
456.00,15.105
457.00,15.223
458.00,15.311
459.00,15.428
460.00,15.563
461.00,15.672
462.00,15.793
463.00,15.929
464.00,16.033
465.00,16.160
466.00,16.286
467.00,16.419
468.00,16.530
469.00,16.654
470.00,16.778
471.00,16.871
472.00,17.001
473.00,17.108
474.00,17.239
475.00,17.343
476.00,17.463
477.00,17.588
478.00,17.732
479.00,17.900
480.00,18.028
481.00,18.175
482.00,18.324
483.00,18.461
484.00,18.636
485.00,18.780
486.00,18.925
487.00,19.084
488.00,19.247
489.00,19.377
490.00,19.547
491.00,19.691
492.00,19.829
493.00,20.049
494.00,20.191
495.00,20.223
496.00,20.329
497.00,20.548
498.00,20.687
499.00,20.830
500.00,20.979
501.00,21.097
502.00,21.256
503.00,21.392
504.00,21.482
505.00,21.649
506.00,21.770
507.00,21.890
508.00,22.012
509.00,22.211
510.00,22.341
511.00,22.424
512.00,22.632
513.00,22.759
514.00,22.920
515.00,23.018
516.00,23.119
517.00,23.269
518.00,23.390
519.00,23.504
520.00,23.569
521.00,23.705
522.00,23.782
523.00,23.866
524.00,23.984
525.00,24.117
526.00,24.233
527.00,24.320
528.00,24.413
529.00,24.590
530.00,24.720
531.00,24.856
532.00,24.960
533.00,25.127
534.00,25.145
535.00,25.258
536.00,25.366
537.00,25.442
538.00,25.538
539.00,25.624
540.00,25.690
541.00,25.820
542.00,25.936
543.00,25.946
544.00,26.033
545.00,26.105
546.00,26.189
547.00,26.331
548.00,26.370
549.00,26.451
550.00,26.526
551.00,26.646
552.00,26.727
553.00,26.758
554.00,26.850
555.00,26.913
556.00,27.005
557.00,27.081
558.00,27.124
559.00,27.211
560.00,27.265
561.00,27.361
562.00,27.409
563.00,27.445
564.00,27.524
565.00,27.559
566.00,27.620
567.00,27.665
568.00,27.707
569.00,27.804
570.00,27.810
571.00,27.868
572.00,27.933
573.00,27.960
574.00,27.996
575.00,28.042
576.00,28.063
577.00,28.143
578.00,28.251
579.00,28.290
580.00,28.333
581.00,28.432
582.00,28.552
583.00,28.601
584.00,28.642
585.00,28.723
586.00,28.805
587.00,28.840
588.00,28.922
589.00,28.874
590.00,29.014
591.00,29.058
592.00,29.027
593.00,29.133
594.00,29.222
595.00,29.211
596.00,29.348
597.00,29.418
598.00,29.481
599.00,29.542
600.00,29.667
601.00,29.650
602.00,29.669
603.00,29.704
604.00,29.743
605.00,29.780
606.00,29.894
607.00,29.941
608.00,29.995
609.00,30.113
610.00,30.259
611.00,30.123
612.00,30.196
613.00,30.286
614.00,30.328
615.00,30.443
616.00,30.555
617.00,30.547
618.00,30.587
619.00,30.711
620.00,30.769
621.00,30.838
622.00,30.972
623.00,31.013
624.00,31.067
625.00,31.183
626.00,31.299
627.00,31.322
628.00,31.360
629.00,31.437
630.00,31.482
631.00,31.619
632.00,31.732
633.00,31.840
634.00,31.966
635.00,32.089
636.00,32.162
637.00,32.201
638.00,32.244
639.00,32.430
640.00,32.554
641.00,32.585
642.00,32.573
643.00,32.770
644.00,32.899
645.00,32.976
646.00,33.144
647.00,33.242
648.00,33.322
649.00,33.426
650.00,33.476
651.00,33.687
652.00,33.730
653.00,33.822
654.00,33.929
655.00,34.156
656.00,34.419
657.00,34.500
658.00,34.546
659.00,34.615
660.00,34.752
661.00,34.803
662.00,34.865
663.00,35.055
664.00,35.321
665.00,35.515
666.00,35.504
667.00,35.613
668.00,35.723
669.00,35.948
670.00,36.191
671.00,36.112
672.00,36.303
673.00,36.380
674.00,36.565
675.00,36.697
676.00,36.954
677.00,37.125
678.00,36.951
679.00,37.264
680.00,37.406
681.00,37.606
682.00,37.734
683.00,37.795
684.00,37.975
685.00,38.049
686.00,37.978
687.00,38.178
688.00,38.462
689.00,38.617
690.00,38.835
691.00,39.078
692.00,38.907
693.00,38.981
694.00,39.316
695.00,39.559
696.00,39.663
697.00,39.651
698.00,39.786
699.00,40.042
700.00,40.122
701.00,40.235
702.00,40.474
703.00,40.669
704.00,40.652
705.00,40.694
706.00,40.911
707.00,41.005
708.00,40.910
709.00,41.392
710.00,41.789
711.00,41.404
712.00,41.589
713.00,41.810
714.00,41.971
715.00,41.971
716.00,41.998
717.00,42.273
718.00,42.543
719.00,42.532
720.00,42.630
721.00,47.016
722.00,47.051
723.00,47.064
724.00,47.193
725.00,47.325
726.00,47.334
727.00,47.399
728.00,47.496
729.00,47.556
730.00,47.737
731.00,47.765
732.00,47.838
733.00,47.919
734.00,48.034
735.00,48.096
736.00,48.120
737.00,48.270
738.00,48.349
739.00,48.366
740.00,48.471
741.00,48.574
742.00,48.645
743.00,48.688
744.00,48.710
745.00,48.843
746.00,48.843
747.00,48.834
748.00,49.028
749.00,49.047
750.00,49.036
751.00,49.083
752.00,49.165
753.00,49.219
754.00,49.233
755.00,49.283
756.00,49.307
757.00,49.481
758.00,49.511
759.00,49.571
760.00,49.633
761.00,49.602
762.00,49.664
763.00,49.712
764.00,49.795
765.00,49.821
766.00,49.899
767.00,49.981
768.00,49.977
769.00,49.975
770.00,50.084
771.00,50.056
772.00,50.151
773.00,50.083
774.00,50.194
775.00,50.325
776.00,50.291
777.00,50.403
778.00,50.409
779.00,50.429
780.00,50.431
781.00,50.485
782.00,50.486
783.00,50.499
784.00,50.586
785.00,50.499
786.00,50.613
787.00,50.514
788.00,50.616
789.00,50.597
790.00,50.568
791.00,50.782
792.00,50.613
793.00,50.739
794.00,50.661
795.00,50.637
796.00,50.725
797.00,50.694
798.00,50.739
799.00,50.678
800.00,50.746
801.00,50.723
802.00,50.812
803.00,50.785
804.00,50.735
805.00,50.831
806.00,50.794
807.00,50.754
808.00,50.880
809.00,50.818
810.00,50.871
811.00,50.825
812.00,50.889
813.00,50.813
814.00,50.848
815.00,50.776
816.00,50.862
817.00,50.812
818.00,50.805
819.00,50.764
820.00,50.817
821.00,50.837
822.00,50.887
823.00,50.765
824.00,50.848
825.00,50.796
826.00,50.841
827.00,50.840
828.00,50.826
829.00,50.784
830.00,50.875
831.00,52.982
832.00,52.960
833.00,52.928
834.00,52.988
835.00,52.936
836.00,52.931
837.00,52.920
838.00,52.958
839.00,52.926
840.00,52.883
841.00,52.910
842.00,52.874
843.00,52.882
844.00,52.886
845.00,52.832
846.00,52.853
847.00,52.827
848.00,52.844
849.00,52.790
850.00,52.765
851.00,52.739
852.00,52.762
853.00,52.715
854.00,52.723
855.00,52.666
856.00,52.662
857.00,52.660
858.00,52.597
859.00,52.631
860.00,52.619
861.00,52.621
862.00,52.580
863.00,52.606
864.00,52.582
865.00,52.610
866.00,52.592
867.00,52.589
868.00,52.586
869.00,52.573
870.00,52.575
871.00,52.577
872.00,52.575
873.00,52.553
874.00,52.558
875.00,52.534
876.00,52.545
877.00,52.531
878.00,52.530
879.00,52.513
880.00,52.506
881.00,52.473
882.00,52.527
883.00,52.473
884.00,52.438
885.00,52.431
886.00,52.458
887.00,52.412
888.00,52.401
889.00,52.394
890.00,52.392
891.00,52.369
892.00,52.352
893.00,52.326
894.00,52.341
895.00,52.308
896.00,52.274
897.00,52.282
898.00,52.235
899.00,52.239
900.00,52.230
901.00,52.231
902.00,52.219
903.00,52.203
904.00,52.192
905.00,52.169
906.00,52.172
907.00,52.137
908.00,52.131
909.00,52.132
910.00,52.098
911.00,52.095
912.00,52.099
913.00,52.047
914.00,52.056
915.00,52.026
916.00,51.997
917.00,51.998
918.00,51.980
919.00,51.954
920.00,51.918
921.00,51.919
922.00,51.902
923.00,51.880
924.00,51.849
925.00,51.890
926.00,51.838
927.00,51.827
928.00,51.790
929.00,51.811
930.00,51.761
931.00,51.780
932.00,51.741
933.00,51.740
934.00,51.718
935.00,51.703
936.00,51.670
937.00,51.654
938.00,51.617
939.00,51.657
940.00,51.608
941.00,51.612
942.00,51.615
943.00,51.563
944.00,51.475
945.00,51.572
946.00,51.531
947.00,51.509
948.00,51.488
949.00,51.476
950.00,51.462
951.00,51.445
952.00,51.446
953.00,51.386
954.00,51.365
955.00,51.406
956.00,51.326
957.00,51.301
958.00,51.301
959.00,51.208
960.00,51.248
961.00,51.237
962.00,51.236
963.00,51.190
964.00,51.188
965.00,51.188
966.00,51.167
967.00,51.179
968.00,51.141
969.00,51.184
970.00,51.133
971.00,51.147
972.00,51.146
973.00,51.175
974.00,51.207
975.00,51.158
976.00,51.165
977.00,51.169
978.00,51.226
979.00,51.162
980.00,51.186
981.00,51.183
982.00,51.145
983.00,51.168
984.00,51.136
985.00,51.139
986.00,51.131
987.00,51.105
988.00,51.102
989.00,51.088
990.00,51.093
991.00,51.061
992.00,51.076
993.00,51.042
994.00,51.027
995.00,51.019
996.00,51.016
997.00,51.027
998.00,50.988
999.00,51.006
1000.00,50.970
1001.00,50.945
1002.00,50.957
1003.00,50.961
1004.00,50.918
1005.00,50.892
1006.00,50.979
1007.00,50.895
1008.00,50.902
1009.00,50.870
1010.00,50.862
1011.00,50.863
1012.00,50.814
1013.00,50.828
1014.00,50.786
1015.00,50.790
1016.00,50.757
1017.00,50.746
1018.00,50.731
1019.00,50.713
1020.00,50.707
1021.00,50.694
1022.00,50.690
1023.00,50.645
1024.00,50.660
1025.00,50.638
1026.00,50.612
1027.00,50.603
1028.00,50.591
1029.00,50.575
1030.00,50.559
1031.00,50.549
1032.00,50.509
1033.00,50.509
1034.00,50.485
1035.00,50.462
1036.00,50.432
1037.00,50.421
1038.00,50.409
1039.00,50.368
1040.00,50.365
1041.00,50.334
1042.00,50.335
1043.00,50.309
1044.00,50.351
1045.00,50.324
1046.00,50.312
1047.00,50.345
1048.00,50.355
1049.00,50.373
1050.00,50.355
1051.00,50.396
1052.00,50.403
1053.00,50.394
1054.00,50.394
1055.00,50.419
1056.00,50.422
1057.00,50.432
1058.00,50.417
1059.00,50.400
1060.00,50.419
1061.00,50.398
1062.00,50.396
1063.00,50.391
1064.00,50.373
1065.00,50.369
1066.00,50.367
1067.00,50.357
1068.00,50.393
1069.00,50.333
1070.00,50.305
1071.00,50.301
1072.00,50.307
1073.00,50.280
1074.00,50.283
1075.00,50.261
1076.00,50.262
1077.00,50.249
1078.00,50.209
1079.00,50.220
1080.00,50.226
1081.00,50.206
1082.00,50.211
1083.00,50.191
1084.00,50.181
1085.00,50.192
1086.00,50.175
1087.00,50.182
1088.00,50.162
1089.00,50.147
1090.00,50.147
1091.00,50.150
1092.00,50.129
1093.00,50.126
1094.00,50.114
1095.00,50.103
1096.00,50.103
1097.00,50.089
1098.00,50.085
1099.00,50.077
1100.00,50.053
1101.00,50.056
1102.00,50.030
1103.00,50.025
1104.00,50.023
1105.00,50.014
1106.00,49.998
1107.00,50.015
1108.00,49.995
1109.00,49.986
1110.00,49.989
1111.00,49.967
1112.00,49.962
1113.00,49.944
1114.00,49.927
1115.00,49.942
1116.00,49.913
1117.00,49.891
1118.00,49.896
1119.00,49.889
1120.00,49.896
1121.00,49.894
1122.00,49.871
1123.00,49.876
1124.00,49.859
1125.00,49.843
1126.00,49.844
1127.00,49.850
1128.00,49.834
1129.00,49.834
1130.00,49.810
1131.00,49.816
1132.00,49.806
1133.00,49.805
1134.00,49.800
1135.00,49.770
1136.00,49.774
1137.00,49.788
1138.00,49.775
1139.00,49.774
1140.00,49.780
1141.00,49.744
1142.00,49.746
1143.00,49.774
1144.00,49.721
1145.00,49.728
1146.00,49.719
1147.00,49.712
1148.00,49.717
1149.00,49.713
1150.00,49.705
1151.00,49.722
1152.00,49.704
1153.00,49.696
1154.00,49.698
1155.00,49.694
1156.00,49.683
1157.00,49.693
1158.00,49.681
1159.00,49.678
1160.00,49.669
1161.00,49.687
1162.00,49.683
1163.00,49.668
1164.00,49.681
1165.00,49.676
1166.00,49.673
1167.00,49.667
1168.00,49.672
1169.00,49.650
1170.00,49.657
1171.00,49.633
1172.00,49.647
1173.00,49.654
1174.00,49.638
1175.00,49.640
1176.00,49.642
1177.00,49.617
1178.00,49.642
1179.00,49.646
1180.00,49.633
1181.00,49.655
1182.00,49.634
1183.00,49.619
1184.00,49.608
1185.00,49.611
1186.00,49.605
1187.00,49.608
1188.00,49.599
1189.00,49.621
1190.00,49.592
1191.00,49.571
1192.00,49.600
1193.00,49.588
1194.00,49.594
1195.00,49.586
1196.00,49.604
1197.00,49.599
1198.00,49.586
1199.00,49.587
1200.00,49.604
1201.00,49.608
1202.00,49.580
1203.00,49.585
1204.00,49.577
1205.00,49.590
1206.00,49.593
1207.00,49.588
1208.00,49.574
1209.00,49.579
1210.00,49.572
1211.00,49.584
1212.00,49.587
1213.00,49.547
1214.00,49.583
1215.00,49.550
1216.00,49.560
1217.00,49.573
1218.00,49.542
1219.00,49.560
1220.00,49.550
1221.00,49.560
1222.00,49.558
1223.00,49.578
1224.00,49.564
1225.00,49.550
1226.00,49.552
1227.00,49.540
1228.00,49.574
1229.00,49.562
1230.00,49.593
1231.00,49.590
1232.00,49.589
1233.00,49.607
1234.00,49.605
1235.00,49.587
1236.00,49.601
1237.00,49.613
1238.00,49.606
1239.00,49.625
1240.00,49.599
1241.00,49.603
1242.00,49.614
1243.00,49.608
1244.00,49.604
1245.00,49.616
1246.00,49.610
1247.00,49.621
1248.00,49.604
1249.00,49.631
1250.00,49.661
1251.00,49.612
1252.00,49.630
1253.00,49.617
1254.00,49.643
1255.00,49.632
1256.00,49.608
1257.00,49.581
1258.00,49.634
1259.00,49.626
1260.00,49.636
1261.00,49.657
1262.00,49.685
1263.00,49.673
1264.00,49.651
1265.00,49.651
1266.00,49.644
1267.00,49.654
1268.00,49.652
1269.00,49.664
1270.00,49.672
1271.00,49.673
1272.00,49.704
1273.00,49.704
1274.00,49.721
1275.00,49.731
1276.00,49.698
1277.00,49.718
1278.00,49.712
1279.00,49.711
1280.00,49.705
1281.00,49.712
1282.00,49.716
1283.00,49.736
1284.00,49.731
1285.00,49.709
1286.00,49.733
1287.00,49.713
1288.00,49.720
1289.00,49.716
1290.00,49.734
1291.00,49.744
1292.00,49.760
1293.00,49.757
1294.00,49.797
1295.00,49.786
1296.00,49.783
1297.00,49.798
1298.00,49.818
1299.00,49.785
1300.00,49.807
1301.00,49.789
1302.00,49.814
1303.00,49.815
1304.00,49.794
1305.00,49.833
1306.00,49.832
1307.00,49.846
1308.00,49.847
1309.00,49.840
1310.00,49.856
1311.00,49.822
1312.00,49.819
1313.00,49.845
1314.00,49.857
1315.00,49.869
1316.00,49.874
1317.00,49.899
1318.00,49.896
1319.00,49.900
1320.00,49.904
1321.00,50.073
1322.00,50.076
1323.00,50.053
1324.00,50.046
1325.00,50.048
1326.00,50.060
1327.00,50.048
1328.00,50.047
1329.00,50.047
1330.00,50.057
1331.00,50.050
1332.00,50.042
1333.00,50.056
1334.00,50.065
1335.00,50.090
1336.00,50.113
1337.00,50.148
1338.00,50.231
1339.00,50.254
1340.00,50.296
1341.00,50.375
1342.00,50.425
1343.00,50.471
1344.00,50.521
1345.00,50.578
1346.00,50.617
1347.00,50.633
1348.00,50.648
1349.00,50.680
1350.00,50.687
1351.00,50.687
1352.00,50.695
1353.00,50.734
1354.00,50.729
1355.00,50.833
1356.00,50.732
1357.00,50.728
1358.00,50.752
1359.00,50.728
1360.00,50.771
1361.00,50.775
1362.00,50.708
1363.00,50.804
1364.00,50.791
1365.00,50.741
1366.00,50.750
1367.00,50.740
1368.00,50.742
1369.00,50.712
1370.00,50.738
1371.00,50.708
1372.00,50.722
1373.00,50.720
1374.00,50.748
1375.00,50.717
1376.00,50.714
1377.00,50.700
1378.00,50.736
1379.00,50.722
1380.00,50.719
1381.00,50.739
1382.00,50.698
1383.00,50.686
1384.00,50.646
1385.00,50.657
1386.00,50.710
1387.00,50.691
1388.00,50.664
1389.00,50.630
1390.00,50.685
1391.00,50.718
1392.00,50.650
1393.00,50.676
1394.00,50.701
1395.00,50.666
1396.00,50.637
1397.00,50.634
1398.00,50.698
1399.00,50.709
1400.00,50.761
1401.00,50.674
1402.00,50.726
1403.00,50.705
1404.00,50.699
1405.00,50.730
1406.00,50.745
1407.00,50.748
1408.00,50.760
1409.00,50.717
1410.00,50.757
1411.00,50.730
1412.00,50.763
1413.00,50.766
1414.00,50.754
1415.00,50.808
1416.00,50.867
1417.00,50.834
1418.00,50.823
1419.00,50.818
1420.00,50.829
1421.00,50.878
1422.00,50.878
1423.00,50.899
1424.00,50.895
1425.00,50.893
1426.00,50.940
1427.00,50.953
1428.00,50.936
1429.00,50.971
1430.00,50.954
1431.00,50.965
1432.00,50.993
1433.00,51.013
1434.00,50.999
1435.00,51.039
1436.00,51.062
1437.00,51.055
1438.00,51.060
1439.00,51.072
1440.00,51.084
1441.00,51.091
1442.00,51.108
1443.00,51.152
1444.00,51.165
1445.00,51.147
1446.00,51.203
1447.00,51.198
1448.00,51.248
1449.00,51.240
1450.00,51.243
1451.00,51.255
1452.00,51.276
1453.00,51.276
1454.00,51.307
1455.00,51.316
1456.00,51.342
1457.00,51.333
1458.00,51.352
1459.00,51.390
1460.00,51.404
1461.00,51.378
1462.00,51.429
1463.00,51.427
1464.00,51.434
1465.00,51.455
1466.00,51.447
1467.00,51.486
1468.00,51.518
1469.00,51.486
1470.00,51.512
1471.00,51.525
1472.00,51.527
1473.00,51.558
1474.00,51.573
1475.00,51.578
1476.00,51.626
1477.00,51.598
1478.00,51.633
1479.00,51.655
1480.00,51.619
1481.00,51.640
1482.00,51.675
1483.00,51.670
1484.00,51.694
1485.00,51.700
1486.00,51.699
1487.00,51.731
1488.00,51.742
1489.00,51.757
1490.00,51.768
1491.00,51.765
1492.00,51.805
1493.00,51.782
1494.00,51.813
1495.00,51.805
1496.00,51.818
1497.00,51.814
1498.00,51.836
1499.00,51.853
1500.00,51.889
1501.00, 
1502.00, 
1503.00, 
1504.00, 
1505.00, 
1506.00, 
1507.00, 
1508.00, 
1509.00, 
1510.00, 
1511.00, 
1512.00, 
1513.00, 
1514.00, 
1515.00, 
1516.00, 
1517.00, 
1518.00, 
1519.00, 
1520.00, 
1521.00, 
1522.00, 
1523.00, 
1524.00, 
1525.00, 
1526.00, 
1527.00, 
1528.00, 
1529.00, 
1530.00, 
1531.00, 
1532.00, 
1533.00, 
1534.00, 
1535.00, 
1536.00, 
1537.00, 
1538.00, 
1539.00, 
1540.00, 
1541.00, 
1542.00, 
1543.00, 
1544.00, 
1545.00, 
1546.00, 
1547.00, 
1548.00, 
1549.00, 
1550.00, 
1551.00, 
1552.00, 
1553.00, 
1554.00, 
1555.00, 
1556.00, 
1557.00, 
1558.00, 
1559.00, 
1560.00, 
1561.00, 
1562.00, 
1563.00, 
1564.00, 
1565.00, 
1566.00, 
1567.00, 
1568.00, 
1569.00, 
1570.00, 
1571.00, 
1572.00, 
1573.00, 
1574.00, 
1575.00, 
1576.00, 
1577.00, 
1578.00, 
1579.00, 
1580.00, 
1581.00, 
1582.00, 
1583.00, 
1584.00, 
1585.00, 
1586.00, 
1587.00, 
1588.00, 
1589.00, 
1590.00, 
1591.00, 
1592.00, 
1593.00, 
1594.00, 
1595.00, 
1596.00, 
1597.00, 
1598.00, 
1599.00, 
1600.00, 
1601.00, 
1602.00, 
1603.00, 
1604.00, 
1605.00, 
1606.00, 
1607.00, 
1608.00, 
1609.00, 
1610.00, 
1611.00, 
1612.00, 
1613.00, 
1614.00, 
1615.00, 
1616.00, 
1617.00, 
1618.00, 
1619.00, 
1620.00, 
1621.00, 
1622.00, 
1623.00, 
1624.00, 
1625.00, 
1626.00, 
1627.00, 
1628.00, 
1629.00, 
1630.00, 
1631.00, 
1632.00, 
1633.00, 
1634.00, 
1635.00, 
1636.00, 
1637.00, 
1638.00, 
1639.00, 
1640.00, 
1641.00, 
1642.00, 
1643.00, 
1644.00, 
1645.00, 
1646.00, 
1647.00, 
1648.00, 
1649.00, 
1650.00, 
1651.00, 
1652.00, 
1653.00, 
1654.00, 
1655.00, 
1656.00, 
1657.00, 
1658.00, 
1659.00, 
1660.00, 
1661.00, 
1662.00, 
1663.00, 
1664.00, 
1665.00, 
1666.00, 
1667.00, 
1668.00, 
1669.00, 
1670.00, 
1671.00, 
1672.00, 
1673.00, 
1674.00, 
1675.00, 
1676.00, 
1677.00, 
1678.00, 
1679.00, 
1680.00, 
1681.00, 
1682.00, 
1683.00, 
1684.00, 
1685.00, 
1686.00, 
1687.00, 
1688.00, 
1689.00, 
1690.00, 
1691.00, 
1692.00, 
1693.00, 
1694.00, 
1695.00, 
1696.00, 
1697.00, 
1698.00, 
1699.00, 
1700.00, 
1701.00, 
1702.00, 
1703.00, 
1704.00, 
1705.00, 
1706.00, 
1707.00, 
1708.00, 
1709.00, 
1710.00, 
1711.00, 
1712.00, 
1713.00, 
1714.00, 
1715.00, 
1716.00, 
1717.00, 
1718.00, 
1719.00, 
1720.00, 
1721.00, 
1722.00, 
1723.00, 
1724.00, 
1725.00, 
1726.00, 
1727.00, 
1728.00, 
1729.00, 
1730.00, 
1731.00, 
1732.00, 
1733.00, 
1734.00, 
1735.00, 
1736.00, 
1737.00, 
1738.00, 
1739.00, 
1740.00, 
1741.00, 
1742.00, 
1743.00, 
1744.00, 
1745.00, 
1746.00, 
1747.00, 
1748.00, 
1749.00, 
1750.00, 
1751.00, 
1752.00, 
1753.00, 
1754.00, 
1755.00, 
1756.00, 
1757.00, 
1758.00, 
1759.00, 
1760.00, 
1761.00, 
1762.00, 
1763.00, 
1764.00, 
1765.00, 
1766.00, 
1767.00, 
1768.00, 
1769.00, 
1770.00, 
1771.00, 
1772.00, 
1773.00, 
1774.00, 
1775.00, 
1776.00, 
1777.00, 
1778.00, 
1779.00, 
1780.00, 
1781.00, 
1782.00, 
1783.00, 
1784.00, 
1785.00, 
1786.00, 
1787.00, 
1788.00, 
1789.00, 
1790.00, 
1791.00, 
1792.00, 
1793.00, 
1794.00, 
1795.00, 
1796.00, 
1797.00, 
1798.00, 
1799.00, 
1800.00, 
1801.00, 
1802.00, 
1803.00, 
1804.00, 
1805.00, 
1806.00, 
1807.00, 
1808.00, 
1809.00, 
1810.00, 
1811.00, 
1812.00, 
1813.00, 
1814.00, 
1815.00, 
1816.00, 
1817.00, 
1818.00, 
1819.00, 
1820.00, 
1821.00, 
1822.00, 
1823.00, 
1824.00, 
1825.00, 
1826.00, 
1827.00, 
1828.00, 
1829.00, 
1830.00, 
1831.00, 
1832.00, 
1833.00, 
1834.00, 
1835.00, 
1836.00, 
1837.00, 
1838.00, 
1839.00, 
1840.00, 
1841.00, 
1842.00, 
1843.00, 
1844.00, 
1845.00, 
1846.00, 
1847.00, 
1848.00, 
1849.00, 
1850.00, 
1851.00, 
1852.00, 
1853.00, 
1854.00, 
1855.00, 
1856.00, 
1857.00, 
1858.00, 
1859.00, 
1860.00, 
1861.00, 
1862.00, 
1863.00, 
1864.00, 
1865.00, 
1866.00, 
1867.00, 
1868.00, 
1869.00, 
1870.00, 
1871.00, 
1872.00, 
1873.00, 
1874.00, 
1875.00, 
1876.00, 
1877.00, 
1878.00, 
1879.00, 
1880.00, 
1881.00, 
1882.00, 
1883.00, 
1884.00, 
1885.00, 
1886.00, 
1887.00, 
1888.00, 
1889.00, 
1890.00, 
1891.00, 
1892.00, 
1893.00, 
1894.00, 
1895.00, 
1896.00, 
1897.00, 
1898.00, 
1899.00, 
1900.00, 
1901.00, 
1902.00, 
1903.00, 
1904.00, 
1905.00, 
1906.00, 
1907.00, 
1908.00, 
1909.00, 
1910.00, 
1911.00, 
1912.00, 
1913.00, 
1914.00, 
1915.00, 
1916.00, 
1917.00, 
1918.00, 
1919.00, 
1920.00, 
1921.00, 
1922.00, 
1923.00, 
1924.00, 
1925.00, 
1926.00, 
1927.00, 
1928.00, 
1929.00, 
1930.00, 
1931.00, 
1932.00, 
1933.00, 
1934.00, 
1935.00, 
1936.00, 
1937.00, 
1938.00, 
1939.00, 
1940.00, 
1941.00, 
1942.00, 
1943.00, 
1944.00, 
1945.00, 
1946.00, 
1947.00, 
1948.00, 
1949.00, 
1950.00, 
1951.00, 
1952.00, 
1953.00, 
1954.00, 
1955.00, 
1956.00, 
1957.00, 
1958.00, 
1959.00, 
1960.00, 
1961.00, 
1962.00, 
1963.00, 
1964.00, 
1965.00, 
1966.00, 
1967.00, 
1968.00, 
1969.00, 
1970.00, 
1971.00, 
1972.00, 
1973.00, 
1974.00, 
1975.00, 
1976.00, 
1977.00, 
1978.00, 
1979.00, 
1980.00, 
1981.00, 
1982.00, 
1983.00, 
1984.00, 
1985.00, 
1986.00, 
1987.00, 
1988.00, 
1989.00, 
1990.00, 
1991.00, 
1992.00, 
1993.00, 
1994.00, 
1995.00, 
1996.00, 
1997.00, 
1998.00, 
1999.00, 
2000.00, 
2001.00, 
2002.00, 
2003.00, 
2004.00, 
2005.00, 
2006.00, 
2007.00, 
2008.00, 
2009.00, 
2010.00, 
2011.00, 
2012.00, 
2013.00, 
2014.00, 
2015.00, 
2016.00, 
2017.00, 
2018.00, 
2019.00, 
2020.00, 
2021.00, 
2022.00, 
2023.00, 
2024.00, 
2025.00, 
2026.00, 
2027.00, 
2028.00, 
2029.00, 
2030.00, 
2031.00, 
2032.00, 
2033.00, 
2034.00, 
2035.00, 
2036.00, 
2037.00, 
2038.00, 
2039.00, 
2040.00, 
2041.00, 
2042.00, 
2043.00, 
2044.00, 
2045.00, 
2046.00, 
2047.00, 
2048.00, 
2049.00, 
2050.00, 
2051.00, 
2052.00, 
2053.00, 
2054.00, 
2055.00, 
2056.00, 
2057.00, 
2058.00, 
2059.00, 
2060.00, 
2061.00, 
2062.00, 
2063.00, 
2064.00, 
2065.00, 
2066.00, 
2067.00, 
2068.00, 
2069.00, 
2070.00, 
2071.00, 
2072.00, 
2073.00, 
2074.00, 
2075.00, 
2076.00, 
2077.00, 
2078.00, 
2079.00, 
2080.00, 
2081.00, 
2082.00, 
2083.00, 
2084.00, 
2085.00, 
2086.00, 
2087.00, 
2088.00, 
2089.00, 
2090.00, 
2091.00, 
2092.00, 
2093.00, 
2094.00, 
2095.00, 
2096.00, 
2097.00, 
2098.00, 
2099.00, 
2100.00, 
2101.00, 
2102.00, 
2103.00, 
2104.00, 
2105.00, 
2106.00, 
2107.00, 
2108.00, 
2109.00, 
2110.00, 
2111.00, 
2112.00, 
2113.00, 
2114.00, 
2115.00, 
2116.00, 
2117.00, 
2118.00, 
2119.00, 
2120.00, 
2121.00, 
2122.00, 
2123.00, 
2124.00, 
2125.00, 
2126.00, 
2127.00, 
2128.00, 
2129.00, 
2130.00, 
2131.00, 
2132.00, 
2133.00, 
2134.00, 
2135.00, 
2136.00, 
2137.00, 
2138.00, 
2139.00, 
2140.00, 
2141.00, 
2142.00, 
2143.00, 
2144.00, 
2145.00, 
2146.00, 
2147.00, 
2148.00, 
2149.00, 
2150.00, 
2151.00, 
2152.00, 
2153.00, 
2154.00, 
2155.00, 
2156.00, 
2157.00, 
2158.00, 
2159.00, 
2160.00, 
2161.00, 
2162.00, 
2163.00, 
2164.00, 
2165.00, 
2166.00, 
2167.00, 
2168.00, 
2169.00, 
2170.00, 
2171.00, 
2172.00, 
2173.00, 
2174.00, 
2175.00, 
2176.00, 
2177.00, 
2178.00, 
2179.00, 
2180.00, 
2181.00, 
2182.00, 
2183.00, 
2184.00, 
2185.00, 
2186.00, 
2187.00, 
2188.00, 
2189.00, 
2190.00, 
2191.00, 
2192.00, 
2193.00, 
2194.00, 
2195.00, 
2196.00, 
2197.00, 
2198.00, 
2199.00, 
2200.00, 
2201.00, 
2202.00, 
2203.00, 
2204.00, 
2205.00, 
2206.00, 
2207.00, 
2208.00, 
2209.00, 
2210.00, 
2211.00, 
2212.00, 
2213.00, 
2214.00, 
2215.00, 
2216.00, 
2217.00, 
2218.00, 
2219.00, 
2220.00, 
2221.00, 
2222.00, 
2223.00, 
2224.00, 
2225.00, 
2226.00, 
2227.00, 
2228.00, 
2229.00, 
2230.00, 
2231.00, 
2232.00, 
2233.00, 
2234.00, 
2235.00, 
2236.00, 
2237.00, 
2238.00, 
2239.00, 
2240.00, 
2241.00, 
2242.00, 
2243.00, 
2244.00, 
2245.00, 
2246.00, 
2247.00, 
2248.00, 
2249.00, 
2250.00, 
2251.00, 
2252.00, 
2253.00, 
2254.00, 
2255.00, 
2256.00, 
2257.00, 
2258.00, 
2259.00, 
2260.00, 
2261.00, 
2262.00, 
2263.00, 
2264.00, 
2265.00, 
2266.00, 
2267.00, 
2268.00, 
2269.00, 
2270.00, 
2271.00, 
2272.00, 
2273.00, 
2274.00, 
2275.00, 
2276.00, 
2277.00, 
2278.00, 
2279.00, 
2280.00, 
2281.00, 
2282.00, 
2283.00, 
2284.00, 
2285.00, 
2286.00, 
2287.00, 
2288.00, 
2289.00, 
2290.00, 
2291.00, 
2292.00, 
2293.00, 
2294.00, 
2295.00, 
2296.00, 
2297.00, 
2298.00, 
2299.00, 
2300.00, 
2301.00, 
2302.00, 
2303.00, 
2304.00, 
2305.00, 
2306.00, 
2307.00, 
2308.00, 
2309.00, 
2310.00, 
2311.00, 
2312.00, 
2313.00, 
2314.00, 
2315.00, 
2316.00, 
2317.00, 
2318.00, 
2319.00, 
2320.00, 
2321.00, 
2322.00, 
2323.00, 
2324.00, 
2325.00, 
2326.00, 
2327.00, 
2328.00, 
2329.00, 
2330.00, 
2331.00, 
2332.00, 
2333.00, 
2334.00, 
2335.00, 
2336.00, 
2337.00, 
2338.00, 
2339.00, 
2340.00, 
2341.00, 
2342.00, 
2343.00, 
2344.00, 
2345.00, 
2346.00, 
2347.00, 
2348.00, 
2349.00, 
2350.00, 
2351.00, 
2352.00, 
2353.00, 
2354.00, 
2355.00, 
2356.00, 
2357.00, 
2358.00, 
2359.00, 
2360.00, 
2361.00, 
2362.00, 
2363.00, 
2364.00, 
2365.00, 
2366.00, 
2367.00, 
2368.00, 
2369.00, 
2370.00, 
2371.00, 
2372.00, 
2373.00, 
2374.00, 
2375.00, 
2376.00, 
2377.00, 
2378.00, 
2379.00, 
2380.00, 
2381.00, 
2382.00, 
2383.00, 
2384.00, 
2385.00, 
2386.00, 
2387.00, 
2388.00, 
2389.00, 
2390.00, 
2391.00, 
2392.00, 
2393.00, 
2394.00, 
2395.00, 
2396.00, 
2397.00, 
2398.00, 
2399.00, 
2400.00, 
2401.00, 
2402.00, 
2403.00, 
2404.00, 
2405.00, 
2406.00, 
2407.00, 
2408.00, 
2409.00, 
2410.00, 
2411.00, 
2412.00, 
2413.00, 
2414.00, 
2415.00, 
2416.00, 
2417.00, 
2418.00, 
2419.00, 
2420.00, 
2421.00, 
2422.00, 
2423.00, 
2424.00, 
2425.00, 
2426.00, 
2427.00, 
2428.00, 
2429.00, 
2430.00, 
2431.00, 
2432.00, 
2433.00, 
2434.00, 
2435.00, 
2436.00, 
2437.00, 
2438.00, 
2439.00, 
2440.00, 
2441.00, 
2442.00, 
2443.00, 
2444.00, 
2445.00, 
2446.00, 
2447.00, 
2448.00, 
2449.00, 
2450.00, 
2451.00, 
2452.00, 
2453.00, 
2454.00, 
2455.00, 
2456.00, 
2457.00, 
2458.00, 
2459.00, 
2460.00, 
2461.00, 
2462.00, 
2463.00, 
2464.00, 
2465.00, 
2466.00, 
2467.00, 
2468.00, 
2469.00, 
2470.00, 
2471.00, 
2472.00, 
2473.00, 
2474.00, 
2475.00, 
2476.00, 
2477.00, 
2478.00, 
2479.00, 
2480.00, 
2481.00, 
2482.00, 
2483.00, 
2484.00, 
2485.00, 
2486.00, 
2487.00, 
2488.00, 
2489.00, 
2490.00, 
2491.00, 
2492.00, 
2493.00, 
2494.00, 
2495.00, 
2496.00, 
2497.00, 
2498.00, 
2499.00, 
2500.00, 
2501.00, 
2502.00, 
2503.00, 
2504.00, 
2505.00, 
2506.00, 
2507.00, 
2508.00, 
2509.00, 
2510.00, 
2511.00, 
2512.00, 
2513.00, 
2514.00, 
2515.00, 
2516.00, 
2517.00, 
2518.00, 
2519.00, 
2520.00, 
2521.00, 
2522.00, 
2523.00, 
2524.00, 
2525.00, 
2526.00, 
2527.00, 
2528.00, 
2529.00, 
2530.00, 
2531.00, 
2532.00, 
2533.00, 
2534.00, 
2535.00, 
2536.00, 
2537.00, 
2538.00, 
2539.00, 
2540.00, 
2541.00, 
2542.00, 
2543.00, 
2544.00, 
2545.00, 
2546.00, 
2547.00, 
2548.00, 
2549.00, 
2550.00, 
2551.00, 
2552.00, 
2553.00, 
2554.00, 
2555.00, 
2556.00, 
2557.00, 
2558.00, 
2559.00, 
2560.00, 
2561.00, 
2562.00, 
2563.00, 
2564.00, 
2565.00, 
2566.00, 
2567.00, 
2568.00, 
2569.00, 
2570.00, 
2571.00, 
2572.00, 
2573.00, 
2574.00, 
2575.00, 
2576.00, 
2577.00, 
2578.00, 
2579.00, 
2580.00, 
2581.00, 
2582.00, 
2583.00, 
2584.00, 
2585.00, 
2586.00, 
2587.00, 
2588.00, 
2589.00, 
2590.00, 
2591.00, 
2592.00, 
2593.00, 
2594.00, 
2595.00, 
2596.00, 
2597.00, 
2598.00, 
2599.00, 
2600.00, 
