"1aP2 - RawData"
"Wavelength nm.","T%"
200.00,0.000
201.00,0.002
202.00,0.001
203.00,0.003
204.00,0.004
205.00,0.000
206.00,0.001
207.00,-0.002
208.00,0.001
209.00,0.001
210.00,0.003
211.00,-0.000
212.00,0.002
213.00,0.000
214.00,0.001
215.00,-0.001
216.00,0.002
217.00,0.004
218.00,0.002
219.00,0.000
220.00,0.001
221.00,0.000
222.00,0.003
223.00,0.002
224.00,0.002
225.00,0.004
226.00,0.002
227.00,0.003
228.00,0.001
229.00,-0.000
230.00,0.000
231.00,-0.001
232.00,-0.002
233.00,0.002
234.00,0.001
235.00,-0.001
236.00,0.001
237.00,0.001
238.00,0.001
239.00,0.001
240.00,0.000
241.00,0.000
242.00,-0.001
243.00,-0.001
244.00,0.001
245.00,0.001
246.00,-0.001
247.00,-0.000
248.00,0.000
249.00,-0.001
250.00,0.001
251.00,0.001
252.00,0.002
253.00,0.001
254.00,-0.000
255.00,-0.001
256.00,-0.000
257.00,-0.000
258.00,-0.000
259.00,0.002
260.00,-0.001
261.00,0.002
262.00,-0.001
263.00,0.001
264.00,0.000
265.00,-0.000
266.00,0.002
267.00,-0.000
268.00,0.001
269.00,0.001
270.00,0.001
271.00,-0.001
272.00,-0.000
273.00,0.001
274.00,0.000
275.00,0.002
276.00,0.001
277.00,-0.002
278.00,-0.000
279.00,0.001
280.00,-0.000
281.00,-0.000
282.00,0.000
283.00,0.000
284.00,0.001
285.00,0.000
286.00,0.000
287.00,0.001
288.00,0.001
289.00,-0.000
290.00,0.002
291.00,-0.000
292.00,-0.000
293.00,0.001
294.00,0.000
295.00,0.001
296.00,0.000
297.00,0.000
298.00,0.001
299.00,0.003
300.00,0.002
301.00,0.005
302.00,0.007
303.00,0.012
304.00,0.016
305.00,0.028
306.00,0.042
307.00,0.065
308.00,0.097
309.00,0.155
310.00,0.211
311.00,0.286
312.00,0.385
313.00,0.527
314.00,0.679
315.00,0.867
316.00,1.098
317.00,1.392
318.00,1.700
319.00,2.069
320.00,2.497
321.00,2.958
322.00,3.467
323.00,4.033
324.00,4.663
325.00,5.252
326.00,5.891
327.00,6.594
328.00,7.308
329.00,8.038
330.00,8.774
331.00,9.500
332.00,10.279
333.00,11.123
334.00,11.823
335.00,12.595
336.00,13.315
337.00,14.108
338.00,14.820
339.00,15.509
340.00,16.149
341.00,16.850
342.00,17.447
343.00,18.018
344.00,18.660
345.00,19.154
346.00,19.629
347.00,20.085
348.00,20.512
349.00,20.937
350.00,21.305
351.00,21.677
352.00,21.972
353.00,22.287
354.00,22.590
355.00,22.906
356.00,23.125
357.00,23.298
358.00,23.541
359.00,23.802
360.00,23.981
361.00,24.044
362.00,24.266
363.00,24.422
364.00,24.498
365.00,24.585
366.00,24.671
367.00,24.680
368.00,24.772
369.00,24.792
370.00,24.857
371.00,24.919
372.00,24.773
373.00,24.846
374.00,24.839
375.00,24.767
376.00,24.690
377.00,24.683
378.00,24.548
379.00,24.474
380.00,24.472
381.00,24.432
382.00,24.435
383.00,24.443
384.00,24.444
385.00,24.486
386.00,24.486
387.00,24.582
388.00,24.600
389.00,24.602
390.00,24.592
391.00,24.630
392.00,24.643
393.00,24.662
394.00,24.664
395.00,24.724
396.00,24.654
397.00,24.638
398.00,24.655
399.00,24.673
400.00,24.713
401.00,24.653
402.00,24.647
403.00,24.659
404.00,24.607
405.00,24.597
406.00,24.594
407.00,24.527
408.00,24.566
409.00,24.484
410.00,24.416
411.00,24.465
412.00,24.409
413.00,24.402
414.00,24.392
415.00,24.401
416.00,24.437
417.00,24.417
418.00,24.492
419.00,24.568
420.00,24.641
421.00,24.589
422.00,24.605
423.00,24.681
424.00,24.672
425.00,24.744
426.00,24.742
427.00,24.795
428.00,24.872
429.00,24.891
430.00,24.974
431.00,25.046
432.00,25.113
433.00,25.103
434.00,25.182
435.00,25.264
436.00,25.299
437.00,25.382
438.00,25.420
439.00,25.509
440.00,25.556
441.00,25.630
442.00,25.727
443.00,25.828
444.00,25.899
445.00,25.982
446.00,26.082
447.00,26.171
448.00,26.268
449.00,26.360
450.00,26.490
451.00,26.540
452.00,26.658
453.00,26.799
454.00,26.807
455.00,26.977
456.00,27.143
457.00,27.224
458.00,27.308
459.00,27.458
460.00,27.591
461.00,27.746
462.00,27.846
463.00,27.967
464.00,28.108
465.00,28.274
466.00,28.381
467.00,28.524
468.00,28.604
469.00,28.730
470.00,28.836
471.00,28.903
472.00,29.054
473.00,29.111
474.00,29.255
475.00,29.382
476.00,29.486
477.00,29.632
478.00,29.731
479.00,29.946
480.00,30.049
481.00,30.133
482.00,30.331
483.00,30.468
484.00,30.660
485.00,30.796
486.00,30.938
487.00,31.076
488.00,31.184
489.00,31.374
490.00,31.558
491.00,31.694
492.00,31.815
493.00,32.055
494.00,32.232
495.00,32.144
496.00,32.343
497.00,32.423
498.00,32.578
499.00,32.724
500.00,32.861
501.00,32.998
502.00,33.113
503.00,33.198
504.00,33.256
505.00,33.387
506.00,33.532
507.00,33.621
508.00,33.692
509.00,33.918
510.00,34.010
511.00,34.085
512.00,34.273
513.00,34.384
514.00,34.512
515.00,34.695
516.00,34.746
517.00,34.812
518.00,34.983
519.00,35.013
520.00,35.046
521.00,35.157
522.00,35.295
523.00,35.317
524.00,35.418
525.00,35.531
526.00,35.644
527.00,35.729
528.00,35.770
529.00,35.982
530.00,36.144
531.00,36.192
532.00,36.267
533.00,36.372
534.00,36.505
535.00,36.539
536.00,36.617
537.00,36.689
538.00,36.755
539.00,36.775
540.00,36.837
541.00,36.818
542.00,36.948
543.00,36.996
544.00,37.069
545.00,37.147
546.00,37.157
547.00,37.296
548.00,37.418
549.00,37.404
550.00,37.477
551.00,37.603
552.00,37.614
553.00,37.653
554.00,37.753
555.00,37.762
556.00,37.858
557.00,37.913
558.00,37.972
559.00,38.015
560.00,38.089
561.00,38.119
562.00,38.310
563.00,38.262
564.00,38.325
565.00,38.346
566.00,38.342
567.00,38.366
568.00,38.413
569.00,38.512
570.00,38.515
571.00,38.600
572.00,38.601
573.00,38.455
574.00,38.490
575.00,38.627
576.00,38.588
577.00,38.687
578.00,38.766
579.00,38.820
580.00,38.820
581.00,39.052
582.00,39.055
583.00,39.052
584.00,39.178
585.00,39.225
586.00,39.248
587.00,39.326
588.00,39.313
589.00,39.169
590.00,39.368
591.00,39.456
592.00,39.412
593.00,39.452
594.00,39.462
595.00,39.598
596.00,39.658
597.00,39.723
598.00,39.853
599.00,39.849
600.00,39.789
601.00,39.857
602.00,39.828
603.00,39.922
604.00,39.960
605.00,39.985
606.00,40.007
607.00,40.059
608.00,40.276
609.00,40.352
610.00,40.076
611.00,40.259
612.00,40.174
613.00,40.337
614.00,40.394
615.00,40.293
616.00,40.390
617.00,40.455
618.00,40.599
619.00,40.606
620.00,40.607
621.00,40.701
622.00,40.757
623.00,40.799
624.00,40.932
625.00,40.984
626.00,40.985
627.00,41.059
628.00,41.055
629.00,41.097
630.00,41.105
631.00,41.071
632.00,41.305
633.00,41.421
634.00,41.493
635.00,41.576
636.00,41.631
637.00,41.672
638.00,41.719
639.00,41.833
640.00,41.909
641.00,41.956
642.00,41.972
643.00,42.061
644.00,42.165
645.00,42.181
646.00,42.419
647.00,42.432
648.00,42.388
649.00,42.457
650.00,42.468
651.00,42.690
652.00,42.745
653.00,42.740
654.00,42.830
655.00,43.034
656.00,43.288
657.00,43.197
658.00,43.351
659.00,43.437
660.00,43.392
661.00,43.405
662.00,43.517
663.00,43.616
664.00,43.836
665.00,44.033
666.00,43.940
667.00,44.195
668.00,44.040
669.00,44.315
670.00,44.507
671.00,44.386
672.00,44.505
673.00,44.475
674.00,44.598
675.00,44.675
676.00,44.916
677.00,45.090
678.00,44.833
679.00,45.030
680.00,45.121
681.00,45.321
682.00,45.274
683.00,45.306
684.00,45.502
685.00,45.566
686.00,45.452
687.00,45.645
688.00,45.734
689.00,45.752
690.00,45.964
691.00,46.316
692.00,45.937
693.00,46.012
694.00,46.165
695.00,46.394
696.00,46.422
697.00,46.373
698.00,46.432
699.00,46.694
700.00,46.764
701.00,46.797
702.00,46.963
703.00,47.147
704.00,47.121
705.00,46.953
706.00,47.187
707.00,47.220
708.00,47.144
709.00,47.529
710.00,47.895
711.00,47.321
712.00,47.510
713.00,47.646
714.00,47.694
715.00,47.829
716.00,47.754
717.00,47.953
718.00,48.024
719.00,48.016
720.00,48.124
721.00,52.563
722.00,52.613
723.00,52.625
724.00,52.613
725.00,52.542
726.00,52.573
727.00,52.551
728.00,52.676
729.00,52.859
730.00,52.785
731.00,52.752
732.00,52.818
733.00,52.898
734.00,52.905
735.00,52.972
736.00,52.991
737.00,52.986
738.00,53.089
739.00,53.068
740.00,53.107
741.00,53.185
742.00,53.227
743.00,53.108
744.00,53.110
745.00,53.185
746.00,53.187
747.00,53.067
748.00,53.159
749.00,53.172
750.00,53.201
751.00,53.228
752.00,53.274
753.00,53.161
754.00,53.310
755.00,53.199
756.00,53.223
757.00,53.223
758.00,53.346
759.00,53.298
760.00,53.245
761.00,53.306
762.00,53.290
763.00,53.365
764.00,53.409
765.00,53.326
766.00,53.329
767.00,53.433
768.00,53.421
769.00,53.355
770.00,53.429
771.00,53.376
772.00,53.515
773.00,53.401
774.00,53.481
775.00,53.545
776.00,53.417
777.00,53.497
778.00,53.501
779.00,53.540
780.00,53.445
781.00,53.493
782.00,53.472
783.00,53.458
784.00,53.504
785.00,53.436
786.00,53.509
787.00,53.474
788.00,53.474
789.00,53.419
790.00,53.463
791.00,53.498
792.00,53.420
793.00,53.440
794.00,53.417
795.00,53.376
796.00,53.370
797.00,53.312
798.00,53.337
799.00,53.296
800.00,53.301
801.00,53.367
802.00,53.350
803.00,53.361
804.00,53.277
805.00,53.304
806.00,53.297
807.00,53.267
808.00,53.332
809.00,53.206
810.00,53.175
811.00,53.214
812.00,53.256
813.00,53.150
814.00,53.079
815.00,53.163
816.00,53.220
817.00,53.083
818.00,53.064
819.00,53.102
820.00,53.055
821.00,53.000
822.00,53.084
823.00,52.976
824.00,53.107
825.00,52.978
826.00,52.997
827.00,53.056
828.00,53.103
829.00,53.154
830.00,53.090
831.00,55.549
832.00,55.560
833.00,55.503
834.00,55.480
835.00,55.485
836.00,55.485
837.00,55.441
838.00,55.466
839.00,55.468
840.00,55.410
841.00,55.412
842.00,55.372
843.00,55.391
844.00,55.353
845.00,55.332
846.00,55.319
847.00,55.298
848.00,55.326
849.00,55.228
850.00,55.215
851.00,55.163
852.00,55.153
853.00,55.100
854.00,55.108
855.00,55.098
856.00,55.075
857.00,55.064
858.00,55.055
859.00,55.062
860.00,55.051
861.00,55.061
862.00,54.978
863.00,55.001
864.00,54.926
865.00,54.959
866.00,54.945
867.00,54.924
868.00,54.941
869.00,54.933
870.00,54.923
871.00,54.895
872.00,54.924
873.00,54.876
874.00,54.909
875.00,54.849
876.00,54.881
877.00,54.860
878.00,54.901
879.00,54.855
880.00,54.802
881.00,54.822
882.00,54.838
883.00,54.743
884.00,54.717
885.00,54.707
886.00,54.727
887.00,54.680
888.00,54.651
889.00,54.672
890.00,54.667
891.00,54.664
892.00,54.641
893.00,54.645
894.00,54.651
895.00,54.606
896.00,54.573
897.00,54.549
898.00,54.531
899.00,54.525
900.00,54.493
901.00,54.510
902.00,54.495
903.00,54.474
904.00,54.453
905.00,54.459
906.00,54.473
907.00,54.430
908.00,54.403
909.00,54.395
910.00,54.333
911.00,54.355
912.00,54.328
913.00,54.293
914.00,54.294
915.00,54.284
916.00,54.237
917.00,54.211
918.00,54.187
919.00,54.169
920.00,54.152
921.00,54.161
922.00,54.137
923.00,54.138
924.00,54.093
925.00,54.105
926.00,54.094
927.00,54.079
928.00,54.023
929.00,54.049
930.00,53.992
931.00,54.001
932.00,53.949
933.00,53.974
934.00,53.973
935.00,53.938
936.00,53.857
937.00,53.914
938.00,53.895
939.00,53.897
940.00,53.868
941.00,53.861
942.00,53.832
943.00,53.822
944.00,53.790
945.00,53.806
946.00,53.785
947.00,53.731
948.00,53.724
949.00,53.706
950.00,53.670
951.00,53.628
952.00,53.667
953.00,53.602
954.00,53.591
955.00,53.559
956.00,53.566
957.00,53.526
958.00,53.549
959.00,53.485
960.00,53.488
961.00,53.471
962.00,53.464
963.00,53.432
964.00,53.417
965.00,53.427
966.00,53.396
967.00,53.400
968.00,53.356
969.00,53.413
970.00,53.385
971.00,53.388
972.00,53.347
973.00,53.406
974.00,53.418
975.00,53.380
976.00,53.392
977.00,53.374
978.00,53.420
979.00,53.376
980.00,53.389
981.00,53.403
982.00,53.359
983.00,53.383
984.00,53.380
985.00,53.365
986.00,53.327
987.00,53.379
988.00,53.324
989.00,53.317
990.00,53.311
991.00,53.301
992.00,53.320
993.00,53.284
994.00,53.271
995.00,53.259
996.00,53.244
997.00,53.233
998.00,53.231
999.00,53.225
1000.00,53.177
1001.00,53.191
1002.00,53.199
1003.00,53.189
1004.00,53.127
1005.00,53.111
1006.00,53.169
1007.00,53.126
1008.00,53.116
1009.00,53.087
1010.00,53.088
1011.00,53.134
1012.00,53.058
1013.00,53.078
1014.00,53.047
1015.00,53.047
1016.00,53.010
1017.00,52.992
1018.00,52.987
1019.00,52.943
1020.00,52.966
1021.00,52.946
1022.00,52.945
1023.00,52.919
1024.00,52.893
1025.00,52.882
1026.00,52.868
1027.00,52.837
1028.00,52.834
1029.00,52.817
1030.00,52.794
1031.00,52.817
1032.00,52.769
1033.00,52.784
1034.00,52.743
1035.00,52.720
1036.00,52.700
1037.00,52.687
1038.00,52.681
1039.00,52.641
1040.00,52.636
1041.00,52.592
1042.00,52.609
1043.00,52.572
1044.00,52.603
1045.00,52.574
1046.00,52.570
1047.00,52.598
1048.00,52.599
1049.00,52.604
1050.00,52.616
1051.00,52.668
1052.00,52.653
1053.00,52.674
1054.00,52.667
1055.00,52.693
1056.00,52.697
1057.00,52.709
1058.00,52.698
1059.00,52.688
1060.00,52.698
1061.00,52.662
1062.00,52.657
1063.00,52.670
1064.00,52.678
1065.00,52.658
1066.00,52.662
1067.00,52.654
1068.00,52.686
1069.00,52.652
1070.00,52.644
1071.00,52.634
1072.00,52.639
1073.00,52.614
1074.00,52.603
1075.00,52.585
1076.00,52.592
1077.00,52.588
1078.00,52.551
1079.00,52.578
1080.00,52.590
1081.00,52.577
1082.00,52.559
1083.00,52.566
1084.00,52.565
1085.00,52.547
1086.00,52.545
1087.00,52.576
1088.00,52.529
1089.00,52.516
1090.00,52.509
1091.00,52.519
1092.00,52.493
1093.00,52.475
1094.00,52.460
1095.00,52.459
1096.00,52.434
1097.00,52.442
1098.00,52.434
1099.00,52.430
1100.00,52.426
1101.00,52.432
1102.00,52.420
1103.00,52.405
1104.00,52.386
1105.00,52.386
1106.00,52.357
1107.00,52.362
1108.00,52.349
1109.00,52.354
1110.00,52.365
1111.00,52.337
1112.00,52.335
1113.00,52.337
1114.00,52.313
1115.00,52.311
1116.00,52.302
1117.00,52.299
1118.00,52.275
1119.00,52.280
1120.00,52.279
1121.00,52.275
1122.00,52.260
1123.00,52.252
1124.00,52.250
1125.00,52.250
1126.00,52.233
1127.00,52.240
1128.00,52.226
1129.00,52.214
1130.00,52.208
1131.00,52.225
1132.00,52.202
1133.00,52.181
1134.00,52.156
1135.00,52.168
1136.00,52.163
1137.00,52.160
1138.00,52.170
1139.00,52.172
1140.00,52.169
1141.00,52.171
1142.00,52.162
1143.00,52.177
1144.00,52.130
1145.00,52.132
1146.00,52.125
1147.00,52.138
1148.00,52.130
1149.00,52.158
1150.00,52.155
1151.00,52.150
1152.00,52.154
1153.00,52.161
1154.00,52.143
1155.00,52.149
1156.00,52.137
1157.00,52.157
1158.00,52.142
1159.00,52.150
1160.00,52.143
1161.00,52.147
1162.00,52.133
1163.00,52.124
1164.00,52.136
1165.00,52.128
1166.00,52.123
1167.00,52.110
1168.00,52.145
1169.00,52.123
1170.00,52.120
1171.00,52.114
1172.00,52.115
1173.00,52.098
1174.00,52.106
1175.00,52.106
1176.00,52.112
1177.00,52.090
1178.00,52.104
1179.00,52.124
1180.00,52.113
1181.00,52.134
1182.00,52.137
1183.00,52.141
1184.00,52.123
1185.00,52.140
1186.00,52.122
1187.00,52.126
1188.00,52.115
1189.00,52.116
1190.00,52.107
1191.00,52.102
1192.00,52.135
1193.00,52.117
1194.00,52.117
1195.00,52.090
1196.00,52.129
1197.00,52.138
1198.00,52.128
1199.00,52.118
1200.00,52.128
1201.00,52.149
1202.00,52.122
1203.00,52.114
1204.00,52.112
1205.00,52.131
1206.00,52.117
1207.00,52.111
1208.00,52.099
1209.00,52.117
1210.00,52.106
1211.00,52.128
1212.00,52.152
1213.00,52.110
1214.00,52.126
1215.00,52.117
1216.00,52.127
1217.00,52.110
1218.00,52.102
1219.00,52.125
1220.00,52.116
1221.00,52.122
1222.00,52.114
1223.00,52.128
1224.00,52.105
1225.00,52.093
1226.00,52.108
1227.00,52.107
1228.00,52.124
1229.00,52.122
1230.00,52.157
1231.00,52.143
1232.00,52.169
1233.00,52.178
1234.00,52.183
1235.00,52.171
1236.00,52.160
1237.00,52.176
1238.00,52.150
1239.00,52.161
1240.00,52.164
1241.00,52.188
1242.00,52.194
1243.00,52.208
1244.00,52.199
1245.00,52.215
1246.00,52.213
1247.00,52.187
1248.00,52.190
1249.00,52.213
1250.00,52.200
1251.00,52.196
1252.00,52.194
1253.00,52.194
1254.00,52.242
1255.00,52.220
1256.00,52.205
1257.00,52.188
1258.00,52.232
1259.00,52.238
1260.00,52.254
1261.00,52.244
1262.00,52.253
1263.00,52.259
1264.00,52.267
1265.00,52.273
1266.00,52.271
1267.00,52.285
1268.00,52.276
1269.00,52.278
1270.00,52.293
1271.00,52.290
1272.00,52.289
1273.00,52.312
1274.00,52.316
1275.00,52.320
1276.00,52.313
1277.00,52.317
1278.00,52.332
1279.00,52.327
1280.00,52.305
1281.00,52.338
1282.00,52.341
1283.00,52.343
1284.00,52.401
1285.00,52.364
1286.00,52.371
1287.00,52.363
1288.00,52.372
1289.00,52.375
1290.00,52.408
1291.00,52.389
1292.00,52.395
1293.00,52.402
1294.00,52.417
1295.00,52.439
1296.00,52.418
1297.00,52.426
1298.00,52.474
1299.00,52.437
1300.00,52.458
1301.00,52.443
1302.00,52.474
1303.00,52.460
1304.00,52.445
1305.00,52.465
1306.00,52.469
1307.00,52.483
1308.00,52.477
1309.00,52.484
1310.00,52.472
1311.00,52.466
1312.00,52.478
1313.00,52.492
1314.00,52.533
1315.00,52.545
1316.00,52.520
1317.00,52.560
1318.00,52.553
1319.00,52.571
1320.00,52.568
1321.00,52.744
1322.00,52.701
1323.00,52.683
1324.00,52.695
1325.00,52.667
1326.00,52.701
1327.00,52.663
1328.00,52.678
1329.00,52.699
1330.00,52.694
1331.00,52.687
1332.00,52.685
1333.00,52.697
1334.00,52.716
1335.00,52.774
1336.00,52.762
1337.00,52.826
1338.00,52.874
1339.00,52.897
1340.00,52.944
1341.00,53.030
1342.00,53.058
1343.00,53.092
1344.00,53.158
1345.00,53.227
1346.00,53.273
1347.00,53.276
1348.00,53.325
1349.00,53.338
1350.00,53.349
1351.00,53.370
1352.00,53.374
1353.00,53.378
1354.00,53.387
1355.00,53.322
1356.00,53.381
1357.00,53.381
1358.00,53.462
1359.00,53.358
1360.00,53.396
1361.00,53.461
1362.00,53.423
1363.00,53.449
1364.00,53.506
1365.00,53.431
1366.00,53.469
1367.00,53.440
1368.00,53.430
1369.00,53.450
1370.00,53.406
1371.00,53.406
1372.00,53.391
1373.00,53.427
1374.00,53.461
1375.00,53.400
1376.00,53.428
1377.00,53.404
1378.00,53.484
1379.00,53.424
1380.00,53.408
1381.00,53.439
1382.00,53.432
1383.00,53.436
1384.00,53.366
1385.00,53.378
1386.00,53.386
1387.00,53.383
1388.00,53.322
1389.00,53.368
1390.00,53.197
1391.00,53.402
1392.00,53.392
1393.00,53.432
1394.00,53.432
1395.00,53.423
1396.00,53.341
1397.00,53.365
1398.00,53.410
1399.00,53.406
1400.00,53.345
1401.00,53.369
1402.00,53.443
1403.00,53.428
1404.00,53.415
1405.00,53.399
1406.00,53.474
1407.00,53.441
1408.00,53.469
1409.00,53.454
1410.00,53.478
1411.00,53.445
1412.00,53.540
1413.00,53.444
1414.00,53.454
1415.00,53.498
1416.00,53.513
1417.00,53.555
1418.00,53.517
1419.00,53.514
1420.00,53.545
1421.00,53.599
1422.00,53.580
1423.00,53.618
1424.00,53.589
1425.00,53.627
1426.00,53.614
1427.00,53.627
1428.00,53.623
1429.00,53.626
1430.00,53.647
1431.00,53.698
1432.00,53.711
1433.00,53.725
1434.00,53.722
1435.00,53.768
1436.00,53.767
1437.00,53.744
1438.00,53.775
1439.00,53.812
1440.00,53.803
1441.00,53.807
1442.00,53.826
1443.00,53.828
1444.00,53.892
1445.00,53.856
1446.00,53.880
1447.00,53.912
1448.00,53.941
1449.00,53.943
1450.00,53.967
1451.00,53.967
1452.00,53.973
1453.00,53.980
1454.00,54.006
1455.00,54.025
1456.00,54.043
1457.00,54.014
1458.00,54.075
1459.00,54.071
1460.00,54.095
1461.00,54.105
1462.00,54.135
1463.00,54.126
1464.00,54.127
1465.00,54.166
1466.00,54.168
1467.00,54.196
1468.00,54.242
1469.00,54.199
1470.00,54.241
1471.00,54.241
1472.00,54.255
1473.00,54.261
1474.00,54.294
1475.00,54.301
1476.00,54.296
1477.00,54.276
1478.00,54.322
1479.00,54.317
1480.00,54.328
1481.00,54.338
1482.00,54.352
1483.00,54.356
1484.00,54.383
1485.00,54.379
1486.00,54.409
1487.00,54.427
1488.00,54.447
1489.00,54.451
1490.00,54.473
1491.00,54.487
1492.00,54.508
1493.00,54.467
1494.00,54.522
1495.00,54.483
1496.00,54.515
1497.00,54.499
1498.00,54.516
1499.00,54.519
1500.00,54.548
1501.00, 
1502.00, 
1503.00, 
1504.00, 
1505.00, 
1506.00, 
1507.00, 
1508.00, 
1509.00, 
1510.00, 
1511.00, 
1512.00, 
1513.00, 
1514.00, 
1515.00, 
1516.00, 
1517.00, 
1518.00, 
1519.00, 
1520.00, 
1521.00, 
1522.00, 
1523.00, 
1524.00, 
1525.00, 
1526.00, 
1527.00, 
1528.00, 
1529.00, 
1530.00, 
1531.00, 
1532.00, 
1533.00, 
1534.00, 
1535.00, 
1536.00, 
1537.00, 
1538.00, 
1539.00, 
1540.00, 
1541.00, 
1542.00, 
1543.00, 
1544.00, 
1545.00, 
1546.00, 
1547.00, 
1548.00, 
1549.00, 
1550.00, 
1551.00, 
1552.00, 
1553.00, 
1554.00, 
1555.00, 
1556.00, 
1557.00, 
1558.00, 
1559.00, 
1560.00, 
1561.00, 
1562.00, 
1563.00, 
1564.00, 
1565.00, 
1566.00, 
1567.00, 
1568.00, 
1569.00, 
1570.00, 
1571.00, 
1572.00, 
1573.00, 
1574.00, 
1575.00, 
1576.00, 
1577.00, 
1578.00, 
1579.00, 
1580.00, 
1581.00, 
1582.00, 
1583.00, 
1584.00, 
1585.00, 
1586.00, 
1587.00, 
1588.00, 
1589.00, 
1590.00, 
1591.00, 
1592.00, 
1593.00, 
1594.00, 
1595.00, 
1596.00, 
1597.00, 
1598.00, 
1599.00, 
1600.00, 
1601.00, 
1602.00, 
1603.00, 
1604.00, 
1605.00, 
1606.00, 
1607.00, 
1608.00, 
1609.00, 
1610.00, 
1611.00, 
1612.00, 
1613.00, 
1614.00, 
1615.00, 
1616.00, 
1617.00, 
1618.00, 
1619.00, 
1620.00, 
1621.00, 
1622.00, 
1623.00, 
1624.00, 
1625.00, 
1626.00, 
1627.00, 
1628.00, 
1629.00, 
1630.00, 
1631.00, 
1632.00, 
1633.00, 
1634.00, 
1635.00, 
1636.00, 
1637.00, 
1638.00, 
1639.00, 
1640.00, 
1641.00, 
1642.00, 
1643.00, 
1644.00, 
1645.00, 
1646.00, 
1647.00, 
1648.00, 
1649.00, 
1650.00, 
1651.00, 
1652.00, 
1653.00, 
1654.00, 
1655.00, 
1656.00, 
1657.00, 
1658.00, 
1659.00, 
1660.00, 
1661.00, 
1662.00, 
1663.00, 
1664.00, 
1665.00, 
1666.00, 
1667.00, 
1668.00, 
1669.00, 
1670.00, 
1671.00, 
1672.00, 
1673.00, 
1674.00, 
1675.00, 
1676.00, 
1677.00, 
1678.00, 
1679.00, 
1680.00, 
1681.00, 
1682.00, 
1683.00, 
1684.00, 
1685.00, 
1686.00, 
1687.00, 
1688.00, 
1689.00, 
1690.00, 
1691.00, 
1692.00, 
1693.00, 
1694.00, 
1695.00, 
1696.00, 
1697.00, 
1698.00, 
1699.00, 
1700.00, 
1701.00, 
1702.00, 
1703.00, 
1704.00, 
1705.00, 
1706.00, 
1707.00, 
1708.00, 
1709.00, 
1710.00, 
1711.00, 
1712.00, 
1713.00, 
1714.00, 
1715.00, 
1716.00, 
1717.00, 
1718.00, 
1719.00, 
1720.00, 
1721.00, 
1722.00, 
1723.00, 
1724.00, 
1725.00, 
1726.00, 
1727.00, 
1728.00, 
1729.00, 
1730.00, 
1731.00, 
1732.00, 
1733.00, 
1734.00, 
1735.00, 
1736.00, 
1737.00, 
1738.00, 
1739.00, 
1740.00, 
1741.00, 
1742.00, 
1743.00, 
1744.00, 
1745.00, 
1746.00, 
1747.00, 
1748.00, 
1749.00, 
1750.00, 
1751.00, 
1752.00, 
1753.00, 
1754.00, 
1755.00, 
1756.00, 
1757.00, 
1758.00, 
1759.00, 
1760.00, 
1761.00, 
1762.00, 
1763.00, 
1764.00, 
1765.00, 
1766.00, 
1767.00, 
1768.00, 
1769.00, 
1770.00, 
1771.00, 
1772.00, 
1773.00, 
1774.00, 
1775.00, 
1776.00, 
1777.00, 
1778.00, 
1779.00, 
1780.00, 
1781.00, 
1782.00, 
1783.00, 
1784.00, 
1785.00, 
1786.00, 
1787.00, 
1788.00, 
1789.00, 
1790.00, 
1791.00, 
1792.00, 
1793.00, 
1794.00, 
1795.00, 
1796.00, 
1797.00, 
1798.00, 
1799.00, 
1800.00, 
1801.00, 
1802.00, 
1803.00, 
1804.00, 
1805.00, 
1806.00, 
1807.00, 
1808.00, 
1809.00, 
1810.00, 
1811.00, 
1812.00, 
1813.00, 
1814.00, 
1815.00, 
1816.00, 
1817.00, 
1818.00, 
1819.00, 
1820.00, 
1821.00, 
1822.00, 
1823.00, 
1824.00, 
1825.00, 
1826.00, 
1827.00, 
1828.00, 
1829.00, 
1830.00, 
1831.00, 
1832.00, 
1833.00, 
1834.00, 
1835.00, 
1836.00, 
1837.00, 
1838.00, 
1839.00, 
1840.00, 
1841.00, 
1842.00, 
1843.00, 
1844.00, 
1845.00, 
1846.00, 
1847.00, 
1848.00, 
1849.00, 
1850.00, 
1851.00, 
1852.00, 
1853.00, 
1854.00, 
1855.00, 
1856.00, 
1857.00, 
1858.00, 
1859.00, 
1860.00, 
1861.00, 
1862.00, 
1863.00, 
1864.00, 
1865.00, 
1866.00, 
1867.00, 
1868.00, 
1869.00, 
1870.00, 
1871.00, 
1872.00, 
1873.00, 
1874.00, 
1875.00, 
1876.00, 
1877.00, 
1878.00, 
1879.00, 
1880.00, 
1881.00, 
1882.00, 
1883.00, 
1884.00, 
1885.00, 
1886.00, 
1887.00, 
1888.00, 
1889.00, 
1890.00, 
1891.00, 
1892.00, 
1893.00, 
1894.00, 
1895.00, 
1896.00, 
1897.00, 
1898.00, 
1899.00, 
1900.00, 
1901.00, 
1902.00, 
1903.00, 
1904.00, 
1905.00, 
1906.00, 
1907.00, 
1908.00, 
1909.00, 
1910.00, 
1911.00, 
1912.00, 
1913.00, 
1914.00, 
1915.00, 
1916.00, 
1917.00, 
1918.00, 
1919.00, 
1920.00, 
1921.00, 
1922.00, 
1923.00, 
1924.00, 
1925.00, 
1926.00, 
1927.00, 
1928.00, 
1929.00, 
1930.00, 
1931.00, 
1932.00, 
1933.00, 
1934.00, 
1935.00, 
1936.00, 
1937.00, 
1938.00, 
1939.00, 
1940.00, 
1941.00, 
1942.00, 
1943.00, 
1944.00, 
1945.00, 
1946.00, 
1947.00, 
1948.00, 
1949.00, 
1950.00, 
1951.00, 
1952.00, 
1953.00, 
1954.00, 
1955.00, 
1956.00, 
1957.00, 
1958.00, 
1959.00, 
1960.00, 
1961.00, 
1962.00, 
1963.00, 
1964.00, 
1965.00, 
1966.00, 
1967.00, 
1968.00, 
1969.00, 
1970.00, 
1971.00, 
1972.00, 
1973.00, 
1974.00, 
1975.00, 
1976.00, 
1977.00, 
1978.00, 
1979.00, 
1980.00, 
1981.00, 
1982.00, 
1983.00, 
1984.00, 
1985.00, 
1986.00, 
1987.00, 
1988.00, 
1989.00, 
1990.00, 
1991.00, 
1992.00, 
1993.00, 
1994.00, 
1995.00, 
1996.00, 
1997.00, 
1998.00, 
1999.00, 
2000.00, 
2001.00, 
2002.00, 
2003.00, 
2004.00, 
2005.00, 
2006.00, 
2007.00, 
2008.00, 
2009.00, 
2010.00, 
2011.00, 
2012.00, 
2013.00, 
2014.00, 
2015.00, 
2016.00, 
2017.00, 
2018.00, 
2019.00, 
2020.00, 
2021.00, 
2022.00, 
2023.00, 
2024.00, 
2025.00, 
2026.00, 
2027.00, 
2028.00, 
2029.00, 
2030.00, 
2031.00, 
2032.00, 
2033.00, 
2034.00, 
2035.00, 
2036.00, 
2037.00, 
2038.00, 
2039.00, 
2040.00, 
2041.00, 
2042.00, 
2043.00, 
2044.00, 
2045.00, 
2046.00, 
2047.00, 
2048.00, 
2049.00, 
2050.00, 
2051.00, 
2052.00, 
2053.00, 
2054.00, 
2055.00, 
2056.00, 
2057.00, 
2058.00, 
2059.00, 
2060.00, 
2061.00, 
2062.00, 
2063.00, 
2064.00, 
2065.00, 
2066.00, 
2067.00, 
2068.00, 
2069.00, 
2070.00, 
2071.00, 
2072.00, 
2073.00, 
2074.00, 
2075.00, 
2076.00, 
2077.00, 
2078.00, 
2079.00, 
2080.00, 
2081.00, 
2082.00, 
2083.00, 
2084.00, 
2085.00, 
2086.00, 
2087.00, 
2088.00, 
2089.00, 
2090.00, 
2091.00, 
2092.00, 
2093.00, 
2094.00, 
2095.00, 
2096.00, 
2097.00, 
2098.00, 
2099.00, 
2100.00, 
2101.00, 
2102.00, 
2103.00, 
2104.00, 
2105.00, 
2106.00, 
2107.00, 
2108.00, 
2109.00, 
2110.00, 
2111.00, 
2112.00, 
2113.00, 
2114.00, 
2115.00, 
2116.00, 
2117.00, 
2118.00, 
2119.00, 
2120.00, 
2121.00, 
2122.00, 
2123.00, 
2124.00, 
2125.00, 
2126.00, 
2127.00, 
2128.00, 
2129.00, 
2130.00, 
2131.00, 
2132.00, 
2133.00, 
2134.00, 
2135.00, 
2136.00, 
2137.00, 
2138.00, 
2139.00, 
2140.00, 
2141.00, 
2142.00, 
2143.00, 
2144.00, 
2145.00, 
2146.00, 
2147.00, 
2148.00, 
2149.00, 
2150.00, 
2151.00, 
2152.00, 
2153.00, 
2154.00, 
2155.00, 
2156.00, 
2157.00, 
2158.00, 
2159.00, 
2160.00, 
2161.00, 
2162.00, 
2163.00, 
2164.00, 
2165.00, 
2166.00, 
2167.00, 
2168.00, 
2169.00, 
2170.00, 
2171.00, 
2172.00, 
2173.00, 
2174.00, 
2175.00, 
2176.00, 
2177.00, 
2178.00, 
2179.00, 
2180.00, 
2181.00, 
2182.00, 
2183.00, 
2184.00, 
2185.00, 
2186.00, 
2187.00, 
2188.00, 
2189.00, 
2190.00, 
2191.00, 
2192.00, 
2193.00, 
2194.00, 
2195.00, 
2196.00, 
2197.00, 
2198.00, 
2199.00, 
2200.00, 
2201.00, 
2202.00, 
2203.00, 
2204.00, 
2205.00, 
2206.00, 
2207.00, 
2208.00, 
2209.00, 
2210.00, 
2211.00, 
2212.00, 
2213.00, 
2214.00, 
2215.00, 
2216.00, 
2217.00, 
2218.00, 
2219.00, 
2220.00, 
2221.00, 
2222.00, 
2223.00, 
2224.00, 
2225.00, 
2226.00, 
2227.00, 
2228.00, 
2229.00, 
2230.00, 
2231.00, 
2232.00, 
2233.00, 
2234.00, 
2235.00, 
2236.00, 
2237.00, 
2238.00, 
2239.00, 
2240.00, 
2241.00, 
2242.00, 
2243.00, 
2244.00, 
2245.00, 
2246.00, 
2247.00, 
2248.00, 
2249.00, 
2250.00, 
2251.00, 
2252.00, 
2253.00, 
2254.00, 
2255.00, 
2256.00, 
2257.00, 
2258.00, 
2259.00, 
2260.00, 
2261.00, 
2262.00, 
2263.00, 
2264.00, 
2265.00, 
2266.00, 
2267.00, 
2268.00, 
2269.00, 
2270.00, 
2271.00, 
2272.00, 
2273.00, 
2274.00, 
2275.00, 
2276.00, 
2277.00, 
2278.00, 
2279.00, 
2280.00, 
2281.00, 
2282.00, 
2283.00, 
2284.00, 
2285.00, 
2286.00, 
2287.00, 
2288.00, 
2289.00, 
2290.00, 
2291.00, 
2292.00, 
2293.00, 
2294.00, 
2295.00, 
2296.00, 
2297.00, 
2298.00, 
2299.00, 
2300.00, 
2301.00, 
2302.00, 
2303.00, 
2304.00, 
2305.00, 
2306.00, 
2307.00, 
2308.00, 
2309.00, 
2310.00, 
2311.00, 
2312.00, 
2313.00, 
2314.00, 
2315.00, 
2316.00, 
2317.00, 
2318.00, 
2319.00, 
2320.00, 
2321.00, 
2322.00, 
2323.00, 
2324.00, 
2325.00, 
2326.00, 
2327.00, 
2328.00, 
2329.00, 
2330.00, 
2331.00, 
2332.00, 
2333.00, 
2334.00, 
2335.00, 
2336.00, 
2337.00, 
2338.00, 
2339.00, 
2340.00, 
2341.00, 
2342.00, 
2343.00, 
2344.00, 
2345.00, 
2346.00, 
2347.00, 
2348.00, 
2349.00, 
2350.00, 
2351.00, 
2352.00, 
2353.00, 
2354.00, 
2355.00, 
2356.00, 
2357.00, 
2358.00, 
2359.00, 
2360.00, 
2361.00, 
2362.00, 
2363.00, 
2364.00, 
2365.00, 
2366.00, 
2367.00, 
2368.00, 
2369.00, 
2370.00, 
2371.00, 
2372.00, 
2373.00, 
2374.00, 
2375.00, 
2376.00, 
2377.00, 
2378.00, 
2379.00, 
2380.00, 
2381.00, 
2382.00, 
2383.00, 
2384.00, 
2385.00, 
2386.00, 
2387.00, 
2388.00, 
2389.00, 
2390.00, 
2391.00, 
2392.00, 
2393.00, 
2394.00, 
2395.00, 
2396.00, 
2397.00, 
2398.00, 
2399.00, 
2400.00, 
2401.00, 
2402.00, 
2403.00, 
2404.00, 
2405.00, 
2406.00, 
2407.00, 
2408.00, 
2409.00, 
2410.00, 
2411.00, 
2412.00, 
2413.00, 
2414.00, 
2415.00, 
2416.00, 
2417.00, 
2418.00, 
2419.00, 
2420.00, 
2421.00, 
2422.00, 
2423.00, 
2424.00, 
2425.00, 
2426.00, 
2427.00, 
2428.00, 
2429.00, 
2430.00, 
2431.00, 
2432.00, 
2433.00, 
2434.00, 
2435.00, 
2436.00, 
2437.00, 
2438.00, 
2439.00, 
2440.00, 
2441.00, 
2442.00, 
2443.00, 
2444.00, 
2445.00, 
2446.00, 
2447.00, 
2448.00, 
2449.00, 
2450.00, 
2451.00, 
2452.00, 
2453.00, 
2454.00, 
2455.00, 
2456.00, 
2457.00, 
2458.00, 
2459.00, 
2460.00, 
2461.00, 
2462.00, 
2463.00, 
2464.00, 
2465.00, 
2466.00, 
2467.00, 
2468.00, 
2469.00, 
2470.00, 
2471.00, 
2472.00, 
2473.00, 
2474.00, 
2475.00, 
2476.00, 
2477.00, 
2478.00, 
2479.00, 
2480.00, 
2481.00, 
2482.00, 
2483.00, 
2484.00, 
2485.00, 
2486.00, 
2487.00, 
2488.00, 
2489.00, 
2490.00, 
2491.00, 
2492.00, 
2493.00, 
2494.00, 
2495.00, 
2496.00, 
2497.00, 
2498.00, 
2499.00, 
2500.00, 
2501.00, 
2502.00, 
2503.00, 
2504.00, 
2505.00, 
2506.00, 
2507.00, 
2508.00, 
2509.00, 
2510.00, 
2511.00, 
2512.00, 
2513.00, 
2514.00, 
2515.00, 
2516.00, 
2517.00, 
2518.00, 
2519.00, 
2520.00, 
2521.00, 
2522.00, 
2523.00, 
2524.00, 
2525.00, 
2526.00, 
2527.00, 
2528.00, 
2529.00, 
2530.00, 
2531.00, 
2532.00, 
2533.00, 
2534.00, 
2535.00, 
2536.00, 
2537.00, 
2538.00, 
2539.00, 
2540.00, 
2541.00, 
2542.00, 
2543.00, 
2544.00, 
2545.00, 
2546.00, 
2547.00, 
2548.00, 
2549.00, 
2550.00, 
2551.00, 
2552.00, 
2553.00, 
2554.00, 
2555.00, 
2556.00, 
2557.00, 
2558.00, 
2559.00, 
2560.00, 
2561.00, 
2562.00, 
2563.00, 
2564.00, 
2565.00, 
2566.00, 
2567.00, 
2568.00, 
2569.00, 
2570.00, 
2571.00, 
2572.00, 
2573.00, 
2574.00, 
2575.00, 
2576.00, 
2577.00, 
2578.00, 
2579.00, 
2580.00, 
2581.00, 
2582.00, 
2583.00, 
2584.00, 
2585.00, 
2586.00, 
2587.00, 
2588.00, 
2589.00, 
2590.00, 
2591.00, 
2592.00, 
2593.00, 
2594.00, 
2595.00, 
2596.00, 
2597.00, 
2598.00, 
2599.00, 
2600.00, 
