"1bP2 - RawData"
"Wavelength nm.","T%"
200.00,0.003
201.00,0.002
202.00,0.001
203.00,0.001
204.00,-0.000
205.00,0.003
206.00,0.000
207.00,0.002
208.00,0.002
209.00,0.002
210.00,0.003
211.00,0.001
212.00,-0.003
213.00,0.002
214.00,0.002
215.00,0.000
216.00,-0.000
217.00,-0.001
218.00,0.002
219.00,-0.001
220.00,0.004
221.00,-0.001
222.00,0.003
223.00,0.001
224.00,-0.001
225.00,-0.000
226.00,-0.000
227.00,0.002
228.00,0.000
229.00,0.002
230.00,0.000
231.00,-0.001
232.00,-0.001
233.00,-0.001
234.00,0.001
235.00,0.004
236.00,0.001
237.00,-0.001
238.00,0.002
239.00,-0.001
240.00,0.001
241.00,0.002
242.00,-0.001
243.00,0.000
244.00,-0.000
245.00,0.000
246.00,0.000
247.00,0.001
248.00,0.001
249.00,0.000
250.00,0.000
251.00,0.002
252.00,-0.000
253.00,0.000
254.00,0.001
255.00,-0.000
256.00,0.000
257.00,0.000
258.00,0.001
259.00,0.001
260.00,0.000
261.00,0.000
262.00,-0.001
263.00,0.000
264.00,-0.001
265.00,-0.000
266.00,-0.002
267.00,0.001
268.00,0.001
269.00,0.000
270.00,0.001
271.00,0.000
272.00,-0.001
273.00,0.002
274.00,0.000
275.00,0.000
276.00,0.000
277.00,0.001
278.00,0.000
279.00,0.001
280.00,0.003
281.00,0.000
282.00,0.001
283.00,-0.001
284.00,0.002
285.00,-0.001
286.00,-0.000
287.00,0.001
288.00,-0.001
289.00,0.001
290.00,-0.001
291.00,-0.002
292.00,0.001
293.00,-0.001
294.00,-0.002
295.00,0.002
296.00,0.002
297.00,0.001
298.00,0.000
299.00,0.002
300.00,0.003
301.00,0.005
302.00,0.009
303.00,0.012
304.00,0.020
305.00,0.030
306.00,0.046
307.00,0.068
308.00,0.109
309.00,0.165
310.00,0.227
311.00,0.310
312.00,0.424
313.00,0.560
314.00,0.717
315.00,0.943
316.00,1.196
317.00,1.497
318.00,1.837
319.00,2.232
320.00,2.692
321.00,3.177
322.00,3.738
323.00,4.334
324.00,4.991
325.00,5.637
326.00,6.302
327.00,7.070
328.00,7.823
329.00,8.565
330.00,9.401
331.00,10.131
332.00,10.969
333.00,11.837
334.00,12.590
335.00,13.397
336.00,14.151
337.00,14.942
338.00,15.735
339.00,16.455
340.00,17.153
341.00,17.860
342.00,18.499
343.00,19.111
344.00,19.774
345.00,20.277
346.00,20.775
347.00,21.265
348.00,21.748
349.00,22.161
350.00,22.562
351.00,22.913
352.00,23.278
353.00,23.544
354.00,23.933
355.00,24.235
356.00,24.411
357.00,24.674
358.00,24.932
359.00,25.189
360.00,25.408
361.00,25.512
362.00,25.677
363.00,25.775
364.00,25.920
365.00,25.978
366.00,26.092
367.00,26.174
368.00,26.234
369.00,26.220
370.00,26.372
371.00,26.398
372.00,26.307
373.00,26.324
374.00,26.353
375.00,26.256
376.00,26.193
377.00,26.156
378.00,26.043
379.00,25.912
380.00,25.942
381.00,25.894
382.00,25.876
383.00,25.916
384.00,25.916
385.00,25.949
386.00,25.940
387.00,26.012
388.00,26.069
389.00,26.068
390.00,26.074
391.00,26.114
392.00,26.137
393.00,26.137
394.00,26.155
395.00,26.170
396.00,26.115
397.00,26.139
398.00,26.150
399.00,26.146
400.00,26.172
401.00,26.144
402.00,26.143
403.00,26.140
404.00,26.112
405.00,26.080
406.00,25.991
407.00,26.001
408.00,25.955
409.00,25.906
410.00,25.862
411.00,25.870
412.00,25.805
413.00,25.859
414.00,25.849
415.00,25.831
416.00,25.916
417.00,25.846
418.00,25.905
419.00,25.999
420.00,26.042
421.00,25.950
422.00,26.049
423.00,26.078
424.00,26.111
425.00,26.155
426.00,26.166
427.00,26.205
428.00,26.267
429.00,26.275
430.00,26.320
431.00,26.401
432.00,26.466
433.00,26.453
434.00,26.459
435.00,26.608
436.00,26.585
437.00,26.682
438.00,26.756
439.00,26.795
440.00,26.860
441.00,26.959
442.00,27.018
443.00,27.107
444.00,27.172
445.00,27.259
446.00,27.348
447.00,27.421
448.00,27.537
449.00,27.607
450.00,27.671
451.00,27.810
452.00,27.916
453.00,28.024
454.00,28.117
455.00,28.202
456.00,28.335
457.00,28.411
458.00,28.502
459.00,28.647
460.00,28.796
461.00,28.886
462.00,28.955
463.00,29.159
464.00,29.177
465.00,29.442
466.00,29.561
467.00,29.703
468.00,29.770
469.00,29.826
470.00,29.958
471.00,30.020
472.00,30.141
473.00,30.198
474.00,30.304
475.00,30.467
476.00,30.525
477.00,30.642
478.00,30.756
479.00,30.962
480.00,31.075
481.00,31.144
482.00,31.301
483.00,31.460
484.00,31.648
485.00,31.771
486.00,31.911
487.00,32.058
488.00,32.155
489.00,32.330
490.00,32.517
491.00,32.616
492.00,32.700
493.00,32.977
494.00,33.126
495.00,33.071
496.00,33.228
497.00,33.281
498.00,33.449
499.00,33.567
500.00,33.679
501.00,33.804
502.00,33.936
503.00,34.023
504.00,34.035
505.00,34.177
506.00,34.319
507.00,34.411
508.00,34.516
509.00,34.697
510.00,34.798
511.00,34.854
512.00,34.993
513.00,35.129
514.00,35.278
515.00,35.423
516.00,35.501
517.00,35.570
518.00,35.716
519.00,35.753
520.00,35.766
521.00,35.882
522.00,35.968
523.00,35.991
524.00,36.108
525.00,36.241
526.00,36.310
527.00,36.410
528.00,36.466
529.00,36.654
530.00,36.769
531.00,36.836
532.00,36.870
533.00,36.923
534.00,37.083
535.00,37.129
536.00,37.232
537.00,37.301
538.00,37.349
539.00,37.357
540.00,37.450
541.00,37.477
542.00,37.525
543.00,37.583
544.00,37.650
545.00,37.730
546.00,37.731
547.00,37.874
548.00,37.888
549.00,37.958
550.00,38.020
551.00,38.147
552.00,38.198
553.00,38.249
554.00,38.327
555.00,38.335
556.00,38.405
557.00,38.434
558.00,38.498
559.00,38.585
560.00,38.621
561.00,38.631
562.00,38.748
563.00,38.759
564.00,38.841
565.00,38.838
566.00,38.798
567.00,38.829
568.00,38.935
569.00,38.921
570.00,38.997
571.00,39.056
572.00,38.979
573.00,38.987
574.00,39.057
575.00,39.020
576.00,39.105
577.00,39.132
578.00,39.238
579.00,39.320
580.00,39.323
581.00,39.466
582.00,39.552
583.00,39.563
584.00,39.635
585.00,39.724
586.00,39.721
587.00,39.740
588.00,39.809
589.00,39.758
590.00,39.816
591.00,39.875
592.00,39.836
593.00,39.871
594.00,39.838
595.00,39.963
596.00,40.051
597.00,40.148
598.00,40.271
599.00,40.235
600.00,40.246
601.00,40.297
602.00,40.209
603.00,40.377
604.00,40.357
605.00,40.443
606.00,40.412
607.00,40.434
608.00,40.655
609.00,40.704
610.00,40.485
611.00,40.596
612.00,40.583
613.00,40.610
614.00,40.653
615.00,40.723
616.00,40.864
617.00,40.796
618.00,40.768
619.00,40.810
620.00,40.780
621.00,41.093
622.00,41.193
623.00,41.144
624.00,41.250
625.00,41.342
626.00,41.334
627.00,41.379
628.00,41.341
629.00,41.401
630.00,41.439
631.00,41.464
632.00,41.569
633.00,41.678
634.00,41.743
635.00,41.839
636.00,41.880
637.00,41.958
638.00,41.952
639.00,42.047
640.00,42.103
641.00,42.103
642.00,42.235
643.00,42.266
644.00,42.308
645.00,42.348
646.00,42.621
647.00,42.592
648.00,42.569
649.00,42.582
650.00,42.634
651.00,42.831
652.00,42.834
653.00,42.860
654.00,42.923
655.00,43.101
656.00,43.320
657.00,43.191
658.00,43.358
659.00,43.463
660.00,43.325
661.00,43.362
662.00,43.501
663.00,43.674
664.00,44.046
665.00,43.994
666.00,43.940
667.00,44.114
668.00,43.899
669.00,44.230
670.00,44.481
671.00,44.229
672.00,44.484
673.00,44.433
674.00,44.485
675.00,44.549
676.00,44.731
677.00,44.953
678.00,44.719
679.00,44.891
680.00,44.854
681.00,44.925
682.00,44.992
683.00,44.982
684.00,45.247
685.00,45.356
686.00,45.228
687.00,45.349
688.00,45.491
689.00,45.441
690.00,45.688
691.00,45.933
692.00,45.609
693.00,45.628
694.00,45.846
695.00,45.939
696.00,45.966
697.00,45.966
698.00,46.009
699.00,46.314
700.00,46.159
701.00,46.193
702.00,46.267
703.00,46.764
704.00,46.963
705.00,46.553
706.00,46.660
707.00,46.742
708.00,46.657
709.00,47.046
710.00,47.413
711.00,46.758
712.00,46.982
713.00,47.086
714.00,47.073
715.00,47.274
716.00,47.183
717.00,47.339
718.00,47.421
719.00,47.397
720.00,47.495
721.00,52.157
722.00,52.173
723.00,52.124
724.00,52.065
725.00,52.107
726.00,52.076
727.00,52.083
728.00,52.186
729.00,52.343
730.00,52.252
731.00,52.202
732.00,52.267
733.00,52.305
734.00,52.306
735.00,52.407
736.00,52.411
737.00,52.363
738.00,52.466
739.00,52.366
740.00,52.438
741.00,52.509
742.00,52.473
743.00,52.493
744.00,52.463
745.00,52.499
746.00,52.470
747.00,52.426
748.00,52.455
749.00,52.461
750.00,52.483
751.00,52.555
752.00,52.473
753.00,52.449
754.00,52.493
755.00,52.469
756.00,52.454
757.00,52.449
758.00,52.512
759.00,52.504
760.00,52.439
761.00,52.531
762.00,52.387
763.00,52.576
764.00,52.515
765.00,52.482
766.00,52.491
767.00,52.570
768.00,52.555
769.00,52.521
770.00,52.536
771.00,52.482
772.00,52.631
773.00,52.528
774.00,52.619
775.00,52.646
776.00,52.599
777.00,52.528
778.00,52.580
779.00,52.646
780.00,52.559
781.00,52.608
782.00,52.575
783.00,52.528
784.00,52.582
785.00,52.505
786.00,52.564
787.00,52.509
788.00,52.541
789.00,52.501
790.00,52.434
791.00,52.620
792.00,52.445
793.00,52.475
794.00,52.436
795.00,52.426
796.00,52.457
797.00,52.381
798.00,52.376
799.00,52.324
800.00,52.299
801.00,52.331
802.00,52.330
803.00,52.336
804.00,52.292
805.00,52.274
806.00,52.270
807.00,52.279
808.00,52.272
809.00,52.136
810.00,52.133
811.00,52.258
812.00,52.229
813.00,52.113
814.00,52.074
815.00,52.114
816.00,52.108
817.00,52.123
818.00,52.060
819.00,52.138
820.00,52.018
821.00,52.089
822.00,52.045
823.00,52.004
824.00,52.102
825.00,51.951
826.00,52.002
827.00,52.049
828.00,51.944
829.00,51.991
830.00,52.101
831.00,54.597
832.00,54.556
833.00,54.515
834.00,54.510
835.00,54.461
836.00,54.460
837.00,54.457
838.00,54.447
839.00,54.391
840.00,54.374
841.00,54.394
842.00,54.379
843.00,54.390
844.00,54.355
845.00,54.329
846.00,54.323
847.00,54.281
848.00,54.246
849.00,54.228
850.00,54.201
851.00,54.139
852.00,54.140
853.00,54.102
854.00,54.085
855.00,54.070
856.00,54.042
857.00,54.034
858.00,54.015
859.00,54.008
860.00,53.992
861.00,54.021
862.00,53.950
863.00,53.963
864.00,53.912
865.00,53.941
866.00,53.897
867.00,53.909
868.00,53.894
869.00,53.869
870.00,53.883
871.00,53.853
872.00,53.902
873.00,53.844
874.00,53.865
875.00,53.807
876.00,53.848
877.00,53.812
878.00,53.841
879.00,53.786
880.00,53.772
881.00,53.759
882.00,53.793
883.00,53.710
884.00,53.650
885.00,53.780
886.00,53.676
887.00,53.631
888.00,53.612
889.00,53.596
890.00,53.603
891.00,53.596
892.00,53.578
893.00,53.557
894.00,53.568
895.00,53.524
896.00,53.540
897.00,53.482
898.00,53.455
899.00,53.480
900.00,53.443
901.00,53.419
902.00,53.439
903.00,53.419
904.00,53.408
905.00,53.416
906.00,53.420
907.00,53.368
908.00,53.341
909.00,53.343
910.00,53.293
911.00,53.295
912.00,53.270
913.00,53.228
914.00,53.223
915.00,53.219
916.00,53.168
917.00,53.168
918.00,53.125
919.00,53.131
920.00,53.123
921.00,53.098
922.00,53.122
923.00,53.083
924.00,52.990
925.00,53.136
926.00,53.040
927.00,53.002
928.00,52.961
929.00,52.958
930.00,52.898
931.00,52.912
932.00,52.874
933.00,52.911
934.00,52.867
935.00,52.821
936.00,52.820
937.00,52.819
938.00,52.785
939.00,52.812
940.00,52.852
941.00,52.787
942.00,52.779
943.00,52.750
944.00,52.717
945.00,52.734
946.00,52.709
947.00,52.648
948.00,52.660
949.00,52.620
950.00,52.620
951.00,52.598
952.00,52.585
953.00,52.549
954.00,52.516
955.00,52.497
956.00,52.489
957.00,52.452
958.00,52.461
959.00,52.405
960.00,52.403
961.00,52.395
962.00,52.382
963.00,52.341
964.00,52.341
965.00,52.337
966.00,52.324
967.00,52.343
968.00,52.295
969.00,52.350
970.00,52.314
971.00,52.314
972.00,52.280
973.00,52.330
974.00,52.345
975.00,52.317
976.00,52.322
977.00,52.327
978.00,52.367
979.00,52.314
980.00,52.326
981.00,52.349
982.00,52.301
983.00,52.332
984.00,52.316
985.00,52.310
986.00,52.342
987.00,52.321
988.00,52.270
989.00,52.266
990.00,52.249
991.00,52.243
992.00,52.254
993.00,52.222
994.00,52.196
995.00,52.183
996.00,52.193
997.00,52.171
998.00,52.137
999.00,52.217
1000.00,52.136
1001.00,52.121
1002.00,52.114
1003.00,52.117
1004.00,52.062
1005.00,52.049
1006.00,52.096
1007.00,52.057
1008.00,52.054
1009.00,52.041
1010.00,52.044
1011.00,52.027
1012.00,51.984
1013.00,51.988
1014.00,51.986
1015.00,51.998
1016.00,51.993
1017.00,51.935
1018.00,51.932
1019.00,51.909
1020.00,51.893
1021.00,51.875
1022.00,51.880
1023.00,51.829
1024.00,51.837
1025.00,51.833
1026.00,51.809
1027.00,51.792
1028.00,51.787
1029.00,51.758
1030.00,51.733
1031.00,51.733
1032.00,51.693
1033.00,51.708
1034.00,51.664
1035.00,51.646
1036.00,51.625
1037.00,51.591
1038.00,51.595
1039.00,51.555
1040.00,51.557
1041.00,51.522
1042.00,51.522
1043.00,51.497
1044.00,51.535
1045.00,51.497
1046.00,51.490
1047.00,51.529
1048.00,51.522
1049.00,51.552
1050.00,51.540
1051.00,51.585
1052.00,51.585
1053.00,51.587
1054.00,51.591
1055.00,51.622
1056.00,51.625
1057.00,51.628
1058.00,51.622
1059.00,51.605
1060.00,51.633
1061.00,51.587
1062.00,51.576
1063.00,51.609
1064.00,51.607
1065.00,51.591
1066.00,51.593
1067.00,51.576
1068.00,51.615
1069.00,51.578
1070.00,51.571
1071.00,51.550
1072.00,51.575
1073.00,51.540
1074.00,51.533
1075.00,51.519
1076.00,51.532
1077.00,51.538
1078.00,51.481
1079.00,51.496
1080.00,51.514
1081.00,51.489
1082.00,51.496
1083.00,51.486
1084.00,51.484
1085.00,51.489
1086.00,51.454
1087.00,51.467
1088.00,51.451
1089.00,51.436
1090.00,51.438
1091.00,51.456
1092.00,51.426
1093.00,51.416
1094.00,51.391
1095.00,51.399
1096.00,51.391
1097.00,51.384
1098.00,51.384
1099.00,51.377
1100.00,51.354
1101.00,51.352
1102.00,51.333
1103.00,51.335
1104.00,51.324
1105.00,51.311
1106.00,51.289
1107.00,51.287
1108.00,51.247
1109.00,51.262
1110.00,51.276
1111.00,51.258
1112.00,51.252
1113.00,51.269
1114.00,51.235
1115.00,51.244
1116.00,51.222
1117.00,51.223
1118.00,51.208
1119.00,51.194
1120.00,51.191
1121.00,51.195
1122.00,51.171
1123.00,51.168
1124.00,51.186
1125.00,51.169
1126.00,51.147
1127.00,51.148
1128.00,51.139
1129.00,51.126
1130.00,51.112
1131.00,51.125
1132.00,51.115
1133.00,51.114
1134.00,51.106
1135.00,51.124
1136.00,51.113
1137.00,51.109
1138.00,51.127
1139.00,51.139
1140.00,51.100
1141.00,51.083
1142.00,51.089
1143.00,51.129
1144.00,51.074
1145.00,51.082
1146.00,51.071
1147.00,51.073
1148.00,51.076
1149.00,51.081
1150.00,51.072
1151.00,51.067
1152.00,51.060
1153.00,51.059
1154.00,51.045
1155.00,51.053
1156.00,51.048
1157.00,51.071
1158.00,51.055
1159.00,51.067
1160.00,51.047
1161.00,51.060
1162.00,51.068
1163.00,51.039
1164.00,51.059
1165.00,51.060
1166.00,51.049
1167.00,51.042
1168.00,51.073
1169.00,51.050
1170.00,51.051
1171.00,51.036
1172.00,51.042
1173.00,51.049
1174.00,51.040
1175.00,51.049
1176.00,51.065
1177.00,51.029
1178.00,51.035
1179.00,51.061
1180.00,51.029
1181.00,51.056
1182.00,51.042
1183.00,51.045
1184.00,51.039
1185.00,51.052
1186.00,51.039
1187.00,51.051
1188.00,51.029
1189.00,51.025
1190.00,51.035
1191.00,51.020
1192.00,51.053
1193.00,51.017
1194.00,51.027
1195.00,51.022
1196.00,51.052
1197.00,51.046
1198.00,51.053
1199.00,51.061
1200.00,51.054
1201.00,51.080
1202.00,51.034
1203.00,51.038
1204.00,51.027
1205.00,51.042
1206.00,51.029
1207.00,51.024
1208.00,51.017
1209.00,51.040
1210.00,51.018
1211.00,51.023
1212.00,51.043
1213.00,50.989
1214.00,51.018
1215.00,51.001
1216.00,51.023
1217.00,51.029
1218.00,51.007
1219.00,51.030
1220.00,51.024
1221.00,51.021
1222.00,51.010
1223.00,51.039
1224.00,51.020
1225.00,51.011
1226.00,51.025
1227.00,51.044
1228.00,51.048
1229.00,51.032
1230.00,51.075
1231.00,51.059
1232.00,51.079
1233.00,51.064
1234.00,51.059
1235.00,51.047
1236.00,51.053
1237.00,51.069
1238.00,51.062
1239.00,51.085
1240.00,51.062
1241.00,51.088
1242.00,51.084
1243.00,51.083
1244.00,51.074
1245.00,51.111
1246.00,51.096
1247.00,51.083
1248.00,51.075
1249.00,51.092
1250.00,51.109
1251.00,51.092
1252.00,51.111
1253.00,51.106
1254.00,51.132
1255.00,51.119
1256.00,51.096
1257.00,51.099
1258.00,51.148
1259.00,51.141
1260.00,51.176
1261.00,51.151
1262.00,51.130
1263.00,51.137
1264.00,51.146
1265.00,51.145
1266.00,51.146
1267.00,51.165
1268.00,51.145
1269.00,51.157
1270.00,51.170
1271.00,51.170
1272.00,51.188
1273.00,51.192
1274.00,51.196
1275.00,51.221
1276.00,51.218
1277.00,51.242
1278.00,51.242
1279.00,51.231
1280.00,51.228
1281.00,51.246
1282.00,51.240
1283.00,51.239
1284.00,51.249
1285.00,51.235
1286.00,51.261
1287.00,51.244
1288.00,51.251
1289.00,51.247
1290.00,51.278
1291.00,51.288
1292.00,51.279
1293.00,51.289
1294.00,51.305
1295.00,51.306
1296.00,51.305
1297.00,51.305
1298.00,51.351
1299.00,51.324
1300.00,51.352
1301.00,51.320
1302.00,51.362
1303.00,51.345
1304.00,51.330
1305.00,51.371
1306.00,51.367
1307.00,51.378
1308.00,51.378
1309.00,51.371
1310.00,51.380
1311.00,51.366
1312.00,51.375
1313.00,51.391
1314.00,51.418
1315.00,51.432
1316.00,51.417
1317.00,51.440
1318.00,51.432
1319.00,51.458
1320.00,51.433
1321.00,51.610
1322.00,51.586
1323.00,51.570
1324.00,51.578
1325.00,51.573
1326.00,51.606
1327.00,51.588
1328.00,51.585
1329.00,51.609
1330.00,51.609
1331.00,51.589
1332.00,51.593
1333.00,51.619
1334.00,51.611
1335.00,51.649
1336.00,51.666
1337.00,51.692
1338.00,51.762
1339.00,51.777
1340.00,51.839
1341.00,51.915
1342.00,51.957
1343.00,52.023
1344.00,52.082
1345.00,52.133
1346.00,52.175
1347.00,52.179
1348.00,52.224
1349.00,52.238
1350.00,52.238
1351.00,52.258
1352.00,52.289
1353.00,52.252
1354.00,52.276
1355.00,52.240
1356.00,52.288
1357.00,52.284
1358.00,52.335
1359.00,52.324
1360.00,52.303
1361.00,52.289
1362.00,52.300
1363.00,52.401
1364.00,52.307
1365.00,52.289
1366.00,52.349
1367.00,52.264
1368.00,52.279
1369.00,52.318
1370.00,52.288
1371.00,52.250
1372.00,52.257
1373.00,52.296
1374.00,52.315
1375.00,52.268
1376.00,52.283
1377.00,52.274
1378.00,52.330
1379.00,52.283
1380.00,52.279
1381.00,52.291
1382.00,52.245
1383.00,52.302
1384.00,52.244
1385.00,52.270
1386.00,52.274
1387.00,52.272
1388.00,52.243
1389.00,52.255
1390.00,52.281
1391.00,52.267
1392.00,52.247
1393.00,52.306
1394.00,52.268
1395.00,52.296
1396.00,52.214
1397.00,52.238
1398.00,52.265
1399.00,52.245
1400.00,52.216
1401.00,52.214
1402.00,52.323
1403.00,52.259
1404.00,52.254
1405.00,52.272
1406.00,52.304
1407.00,52.320
1408.00,52.305
1409.00,52.277
1410.00,52.362
1411.00,52.304
1412.00,52.387
1413.00,52.296
1414.00,52.297
1415.00,52.343
1416.00,52.331
1417.00,52.363
1418.00,52.349
1419.00,52.338
1420.00,52.375
1421.00,52.431
1422.00,52.418
1423.00,52.439
1424.00,52.428
1425.00,52.476
1426.00,52.456
1427.00,52.461
1428.00,52.461
1429.00,52.481
1430.00,52.485
1431.00,52.521
1432.00,52.526
1433.00,52.536
1434.00,52.537
1435.00,52.592
1436.00,52.586
1437.00,52.590
1438.00,52.602
1439.00,52.633
1440.00,52.636
1441.00,52.628
1442.00,52.650
1443.00,52.665
1444.00,52.718
1445.00,52.680
1446.00,52.698
1447.00,52.736
1448.00,52.779
1449.00,52.757
1450.00,52.768
1451.00,52.777
1452.00,52.800
1453.00,52.803
1454.00,52.842
1455.00,52.847
1456.00,52.873
1457.00,52.855
1458.00,52.895
1459.00,52.903
1460.00,52.914
1461.00,52.913
1462.00,52.951
1463.00,52.928
1464.00,52.950
1465.00,52.975
1466.00,52.964
1467.00,53.009
1468.00,53.052
1469.00,52.990
1470.00,53.044
1471.00,53.032
1472.00,53.061
1473.00,53.087
1474.00,53.108
1475.00,53.132
1476.00,53.128
1477.00,53.106
1478.00,53.150
1479.00,53.150
1480.00,53.138
1481.00,53.156
1482.00,53.173
1483.00,53.181
1484.00,53.204
1485.00,53.189
1486.00,53.212
1487.00,53.225
1488.00,53.245
1489.00,53.241
1490.00,53.250
1491.00,53.262
1492.00,53.311
1493.00,53.271
1494.00,53.321
1495.00,53.305
1496.00,53.313
1497.00,53.303
1498.00,53.331
1499.00,53.325
1500.00,53.348
1501.00, 
1502.00, 
1503.00, 
1504.00, 
1505.00, 
1506.00, 
1507.00, 
1508.00, 
1509.00, 
1510.00, 
1511.00, 
1512.00, 
1513.00, 
1514.00, 
1515.00, 
1516.00, 
1517.00, 
1518.00, 
1519.00, 
1520.00, 
1521.00, 
1522.00, 
1523.00, 
1524.00, 
1525.00, 
1526.00, 
1527.00, 
1528.00, 
1529.00, 
1530.00, 
1531.00, 
1532.00, 
1533.00, 
1534.00, 
1535.00, 
1536.00, 
1537.00, 
1538.00, 
1539.00, 
1540.00, 
1541.00, 
1542.00, 
1543.00, 
1544.00, 
1545.00, 
1546.00, 
1547.00, 
1548.00, 
1549.00, 
1550.00, 
1551.00, 
1552.00, 
1553.00, 
1554.00, 
1555.00, 
1556.00, 
1557.00, 
1558.00, 
1559.00, 
1560.00, 
1561.00, 
1562.00, 
1563.00, 
1564.00, 
1565.00, 
1566.00, 
1567.00, 
1568.00, 
1569.00, 
1570.00, 
1571.00, 
1572.00, 
1573.00, 
1574.00, 
1575.00, 
1576.00, 
1577.00, 
1578.00, 
1579.00, 
1580.00, 
1581.00, 
1582.00, 
1583.00, 
1584.00, 
1585.00, 
1586.00, 
1587.00, 
1588.00, 
1589.00, 
1590.00, 
1591.00, 
1592.00, 
1593.00, 
1594.00, 
1595.00, 
1596.00, 
1597.00, 
1598.00, 
1599.00, 
1600.00, 
1601.00, 
1602.00, 
1603.00, 
1604.00, 
1605.00, 
1606.00, 
1607.00, 
1608.00, 
1609.00, 
1610.00, 
1611.00, 
1612.00, 
1613.00, 
1614.00, 
1615.00, 
1616.00, 
1617.00, 
1618.00, 
1619.00, 
1620.00, 
1621.00, 
1622.00, 
1623.00, 
1624.00, 
1625.00, 
1626.00, 
1627.00, 
1628.00, 
1629.00, 
1630.00, 
1631.00, 
1632.00, 
1633.00, 
1634.00, 
1635.00, 
1636.00, 
1637.00, 
1638.00, 
1639.00, 
1640.00, 
1641.00, 
1642.00, 
1643.00, 
1644.00, 
1645.00, 
1646.00, 
1647.00, 
1648.00, 
1649.00, 
1650.00, 
1651.00, 
1652.00, 
1653.00, 
1654.00, 
1655.00, 
1656.00, 
1657.00, 
1658.00, 
1659.00, 
1660.00, 
1661.00, 
1662.00, 
1663.00, 
1664.00, 
1665.00, 
1666.00, 
1667.00, 
1668.00, 
1669.00, 
1670.00, 
1671.00, 
1672.00, 
1673.00, 
1674.00, 
1675.00, 
1676.00, 
1677.00, 
1678.00, 
1679.00, 
1680.00, 
1681.00, 
1682.00, 
1683.00, 
1684.00, 
1685.00, 
1686.00, 
1687.00, 
1688.00, 
1689.00, 
1690.00, 
1691.00, 
1692.00, 
1693.00, 
1694.00, 
1695.00, 
1696.00, 
1697.00, 
1698.00, 
1699.00, 
1700.00, 
1701.00, 
1702.00, 
1703.00, 
1704.00, 
1705.00, 
1706.00, 
1707.00, 
1708.00, 
1709.00, 
1710.00, 
1711.00, 
1712.00, 
1713.00, 
1714.00, 
1715.00, 
1716.00, 
1717.00, 
1718.00, 
1719.00, 
1720.00, 
1721.00, 
1722.00, 
1723.00, 
1724.00, 
1725.00, 
1726.00, 
1727.00, 
1728.00, 
1729.00, 
1730.00, 
1731.00, 
1732.00, 
1733.00, 
1734.00, 
1735.00, 
1736.00, 
1737.00, 
1738.00, 
1739.00, 
1740.00, 
1741.00, 
1742.00, 
1743.00, 
1744.00, 
1745.00, 
1746.00, 
1747.00, 
1748.00, 
1749.00, 
1750.00, 
1751.00, 
1752.00, 
1753.00, 
1754.00, 
1755.00, 
1756.00, 
1757.00, 
1758.00, 
1759.00, 
1760.00, 
1761.00, 
1762.00, 
1763.00, 
1764.00, 
1765.00, 
1766.00, 
1767.00, 
1768.00, 
1769.00, 
1770.00, 
1771.00, 
1772.00, 
1773.00, 
1774.00, 
1775.00, 
1776.00, 
1777.00, 
1778.00, 
1779.00, 
1780.00, 
1781.00, 
1782.00, 
1783.00, 
1784.00, 
1785.00, 
1786.00, 
1787.00, 
1788.00, 
1789.00, 
1790.00, 
1791.00, 
1792.00, 
1793.00, 
1794.00, 
1795.00, 
1796.00, 
1797.00, 
1798.00, 
1799.00, 
1800.00, 
1801.00, 
1802.00, 
1803.00, 
1804.00, 
1805.00, 
1806.00, 
1807.00, 
1808.00, 
1809.00, 
1810.00, 
1811.00, 
1812.00, 
1813.00, 
1814.00, 
1815.00, 
1816.00, 
1817.00, 
1818.00, 
1819.00, 
1820.00, 
1821.00, 
1822.00, 
1823.00, 
1824.00, 
1825.00, 
1826.00, 
1827.00, 
1828.00, 
1829.00, 
1830.00, 
1831.00, 
1832.00, 
1833.00, 
1834.00, 
1835.00, 
1836.00, 
1837.00, 
1838.00, 
1839.00, 
1840.00, 
1841.00, 
1842.00, 
1843.00, 
1844.00, 
1845.00, 
1846.00, 
1847.00, 
1848.00, 
1849.00, 
1850.00, 
1851.00, 
1852.00, 
1853.00, 
1854.00, 
1855.00, 
1856.00, 
1857.00, 
1858.00, 
1859.00, 
1860.00, 
1861.00, 
1862.00, 
1863.00, 
1864.00, 
1865.00, 
1866.00, 
1867.00, 
1868.00, 
1869.00, 
1870.00, 
1871.00, 
1872.00, 
1873.00, 
1874.00, 
1875.00, 
1876.00, 
1877.00, 
1878.00, 
1879.00, 
1880.00, 
1881.00, 
1882.00, 
1883.00, 
1884.00, 
1885.00, 
1886.00, 
1887.00, 
1888.00, 
1889.00, 
1890.00, 
1891.00, 
1892.00, 
1893.00, 
1894.00, 
1895.00, 
1896.00, 
1897.00, 
1898.00, 
1899.00, 
1900.00, 
1901.00, 
1902.00, 
1903.00, 
1904.00, 
1905.00, 
1906.00, 
1907.00, 
1908.00, 
1909.00, 
1910.00, 
1911.00, 
1912.00, 
1913.00, 
1914.00, 
1915.00, 
1916.00, 
1917.00, 
1918.00, 
1919.00, 
1920.00, 
1921.00, 
1922.00, 
1923.00, 
1924.00, 
1925.00, 
1926.00, 
1927.00, 
1928.00, 
1929.00, 
1930.00, 
1931.00, 
1932.00, 
1933.00, 
1934.00, 
1935.00, 
1936.00, 
1937.00, 
1938.00, 
1939.00, 
1940.00, 
1941.00, 
1942.00, 
1943.00, 
1944.00, 
1945.00, 
1946.00, 
1947.00, 
1948.00, 
1949.00, 
1950.00, 
1951.00, 
1952.00, 
1953.00, 
1954.00, 
1955.00, 
1956.00, 
1957.00, 
1958.00, 
1959.00, 
1960.00, 
1961.00, 
1962.00, 
1963.00, 
1964.00, 
1965.00, 
1966.00, 
1967.00, 
1968.00, 
1969.00, 
1970.00, 
1971.00, 
1972.00, 
1973.00, 
1974.00, 
1975.00, 
1976.00, 
1977.00, 
1978.00, 
1979.00, 
1980.00, 
1981.00, 
1982.00, 
1983.00, 
1984.00, 
1985.00, 
1986.00, 
1987.00, 
1988.00, 
1989.00, 
1990.00, 
1991.00, 
1992.00, 
1993.00, 
1994.00, 
1995.00, 
1996.00, 
1997.00, 
1998.00, 
1999.00, 
2000.00, 
2001.00, 
2002.00, 
2003.00, 
2004.00, 
2005.00, 
2006.00, 
2007.00, 
2008.00, 
2009.00, 
2010.00, 
2011.00, 
2012.00, 
2013.00, 
2014.00, 
2015.00, 
2016.00, 
2017.00, 
2018.00, 
2019.00, 
2020.00, 
2021.00, 
2022.00, 
2023.00, 
2024.00, 
2025.00, 
2026.00, 
2027.00, 
2028.00, 
2029.00, 
2030.00, 
2031.00, 
2032.00, 
2033.00, 
2034.00, 
2035.00, 
2036.00, 
2037.00, 
2038.00, 
2039.00, 
2040.00, 
2041.00, 
2042.00, 
2043.00, 
2044.00, 
2045.00, 
2046.00, 
2047.00, 
2048.00, 
2049.00, 
2050.00, 
2051.00, 
2052.00, 
2053.00, 
2054.00, 
2055.00, 
2056.00, 
2057.00, 
2058.00, 
2059.00, 
2060.00, 
2061.00, 
2062.00, 
2063.00, 
2064.00, 
2065.00, 
2066.00, 
2067.00, 
2068.00, 
2069.00, 
2070.00, 
2071.00, 
2072.00, 
2073.00, 
2074.00, 
2075.00, 
2076.00, 
2077.00, 
2078.00, 
2079.00, 
2080.00, 
2081.00, 
2082.00, 
2083.00, 
2084.00, 
2085.00, 
2086.00, 
2087.00, 
2088.00, 
2089.00, 
2090.00, 
2091.00, 
2092.00, 
2093.00, 
2094.00, 
2095.00, 
2096.00, 
2097.00, 
2098.00, 
2099.00, 
2100.00, 
2101.00, 
2102.00, 
2103.00, 
2104.00, 
2105.00, 
2106.00, 
2107.00, 
2108.00, 
2109.00, 
2110.00, 
2111.00, 
2112.00, 
2113.00, 
2114.00, 
2115.00, 
2116.00, 
2117.00, 
2118.00, 
2119.00, 
2120.00, 
2121.00, 
2122.00, 
2123.00, 
2124.00, 
2125.00, 
2126.00, 
2127.00, 
2128.00, 
2129.00, 
2130.00, 
2131.00, 
2132.00, 
2133.00, 
2134.00, 
2135.00, 
2136.00, 
2137.00, 
2138.00, 
2139.00, 
2140.00, 
2141.00, 
2142.00, 
2143.00, 
2144.00, 
2145.00, 
2146.00, 
2147.00, 
2148.00, 
2149.00, 
2150.00, 
2151.00, 
2152.00, 
2153.00, 
2154.00, 
2155.00, 
2156.00, 
2157.00, 
2158.00, 
2159.00, 
2160.00, 
2161.00, 
2162.00, 
2163.00, 
2164.00, 
2165.00, 
2166.00, 
2167.00, 
2168.00, 
2169.00, 
2170.00, 
2171.00, 
2172.00, 
2173.00, 
2174.00, 
2175.00, 
2176.00, 
2177.00, 
2178.00, 
2179.00, 
2180.00, 
2181.00, 
2182.00, 
2183.00, 
2184.00, 
2185.00, 
2186.00, 
2187.00, 
2188.00, 
2189.00, 
2190.00, 
2191.00, 
2192.00, 
2193.00, 
2194.00, 
2195.00, 
2196.00, 
2197.00, 
2198.00, 
2199.00, 
2200.00, 
2201.00, 
2202.00, 
2203.00, 
2204.00, 
2205.00, 
2206.00, 
2207.00, 
2208.00, 
2209.00, 
2210.00, 
2211.00, 
2212.00, 
2213.00, 
2214.00, 
2215.00, 
2216.00, 
2217.00, 
2218.00, 
2219.00, 
2220.00, 
2221.00, 
2222.00, 
2223.00, 
2224.00, 
2225.00, 
2226.00, 
2227.00, 
2228.00, 
2229.00, 
2230.00, 
2231.00, 
2232.00, 
2233.00, 
2234.00, 
2235.00, 
2236.00, 
2237.00, 
2238.00, 
2239.00, 
2240.00, 
2241.00, 
2242.00, 
2243.00, 
2244.00, 
2245.00, 
2246.00, 
2247.00, 
2248.00, 
2249.00, 
2250.00, 
2251.00, 
2252.00, 
2253.00, 
2254.00, 
2255.00, 
2256.00, 
2257.00, 
2258.00, 
2259.00, 
2260.00, 
2261.00, 
2262.00, 
2263.00, 
2264.00, 
2265.00, 
2266.00, 
2267.00, 
2268.00, 
2269.00, 
2270.00, 
2271.00, 
2272.00, 
2273.00, 
2274.00, 
2275.00, 
2276.00, 
2277.00, 
2278.00, 
2279.00, 
2280.00, 
2281.00, 
2282.00, 
2283.00, 
2284.00, 
2285.00, 
2286.00, 
2287.00, 
2288.00, 
2289.00, 
2290.00, 
2291.00, 
2292.00, 
2293.00, 
2294.00, 
2295.00, 
2296.00, 
2297.00, 
2298.00, 
2299.00, 
2300.00, 
2301.00, 
2302.00, 
2303.00, 
2304.00, 
2305.00, 
2306.00, 
2307.00, 
2308.00, 
2309.00, 
2310.00, 
2311.00, 
2312.00, 
2313.00, 
2314.00, 
2315.00, 
2316.00, 
2317.00, 
2318.00, 
2319.00, 
2320.00, 
2321.00, 
2322.00, 
2323.00, 
2324.00, 
2325.00, 
2326.00, 
2327.00, 
2328.00, 
2329.00, 
2330.00, 
2331.00, 
2332.00, 
2333.00, 
2334.00, 
2335.00, 
2336.00, 
2337.00, 
2338.00, 
2339.00, 
2340.00, 
2341.00, 
2342.00, 
2343.00, 
2344.00, 
2345.00, 
2346.00, 
2347.00, 
2348.00, 
2349.00, 
2350.00, 
2351.00, 
2352.00, 
2353.00, 
2354.00, 
2355.00, 
2356.00, 
2357.00, 
2358.00, 
2359.00, 
2360.00, 
2361.00, 
2362.00, 
2363.00, 
2364.00, 
2365.00, 
2366.00, 
2367.00, 
2368.00, 
2369.00, 
2370.00, 
2371.00, 
2372.00, 
2373.00, 
2374.00, 
2375.00, 
2376.00, 
2377.00, 
2378.00, 
2379.00, 
2380.00, 
2381.00, 
2382.00, 
2383.00, 
2384.00, 
2385.00, 
2386.00, 
2387.00, 
2388.00, 
2389.00, 
2390.00, 
2391.00, 
2392.00, 
2393.00, 
2394.00, 
2395.00, 
2396.00, 
2397.00, 
2398.00, 
2399.00, 
2400.00, 
2401.00, 
2402.00, 
2403.00, 
2404.00, 
2405.00, 
2406.00, 
2407.00, 
2408.00, 
2409.00, 
2410.00, 
2411.00, 
2412.00, 
2413.00, 
2414.00, 
2415.00, 
2416.00, 
2417.00, 
2418.00, 
2419.00, 
2420.00, 
2421.00, 
2422.00, 
2423.00, 
2424.00, 
2425.00, 
2426.00, 
2427.00, 
2428.00, 
2429.00, 
2430.00, 
2431.00, 
2432.00, 
2433.00, 
2434.00, 
2435.00, 
2436.00, 
2437.00, 
2438.00, 
2439.00, 
2440.00, 
2441.00, 
2442.00, 
2443.00, 
2444.00, 
2445.00, 
2446.00, 
2447.00, 
2448.00, 
2449.00, 
2450.00, 
2451.00, 
2452.00, 
2453.00, 
2454.00, 
2455.00, 
2456.00, 
2457.00, 
2458.00, 
2459.00, 
2460.00, 
2461.00, 
2462.00, 
2463.00, 
2464.00, 
2465.00, 
2466.00, 
2467.00, 
2468.00, 
2469.00, 
2470.00, 
2471.00, 
2472.00, 
2473.00, 
2474.00, 
2475.00, 
2476.00, 
2477.00, 
2478.00, 
2479.00, 
2480.00, 
2481.00, 
2482.00, 
2483.00, 
2484.00, 
2485.00, 
2486.00, 
2487.00, 
2488.00, 
2489.00, 
2490.00, 
2491.00, 
2492.00, 
2493.00, 
2494.00, 
2495.00, 
2496.00, 
2497.00, 
2498.00, 
2499.00, 
2500.00, 
2501.00, 
2502.00, 
2503.00, 
2504.00, 
2505.00, 
2506.00, 
2507.00, 
2508.00, 
2509.00, 
2510.00, 
2511.00, 
2512.00, 
2513.00, 
2514.00, 
2515.00, 
2516.00, 
2517.00, 
2518.00, 
2519.00, 
2520.00, 
2521.00, 
2522.00, 
2523.00, 
2524.00, 
2525.00, 
2526.00, 
2527.00, 
2528.00, 
2529.00, 
2530.00, 
2531.00, 
2532.00, 
2533.00, 
2534.00, 
2535.00, 
2536.00, 
2537.00, 
2538.00, 
2539.00, 
2540.00, 
2541.00, 
2542.00, 
2543.00, 
2544.00, 
2545.00, 
2546.00, 
2547.00, 
2548.00, 
2549.00, 
2550.00, 
2551.00, 
2552.00, 
2553.00, 
2554.00, 
2555.00, 
2556.00, 
2557.00, 
2558.00, 
2559.00, 
2560.00, 
2561.00, 
2562.00, 
2563.00, 
2564.00, 
2565.00, 
2566.00, 
2567.00, 
2568.00, 
2569.00, 
2570.00, 
2571.00, 
2572.00, 
2573.00, 
2574.00, 
2575.00, 
2576.00, 
2577.00, 
2578.00, 
2579.00, 
2580.00, 
2581.00, 
2582.00, 
2583.00, 
2584.00, 
2585.00, 
2586.00, 
2587.00, 
2588.00, 
2589.00, 
2590.00, 
2591.00, 
2592.00, 
2593.00, 
2594.00, 
2595.00, 
2596.00, 
2597.00, 
2598.00, 
2599.00, 
2600.00, 
