"1cP1 - RawData"
"Wavelength nm.","T%"
200.00,-0.000
201.00,-0.001
202.00,0.000
203.00,0.002
204.00,0.002
205.00,0.002
206.00,0.001
207.00,0.000
208.00,0.001
209.00,-0.002
210.00,-0.002
211.00,0.000
212.00,-0.001
213.00,0.003
214.00,0.001
215.00,0.001
216.00,0.005
217.00,-0.002
218.00,0.002
219.00,-0.000
220.00,0.001
221.00,0.000
222.00,-0.002
223.00,-0.002
224.00,0.001
225.00,-0.000
226.00,0.001
227.00,-0.001
228.00,0.001
229.00,0.002
230.00,0.002
231.00,-0.001
232.00,-0.001
233.00,0.000
234.00,-0.000
235.00,-0.001
236.00,-0.000
237.00,-0.001
238.00,0.000
239.00,0.001
240.00,-0.001
241.00,-0.000
242.00,-0.000
243.00,0.001
244.00,0.000
245.00,-0.002
246.00,-0.001
247.00,0.002
248.00,-0.000
249.00,-0.001
250.00,0.001
251.00,-0.002
252.00,0.001
253.00,-0.000
254.00,-0.000
255.00,0.001
256.00,-0.001
257.00,-0.001
258.00,0.001
259.00,-0.000
260.00,-0.001
261.00,0.001
262.00,0.001
263.00,0.003
264.00,-0.000
265.00,-0.000
266.00,-0.002
267.00,-0.001
268.00,-0.000
269.00,-0.001
270.00,0.001
271.00,-0.000
272.00,0.001
273.00,-0.000
274.00,0.001
275.00,-0.002
276.00,-0.000
277.00,0.000
278.00,-0.000
279.00,0.001
280.00,0.002
281.00,0.000
282.00,-0.000
283.00,0.002
284.00,0.000
285.00,-0.001
286.00,0.001
287.00,0.001
288.00,-0.001
289.00,0.000
290.00,0.002
291.00,0.001
292.00,-0.001
293.00,-0.002
294.00,0.001
295.00,-0.000
296.00,0.000
297.00,-0.000
298.00,-0.000
299.00,0.001
300.00,0.001
301.00,0.001
302.00,0.001
303.00,-0.000
304.00,0.001
305.00,0.003
306.00,0.000
307.00,0.001
308.00,0.007
309.00,0.010
310.00,0.017
311.00,0.022
312.00,0.038
313.00,0.060
314.00,0.087
315.00,0.130
316.00,0.183
317.00,0.256
318.00,0.354
319.00,0.469
320.00,0.640
321.00,0.824
322.00,1.047
323.00,1.331
324.00,1.630
325.00,1.987
326.00,2.339
327.00,2.782
328.00,3.245
329.00,3.756
330.00,4.279
331.00,4.828
332.00,5.417
333.00,6.073
334.00,6.689
335.00,7.348
336.00,8.011
337.00,8.704
338.00,9.369
339.00,10.024
340.00,10.645
341.00,11.328
342.00,11.907
343.00,12.530
344.00,13.143
345.00,13.663
346.00,14.120
347.00,14.633
348.00,15.171
349.00,15.636
350.00,16.023
351.00,16.460
352.00,16.782
353.00,17.142
354.00,17.487
355.00,17.830
356.00,18.057
357.00,18.316
358.00,18.561
359.00,18.853
360.00,19.066
361.00,19.214
362.00,19.433
363.00,19.601
364.00,19.704
365.00,19.798
366.00,19.889
367.00,19.959
368.00,20.045
369.00,20.081
370.00,20.157
371.00,20.243
372.00,20.122
373.00,20.155
374.00,20.134
375.00,20.077
376.00,19.969
377.00,19.911
378.00,19.805
379.00,19.704
380.00,19.721
381.00,19.661
382.00,19.650
383.00,19.704
384.00,19.701
385.00,19.758
386.00,19.804
387.00,19.910
388.00,19.947
389.00,19.960
390.00,20.012
391.00,20.044
392.00,20.059
393.00,20.101
394.00,20.111
395.00,20.154
396.00,20.123
397.00,20.119
398.00,20.157
399.00,20.112
400.00,20.138
401.00,20.120
402.00,20.148
403.00,20.138
404.00,20.090
405.00,20.066
406.00,20.059
407.00,20.011
408.00,20.019
409.00,19.932
410.00,19.905
411.00,19.905
412.00,19.857
413.00,19.866
414.00,19.840
415.00,19.826
416.00,19.870
417.00,19.864
418.00,19.883
419.00,19.971
420.00,19.997
421.00,19.989
422.00,20.009
423.00,20.066
424.00,20.074
425.00,20.093
426.00,20.105
427.00,20.165
428.00,20.213
429.00,20.246
430.00,20.287
431.00,20.321
432.00,20.419
433.00,20.401
434.00,20.474
435.00,20.530
436.00,20.563
437.00,20.628
438.00,20.684
439.00,20.743
440.00,20.810
441.00,20.910
442.00,20.945
443.00,21.048
444.00,21.140
445.00,21.190
446.00,21.294
447.00,21.380
448.00,21.498
449.00,21.583
450.00,21.661
451.00,21.757
452.00,21.873
453.00,21.977
454.00,22.050
455.00,22.195
456.00,22.312
457.00,22.402
458.00,22.500
459.00,22.636
460.00,22.812
461.00,22.883
462.00,22.995
463.00,23.135
464.00,23.275
465.00,23.404
466.00,23.521
467.00,23.668
468.00,23.761
469.00,23.845
470.00,23.955
471.00,24.047
472.00,24.163
473.00,24.248
474.00,24.376
475.00,24.507
476.00,24.604
477.00,24.723
478.00,24.853
479.00,25.028
480.00,25.144
481.00,25.264
482.00,25.426
483.00,25.569
484.00,25.735
485.00,25.903
486.00,26.043
487.00,26.166
488.00,26.327
489.00,26.443
490.00,26.641
491.00,26.765
492.00,26.906
493.00,27.111
494.00,27.266
495.00,27.277
496.00,27.385
497.00,27.523
498.00,27.697
499.00,27.791
500.00,27.925
501.00,28.057
502.00,28.131
503.00,28.342
504.00,28.405
505.00,28.551
506.00,28.668
507.00,28.795
508.00,28.917
509.00,29.071
510.00,29.189
511.00,29.296
512.00,29.386
513.00,29.585
514.00,29.752
515.00,29.766
516.00,29.852
517.00,30.038
518.00,30.199
519.00,30.268
520.00,30.299
521.00,30.469
522.00,30.524
523.00,30.604
524.00,30.711
525.00,30.856
526.00,30.961
527.00,31.042
528.00,31.092
529.00,31.319
530.00,31.433
531.00,31.476
532.00,31.620
533.00,31.744
534.00,31.843
535.00,31.923
536.00,32.019
537.00,32.074
538.00,32.181
539.00,32.236
540.00,32.276
541.00,32.331
542.00,32.371
543.00,32.482
544.00,32.556
545.00,32.656
546.00,32.694
547.00,32.803
548.00,32.945
549.00,32.990
550.00,32.990
551.00,33.104
552.00,33.165
553.00,33.231
554.00,33.397
555.00,33.316
556.00,33.393
557.00,33.448
558.00,33.610
559.00,33.714
560.00,33.740
561.00,33.776
562.00,33.929
563.00,33.934
564.00,34.017
565.00,33.993
566.00,33.983
567.00,34.056
568.00,34.071
569.00,34.239
570.00,34.223
571.00,34.114
572.00,34.215
573.00,34.337
574.00,34.336
575.00,34.411
576.00,34.434
577.00,34.505
578.00,34.585
579.00,34.647
580.00,34.646
581.00,34.865
582.00,34.907
583.00,34.884
584.00,34.991
585.00,35.067
586.00,35.091
587.00,35.151
588.00,35.171
589.00,35.183
590.00,35.273
591.00,35.321
592.00,35.290
593.00,35.340
594.00,35.447
595.00,35.505
596.00,35.531
597.00,35.613
598.00,35.692
599.00,35.756
600.00,35.763
601.00,35.768
602.00,35.764
603.00,35.861
604.00,35.952
605.00,35.995
606.00,36.055
607.00,36.052
608.00,36.221
609.00,36.326
610.00,36.151
611.00,36.259
612.00,36.277
613.00,36.331
614.00,36.380
615.00,36.475
616.00,36.581
617.00,36.550
618.00,36.605
619.00,36.642
620.00,36.670
621.00,36.781
622.00,36.781
623.00,36.914
624.00,36.999
625.00,37.012
626.00,37.029
627.00,37.176
628.00,37.155
629.00,37.222
630.00,37.263
631.00,37.342
632.00,37.434
633.00,37.529
634.00,37.585
635.00,37.715
636.00,37.764
637.00,37.863
638.00,37.901
639.00,38.009
640.00,38.068
641.00,38.066
642.00,38.172
643.00,38.245
644.00,38.317
645.00,38.411
646.00,38.629
647.00,38.635
648.00,38.645
649.00,38.678
650.00,38.659
651.00,38.918
652.00,38.989
653.00,39.033
654.00,39.069
655.00,39.258
656.00,39.553
657.00,39.427
658.00,39.524
659.00,39.641
660.00,39.685
661.00,39.702
662.00,39.806
663.00,39.937
664.00,40.076
665.00,40.337
666.00,40.058
667.00,40.206
668.00,40.317
669.00,41.026
670.00,40.872
671.00,40.723
672.00,40.906
673.00,40.920
674.00,41.020
675.00,41.176
676.00,41.303
677.00,41.479
678.00,41.284
679.00,41.491
680.00,41.614
681.00,41.774
682.00,41.749
683.00,41.762
684.00,41.883
685.00,42.085
686.00,42.037
687.00,42.124
688.00,42.186
689.00,42.305
690.00,42.529
691.00,42.835
692.00,42.544
693.00,42.611
694.00,42.775
695.00,42.976
696.00,43.082
697.00,43.030
698.00,43.205
699.00,43.414
700.00,43.434
701.00,43.414
702.00,43.608
703.00,43.765
704.00,43.739
705.00,43.757
706.00,43.935
707.00,43.960
708.00,43.917
709.00,44.237
710.00,44.565
711.00,44.073
712.00,44.309
713.00,44.496
714.00,44.512
715.00,44.617
716.00,44.597
717.00,44.824
718.00,44.901
719.00,44.840
720.00,44.986
721.00,49.408
722.00,49.375
723.00,49.474
724.00,49.436
725.00,49.491
726.00,49.524
727.00,49.450
728.00,49.658
729.00,49.729
730.00,49.654
731.00,49.666
732.00,49.715
733.00,49.796
734.00,49.791
735.00,49.892
736.00,49.879
737.00,49.884
738.00,50.001
739.00,50.025
740.00,50.068
741.00,50.112
742.00,50.117
743.00,50.158
744.00,50.105
745.00,50.137
746.00,50.137
747.00,50.141
748.00,50.174
749.00,50.204
750.00,50.203
751.00,50.279
752.00,50.319
753.00,50.249
754.00,50.301
755.00,50.239
756.00,50.267
757.00,50.275
758.00,50.299
759.00,50.361
760.00,50.284
761.00,50.429
762.00,50.389
763.00,50.443
764.00,50.450
765.00,50.451
766.00,50.426
767.00,50.473
768.00,50.485
769.00,50.434
770.00,50.572
771.00,50.426
772.00,50.504
773.00,50.531
774.00,50.560
775.00,50.638
776.00,50.557
777.00,50.575
778.00,50.654
779.00,50.665
780.00,50.572
781.00,50.668
782.00,50.632
783.00,50.562
784.00,50.611
785.00,50.563
786.00,50.667
787.00,50.609
788.00,50.582
789.00,50.610
790.00,50.499
791.00,50.653
792.00,50.540
793.00,50.532
794.00,50.598
795.00,50.484
796.00,50.553
797.00,50.440
798.00,50.508
799.00,50.455
800.00,50.400
801.00,50.457
802.00,50.476
803.00,50.511
804.00,50.478
805.00,50.444
806.00,50.434
807.00,50.454
808.00,50.447
809.00,50.315
810.00,50.346
811.00,50.354
812.00,50.369
813.00,50.240
814.00,50.250
815.00,50.348
816.00,50.332
817.00,50.275
818.00,50.244
819.00,50.262
820.00,50.215
821.00,50.231
822.00,50.207
823.00,50.184
824.00,50.218
825.00,50.107
826.00,50.152
827.00,50.219
828.00,50.204
829.00,50.208
830.00,50.250
831.00,52.488
832.00,52.472
833.00,52.408
834.00,52.453
835.00,52.402
836.00,52.368
837.00,52.346
838.00,52.319
839.00,52.354
840.00,52.278
841.00,52.328
842.00,52.277
843.00,52.272
844.00,52.269
845.00,52.199
846.00,52.255
847.00,52.211
848.00,52.176
849.00,52.126
850.00,52.099
851.00,52.029
852.00,52.047
853.00,52.007
854.00,51.997
855.00,51.985
856.00,51.965
857.00,51.911
858.00,51.886
859.00,51.898
860.00,51.910
861.00,51.908
862.00,51.796
863.00,51.817
864.00,51.753
865.00,51.802
866.00,51.778
867.00,51.776
868.00,51.781
869.00,51.742
870.00,51.756
871.00,51.719
872.00,51.743
873.00,51.675
874.00,51.690
875.00,51.650
876.00,51.666
877.00,51.652
878.00,51.670
879.00,51.630
880.00,51.604
881.00,51.599
882.00,51.614
883.00,51.574
884.00,51.535
885.00,51.519
886.00,51.525
887.00,51.496
888.00,51.481
889.00,51.466
890.00,51.448
891.00,51.568
892.00,51.412
893.00,51.395
894.00,51.396
895.00,51.347
896.00,51.345
897.00,51.330
898.00,51.302
899.00,51.305
900.00,51.263
901.00,51.276
902.00,51.290
903.00,51.258
904.00,51.233
905.00,51.216
906.00,51.235
907.00,51.170
908.00,51.160
909.00,51.136
910.00,51.111
911.00,51.109
912.00,51.084
913.00,51.061
914.00,51.016
915.00,51.086
916.00,50.983
917.00,50.960
918.00,50.950
919.00,50.937
920.00,50.922
921.00,50.917
922.00,50.890
923.00,50.880
924.00,50.854
925.00,50.859
926.00,50.851
927.00,50.805
928.00,50.782
929.00,50.788
930.00,50.738
931.00,50.747
932.00,50.670
933.00,50.705
934.00,50.676
935.00,50.649
936.00,50.602
937.00,50.615
938.00,50.589
939.00,50.596
940.00,50.553
941.00,50.541
942.00,50.540
943.00,50.528
944.00,50.497
945.00,50.501
946.00,50.581
947.00,50.426
948.00,50.436
949.00,50.394
950.00,50.378
951.00,50.368
952.00,50.328
953.00,50.314
954.00,50.287
955.00,50.254
956.00,50.254
957.00,50.211
958.00,50.228
959.00,50.178
960.00,50.167
961.00,50.157
962.00,50.152
963.00,50.109
964.00,50.103
965.00,50.097
966.00,50.069
967.00,50.078
968.00,50.057
969.00,50.095
970.00,50.064
971.00,50.061
972.00,50.033
973.00,50.088
974.00,50.082
975.00,50.044
976.00,50.059
977.00,50.042
978.00,50.096
979.00,50.038
980.00,50.051
981.00,50.064
982.00,50.024
983.00,50.034
984.00,50.026
985.00,50.013
986.00,49.993
987.00,50.012
988.00,49.974
989.00,49.972
990.00,49.969
991.00,49.944
992.00,49.975
993.00,49.933
994.00,49.927
995.00,49.909
996.00,49.922
997.00,49.927
998.00,49.906
999.00,49.886
1000.00,49.829
1001.00,49.836
1002.00,49.845
1003.00,49.835
1004.00,49.803
1005.00,49.784
1006.00,49.810
1007.00,49.787
1008.00,49.787
1009.00,49.756
1010.00,49.731
1011.00,49.721
1012.00,49.718
1013.00,49.685
1014.00,49.681
1015.00,49.700
1016.00,49.655
1017.00,49.651
1018.00,49.663
1019.00,49.608
1020.00,49.613
1021.00,49.567
1022.00,49.601
1023.00,49.527
1024.00,49.531
1025.00,49.523
1026.00,49.505
1027.00,49.474
1028.00,49.476
1029.00,49.448
1030.00,49.434
1031.00,49.438
1032.00,49.383
1033.00,49.413
1034.00,49.378
1035.00,49.343
1036.00,49.330
1037.00,49.309
1038.00,49.312
1039.00,49.273
1040.00,49.270
1041.00,49.234
1042.00,49.230
1043.00,49.191
1044.00,49.230
1045.00,49.197
1046.00,49.172
1047.00,49.205
1048.00,49.200
1049.00,49.228
1050.00,49.240
1051.00,49.279
1052.00,49.299
1053.00,49.296
1054.00,49.282
1055.00,49.325
1056.00,49.316
1057.00,49.322
1058.00,49.306
1059.00,49.289
1060.00,49.316
1061.00,49.284
1062.00,49.270
1063.00,49.290
1064.00,49.284
1065.00,49.263
1066.00,49.254
1067.00,49.252
1068.00,49.296
1069.00,49.229
1070.00,49.208
1071.00,49.194
1072.00,49.215
1073.00,49.184
1074.00,49.185
1075.00,49.166
1076.00,49.161
1077.00,49.166
1078.00,49.137
1079.00,49.146
1080.00,49.172
1081.00,49.133
1082.00,49.151
1083.00,49.160
1084.00,49.136
1085.00,49.144
1086.00,49.113
1087.00,49.119
1088.00,49.104
1089.00,49.088
1090.00,49.066
1091.00,49.078
1092.00,49.051
1093.00,49.045
1094.00,49.029
1095.00,49.025
1096.00,49.010
1097.00,49.015
1098.00,49.016
1099.00,49.000
1100.00,48.977
1101.00,48.977
1102.00,48.963
1103.00,48.958
1104.00,48.949
1105.00,48.937
1106.00,48.917
1107.00,48.932
1108.00,48.921
1109.00,48.912
1110.00,48.924
1111.00,48.907
1112.00,48.893
1113.00,48.893
1114.00,48.864
1115.00,48.879
1116.00,48.856
1117.00,48.837
1118.00,48.840
1119.00,48.830
1120.00,48.824
1121.00,48.817
1122.00,48.806
1123.00,48.806
1124.00,48.816
1125.00,48.809
1126.00,48.792
1127.00,48.810
1128.00,48.780
1129.00,48.783
1130.00,48.771
1131.00,48.759
1132.00,48.750
1133.00,48.745
1134.00,48.729
1135.00,48.721
1136.00,48.696
1137.00,48.712
1138.00,48.706
1139.00,48.717
1140.00,48.719
1141.00,48.719
1142.00,48.708
1143.00,48.753
1144.00,48.723
1145.00,48.707
1146.00,48.702
1147.00,48.702
1148.00,48.705
1149.00,48.725
1150.00,48.710
1151.00,48.715
1152.00,48.698
1153.00,48.683
1154.00,48.677
1155.00,48.690
1156.00,48.673
1157.00,48.697
1158.00,48.675
1159.00,48.701
1160.00,48.700
1161.00,48.686
1162.00,48.700
1163.00,48.688
1164.00,48.690
1165.00,48.688
1166.00,48.678
1167.00,48.659
1168.00,48.695
1169.00,48.672
1170.00,48.667
1171.00,48.666
1172.00,48.665
1173.00,48.654
1174.00,48.677
1175.00,48.669
1176.00,48.670
1177.00,48.642
1178.00,48.656
1179.00,48.679
1180.00,48.642
1181.00,48.674
1182.00,48.658
1183.00,48.643
1184.00,48.637
1185.00,48.649
1186.00,48.628
1187.00,48.637
1188.00,48.621
1189.00,48.612
1190.00,48.624
1191.00,48.611
1192.00,48.652
1193.00,48.634
1194.00,48.632
1195.00,48.636
1196.00,48.663
1197.00,48.647
1198.00,48.639
1199.00,48.630
1200.00,48.642
1201.00,48.673
1202.00,48.633
1203.00,48.638
1204.00,48.634
1205.00,48.641
1206.00,48.629
1207.00,48.633
1208.00,48.620
1209.00,48.644
1210.00,48.633
1211.00,48.636
1212.00,48.672
1213.00,48.620
1214.00,48.652
1215.00,48.644
1216.00,48.634
1217.00,48.649
1218.00,48.632
1219.00,48.654
1220.00,48.652
1221.00,48.662
1222.00,48.643
1223.00,48.668
1224.00,48.648
1225.00,48.641
1226.00,48.652
1227.00,48.640
1228.00,48.675
1229.00,48.658
1230.00,48.688
1231.00,48.687
1232.00,48.705
1233.00,48.706
1234.00,48.722
1235.00,48.717
1236.00,48.713
1237.00,48.732
1238.00,48.708
1239.00,48.725
1240.00,48.697
1241.00,48.706
1242.00,48.716
1243.00,48.715
1244.00,48.708
1245.00,48.747
1246.00,48.736
1247.00,48.727
1248.00,48.736
1249.00,48.762
1250.00,48.775
1251.00,48.756
1252.00,48.747
1253.00,48.755
1254.00,48.783
1255.00,48.765
1256.00,48.768
1257.00,48.747
1258.00,48.801
1259.00,48.799
1260.00,48.814
1261.00,48.821
1262.00,48.805
1263.00,48.811
1264.00,48.809
1265.00,48.811
1266.00,48.820
1267.00,48.829
1268.00,48.818
1269.00,48.839
1270.00,48.854
1271.00,48.843
1272.00,48.859
1273.00,48.869
1274.00,48.863
1275.00,48.886
1276.00,48.866
1277.00,48.883
1278.00,48.904
1279.00,48.919
1280.00,48.903
1281.00,48.931
1282.00,48.934
1283.00,48.909
1284.00,48.940
1285.00,48.905
1286.00,48.935
1287.00,48.918
1288.00,48.924
1289.00,48.935
1290.00,48.947
1291.00,48.949
1292.00,48.952
1293.00,48.946
1294.00,48.980
1295.00,48.989
1296.00,48.987
1297.00,49.009
1298.00,49.043
1299.00,49.010
1300.00,49.042
1301.00,49.024
1302.00,49.041
1303.00,49.041
1304.00,49.021
1305.00,49.049
1306.00,49.061
1307.00,49.049
1308.00,49.072
1309.00,49.082
1310.00,49.080
1311.00,49.080
1312.00,49.081
1313.00,49.105
1314.00,49.109
1315.00,49.122
1316.00,49.125
1317.00,49.159
1318.00,49.128
1319.00,49.146
1320.00,49.153
1321.00,49.323
1322.00,49.312
1323.00,49.297
1324.00,49.294
1325.00,49.275
1326.00,49.285
1327.00,49.270
1328.00,49.290
1329.00,49.295
1330.00,49.324
1331.00,49.313
1332.00,49.315
1333.00,49.326
1334.00,49.351
1335.00,49.383
1336.00,49.386
1337.00,49.441
1338.00,49.506
1339.00,49.538
1340.00,49.584
1341.00,49.672
1342.00,49.723
1343.00,49.779
1344.00,49.840
1345.00,49.871
1346.00,49.926
1347.00,49.938
1348.00,49.982
1349.00,49.987
1350.00,50.004
1351.00,50.033
1352.00,50.040
1353.00,50.070
1354.00,50.050
1355.00,49.988
1356.00,50.060
1357.00,50.053
1358.00,50.085
1359.00,50.083
1360.00,50.081
1361.00,50.110
1362.00,50.095
1363.00,50.144
1364.00,50.141
1365.00,50.068
1366.00,50.130
1367.00,50.077
1368.00,50.059
1369.00,50.097
1370.00,50.099
1371.00,50.084
1372.00,50.087
1373.00,50.091
1374.00,50.118
1375.00,50.079
1376.00,50.082
1377.00,50.078
1378.00,50.117
1379.00,50.067
1380.00,50.086
1381.00,50.093
1382.00,50.063
1383.00,50.107
1384.00,50.045
1385.00,50.071
1386.00,50.081
1387.00,50.049
1388.00,50.035
1389.00,50.058
1390.00,50.088
1391.00,50.076
1392.00,50.047
1393.00,50.060
1394.00,50.065
1395.00,50.085
1396.00,50.047
1397.00,50.086
1398.00,50.194
1399.00,50.083
1400.00,50.051
1401.00,50.063
1402.00,50.155
1403.00,50.100
1404.00,50.096
1405.00,50.119
1406.00,50.148
1407.00,50.143
1408.00,50.125
1409.00,50.139
1410.00,50.181
1411.00,50.171
1412.00,50.212
1413.00,50.175
1414.00,50.187
1415.00,50.214
1416.00,50.210
1417.00,50.244
1418.00,50.239
1419.00,50.244
1420.00,50.259
1421.00,50.323
1422.00,50.295
1423.00,50.318
1424.00,50.320
1425.00,50.342
1426.00,50.348
1427.00,50.353
1428.00,50.365
1429.00,50.414
1430.00,50.394
1431.00,50.418
1432.00,50.438
1433.00,50.453
1434.00,50.452
1435.00,50.518
1436.00,50.522
1437.00,50.517
1438.00,50.532
1439.00,50.570
1440.00,50.589
1441.00,50.581
1442.00,50.598
1443.00,50.620
1444.00,50.683
1445.00,50.644
1446.00,50.671
1447.00,50.701
1448.00,50.750
1449.00,50.732
1450.00,50.746
1451.00,50.761
1452.00,50.790
1453.00,50.795
1454.00,50.819
1455.00,50.833
1456.00,50.852
1457.00,50.832
1458.00,50.885
1459.00,50.904
1460.00,50.928
1461.00,50.933
1462.00,50.990
1463.00,50.978
1464.00,50.979
1465.00,51.012
1466.00,51.003
1467.00,51.038
1468.00,51.092
1469.00,51.043
1470.00,51.081
1471.00,51.083
1472.00,51.094
1473.00,51.122
1474.00,51.160
1475.00,51.153
1476.00,51.162
1477.00,51.155
1478.00,51.197
1479.00,51.206
1480.00,51.212
1481.00,51.226
1482.00,51.260
1483.00,51.267
1484.00,51.301
1485.00,51.285
1486.00,51.301
1487.00,51.333
1488.00,51.350
1489.00,51.342
1490.00,51.379
1491.00,51.382
1492.00,51.412
1493.00,51.381
1494.00,51.427
1495.00,51.424
1496.00,51.456
1497.00,51.435
1498.00,51.470
1499.00,51.475
1500.00,51.493
1501.00, 
1502.00, 
1503.00, 
1504.00, 
1505.00, 
1506.00, 
1507.00, 
1508.00, 
1509.00, 
1510.00, 
1511.00, 
1512.00, 
1513.00, 
1514.00, 
1515.00, 
1516.00, 
1517.00, 
1518.00, 
1519.00, 
1520.00, 
1521.00, 
1522.00, 
1523.00, 
1524.00, 
1525.00, 
1526.00, 
1527.00, 
1528.00, 
1529.00, 
1530.00, 
1531.00, 
1532.00, 
1533.00, 
1534.00, 
1535.00, 
1536.00, 
1537.00, 
1538.00, 
1539.00, 
1540.00, 
1541.00, 
1542.00, 
1543.00, 
1544.00, 
1545.00, 
1546.00, 
1547.00, 
1548.00, 
1549.00, 
1550.00, 
1551.00, 
1552.00, 
1553.00, 
1554.00, 
1555.00, 
1556.00, 
1557.00, 
1558.00, 
1559.00, 
1560.00, 
1561.00, 
1562.00, 
1563.00, 
1564.00, 
1565.00, 
1566.00, 
1567.00, 
1568.00, 
1569.00, 
1570.00, 
1571.00, 
1572.00, 
1573.00, 
1574.00, 
1575.00, 
1576.00, 
1577.00, 
1578.00, 
1579.00, 
1580.00, 
1581.00, 
1582.00, 
1583.00, 
1584.00, 
1585.00, 
1586.00, 
1587.00, 
1588.00, 
1589.00, 
1590.00, 
1591.00, 
1592.00, 
1593.00, 
1594.00, 
1595.00, 
1596.00, 
1597.00, 
1598.00, 
1599.00, 
1600.00, 
1601.00, 
1602.00, 
1603.00, 
1604.00, 
1605.00, 
1606.00, 
1607.00, 
1608.00, 
1609.00, 
1610.00, 
1611.00, 
1612.00, 
1613.00, 
1614.00, 
1615.00, 
1616.00, 
1617.00, 
1618.00, 
1619.00, 
1620.00, 
1621.00, 
1622.00, 
1623.00, 
1624.00, 
1625.00, 
1626.00, 
1627.00, 
1628.00, 
1629.00, 
1630.00, 
1631.00, 
1632.00, 
1633.00, 
1634.00, 
1635.00, 
1636.00, 
1637.00, 
1638.00, 
1639.00, 
1640.00, 
1641.00, 
1642.00, 
1643.00, 
1644.00, 
1645.00, 
1646.00, 
1647.00, 
1648.00, 
1649.00, 
1650.00, 
1651.00, 
1652.00, 
1653.00, 
1654.00, 
1655.00, 
1656.00, 
1657.00, 
1658.00, 
1659.00, 
1660.00, 
1661.00, 
1662.00, 
1663.00, 
1664.00, 
1665.00, 
1666.00, 
1667.00, 
1668.00, 
1669.00, 
1670.00, 
1671.00, 
1672.00, 
1673.00, 
1674.00, 
1675.00, 
1676.00, 
1677.00, 
1678.00, 
1679.00, 
1680.00, 
1681.00, 
1682.00, 
1683.00, 
1684.00, 
1685.00, 
1686.00, 
1687.00, 
1688.00, 
1689.00, 
1690.00, 
1691.00, 
1692.00, 
1693.00, 
1694.00, 
1695.00, 
1696.00, 
1697.00, 
1698.00, 
1699.00, 
1700.00, 
1701.00, 
1702.00, 
1703.00, 
1704.00, 
1705.00, 
1706.00, 
1707.00, 
1708.00, 
1709.00, 
1710.00, 
1711.00, 
1712.00, 
1713.00, 
1714.00, 
1715.00, 
1716.00, 
1717.00, 
1718.00, 
1719.00, 
1720.00, 
1721.00, 
1722.00, 
1723.00, 
1724.00, 
1725.00, 
1726.00, 
1727.00, 
1728.00, 
1729.00, 
1730.00, 
1731.00, 
1732.00, 
1733.00, 
1734.00, 
1735.00, 
1736.00, 
1737.00, 
1738.00, 
1739.00, 
1740.00, 
1741.00, 
1742.00, 
1743.00, 
1744.00, 
1745.00, 
1746.00, 
1747.00, 
1748.00, 
1749.00, 
1750.00, 
1751.00, 
1752.00, 
1753.00, 
1754.00, 
1755.00, 
1756.00, 
1757.00, 
1758.00, 
1759.00, 
1760.00, 
1761.00, 
1762.00, 
1763.00, 
1764.00, 
1765.00, 
1766.00, 
1767.00, 
1768.00, 
1769.00, 
1770.00, 
1771.00, 
1772.00, 
1773.00, 
1774.00, 
1775.00, 
1776.00, 
1777.00, 
1778.00, 
1779.00, 
1780.00, 
1781.00, 
1782.00, 
1783.00, 
1784.00, 
1785.00, 
1786.00, 
1787.00, 
1788.00, 
1789.00, 
1790.00, 
1791.00, 
1792.00, 
1793.00, 
1794.00, 
1795.00, 
1796.00, 
1797.00, 
1798.00, 
1799.00, 
1800.00, 
1801.00, 
1802.00, 
1803.00, 
1804.00, 
1805.00, 
1806.00, 
1807.00, 
1808.00, 
1809.00, 
1810.00, 
1811.00, 
1812.00, 
1813.00, 
1814.00, 
1815.00, 
1816.00, 
1817.00, 
1818.00, 
1819.00, 
1820.00, 
1821.00, 
1822.00, 
1823.00, 
1824.00, 
1825.00, 
1826.00, 
1827.00, 
1828.00, 
1829.00, 
1830.00, 
1831.00, 
1832.00, 
1833.00, 
1834.00, 
1835.00, 
1836.00, 
1837.00, 
1838.00, 
1839.00, 
1840.00, 
1841.00, 
1842.00, 
1843.00, 
1844.00, 
1845.00, 
1846.00, 
1847.00, 
1848.00, 
1849.00, 
1850.00, 
1851.00, 
1852.00, 
1853.00, 
1854.00, 
1855.00, 
1856.00, 
1857.00, 
1858.00, 
1859.00, 
1860.00, 
1861.00, 
1862.00, 
1863.00, 
1864.00, 
1865.00, 
1866.00, 
1867.00, 
1868.00, 
1869.00, 
1870.00, 
1871.00, 
1872.00, 
1873.00, 
1874.00, 
1875.00, 
1876.00, 
1877.00, 
1878.00, 
1879.00, 
1880.00, 
1881.00, 
1882.00, 
1883.00, 
1884.00, 
1885.00, 
1886.00, 
1887.00, 
1888.00, 
1889.00, 
1890.00, 
1891.00, 
1892.00, 
1893.00, 
1894.00, 
1895.00, 
1896.00, 
1897.00, 
1898.00, 
1899.00, 
1900.00, 
1901.00, 
1902.00, 
1903.00, 
1904.00, 
1905.00, 
1906.00, 
1907.00, 
1908.00, 
1909.00, 
1910.00, 
1911.00, 
1912.00, 
1913.00, 
1914.00, 
1915.00, 
1916.00, 
1917.00, 
1918.00, 
1919.00, 
1920.00, 
1921.00, 
1922.00, 
1923.00, 
1924.00, 
1925.00, 
1926.00, 
1927.00, 
1928.00, 
1929.00, 
1930.00, 
1931.00, 
1932.00, 
1933.00, 
1934.00, 
1935.00, 
1936.00, 
1937.00, 
1938.00, 
1939.00, 
1940.00, 
1941.00, 
1942.00, 
1943.00, 
1944.00, 
1945.00, 
1946.00, 
1947.00, 
1948.00, 
1949.00, 
1950.00, 
1951.00, 
1952.00, 
1953.00, 
1954.00, 
1955.00, 
1956.00, 
1957.00, 
1958.00, 
1959.00, 
1960.00, 
1961.00, 
1962.00, 
1963.00, 
1964.00, 
1965.00, 
1966.00, 
1967.00, 
1968.00, 
1969.00, 
1970.00, 
1971.00, 
1972.00, 
1973.00, 
1974.00, 
1975.00, 
1976.00, 
1977.00, 
1978.00, 
1979.00, 
1980.00, 
1981.00, 
1982.00, 
1983.00, 
1984.00, 
1985.00, 
1986.00, 
1987.00, 
1988.00, 
1989.00, 
1990.00, 
1991.00, 
1992.00, 
1993.00, 
1994.00, 
1995.00, 
1996.00, 
1997.00, 
1998.00, 
1999.00, 
2000.00, 
2001.00, 
2002.00, 
2003.00, 
2004.00, 
2005.00, 
2006.00, 
2007.00, 
2008.00, 
2009.00, 
2010.00, 
2011.00, 
2012.00, 
2013.00, 
2014.00, 
2015.00, 
2016.00, 
2017.00, 
2018.00, 
2019.00, 
2020.00, 
2021.00, 
2022.00, 
2023.00, 
2024.00, 
2025.00, 
2026.00, 
2027.00, 
2028.00, 
2029.00, 
2030.00, 
2031.00, 
2032.00, 
2033.00, 
2034.00, 
2035.00, 
2036.00, 
2037.00, 
2038.00, 
2039.00, 
2040.00, 
2041.00, 
2042.00, 
2043.00, 
2044.00, 
2045.00, 
2046.00, 
2047.00, 
2048.00, 
2049.00, 
2050.00, 
2051.00, 
2052.00, 
2053.00, 
2054.00, 
2055.00, 
2056.00, 
2057.00, 
2058.00, 
2059.00, 
2060.00, 
2061.00, 
2062.00, 
2063.00, 
2064.00, 
2065.00, 
2066.00, 
2067.00, 
2068.00, 
2069.00, 
2070.00, 
2071.00, 
2072.00, 
2073.00, 
2074.00, 
2075.00, 
2076.00, 
2077.00, 
2078.00, 
2079.00, 
2080.00, 
2081.00, 
2082.00, 
2083.00, 
2084.00, 
2085.00, 
2086.00, 
2087.00, 
2088.00, 
2089.00, 
2090.00, 
2091.00, 
2092.00, 
2093.00, 
2094.00, 
2095.00, 
2096.00, 
2097.00, 
2098.00, 
2099.00, 
2100.00, 
2101.00, 
2102.00, 
2103.00, 
2104.00, 
2105.00, 
2106.00, 
2107.00, 
2108.00, 
2109.00, 
2110.00, 
2111.00, 
2112.00, 
2113.00, 
2114.00, 
2115.00, 
2116.00, 
2117.00, 
2118.00, 
2119.00, 
2120.00, 
2121.00, 
2122.00, 
2123.00, 
2124.00, 
2125.00, 
2126.00, 
2127.00, 
2128.00, 
2129.00, 
2130.00, 
2131.00, 
2132.00, 
2133.00, 
2134.00, 
2135.00, 
2136.00, 
2137.00, 
2138.00, 
2139.00, 
2140.00, 
2141.00, 
2142.00, 
2143.00, 
2144.00, 
2145.00, 
2146.00, 
2147.00, 
2148.00, 
2149.00, 
2150.00, 
2151.00, 
2152.00, 
2153.00, 
2154.00, 
2155.00, 
2156.00, 
2157.00, 
2158.00, 
2159.00, 
2160.00, 
2161.00, 
2162.00, 
2163.00, 
2164.00, 
2165.00, 
2166.00, 
2167.00, 
2168.00, 
2169.00, 
2170.00, 
2171.00, 
2172.00, 
2173.00, 
2174.00, 
2175.00, 
2176.00, 
2177.00, 
2178.00, 
2179.00, 
2180.00, 
2181.00, 
2182.00, 
2183.00, 
2184.00, 
2185.00, 
2186.00, 
2187.00, 
2188.00, 
2189.00, 
2190.00, 
2191.00, 
2192.00, 
2193.00, 
2194.00, 
2195.00, 
2196.00, 
2197.00, 
2198.00, 
2199.00, 
2200.00, 
2201.00, 
2202.00, 
2203.00, 
2204.00, 
2205.00, 
2206.00, 
2207.00, 
2208.00, 
2209.00, 
2210.00, 
2211.00, 
2212.00, 
2213.00, 
2214.00, 
2215.00, 
2216.00, 
2217.00, 
2218.00, 
2219.00, 
2220.00, 
2221.00, 
2222.00, 
2223.00, 
2224.00, 
2225.00, 
2226.00, 
2227.00, 
2228.00, 
2229.00, 
2230.00, 
2231.00, 
2232.00, 
2233.00, 
2234.00, 
2235.00, 
2236.00, 
2237.00, 
2238.00, 
2239.00, 
2240.00, 
2241.00, 
2242.00, 
2243.00, 
2244.00, 
2245.00, 
2246.00, 
2247.00, 
2248.00, 
2249.00, 
2250.00, 
2251.00, 
2252.00, 
2253.00, 
2254.00, 
2255.00, 
2256.00, 
2257.00, 
2258.00, 
2259.00, 
2260.00, 
2261.00, 
2262.00, 
2263.00, 
2264.00, 
2265.00, 
2266.00, 
2267.00, 
2268.00, 
2269.00, 
2270.00, 
2271.00, 
2272.00, 
2273.00, 
2274.00, 
2275.00, 
2276.00, 
2277.00, 
2278.00, 
2279.00, 
2280.00, 
2281.00, 
2282.00, 
2283.00, 
2284.00, 
2285.00, 
2286.00, 
2287.00, 
2288.00, 
2289.00, 
2290.00, 
2291.00, 
2292.00, 
2293.00, 
2294.00, 
2295.00, 
2296.00, 
2297.00, 
2298.00, 
2299.00, 
2300.00, 
2301.00, 
2302.00, 
2303.00, 
2304.00, 
2305.00, 
2306.00, 
2307.00, 
2308.00, 
2309.00, 
2310.00, 
2311.00, 
2312.00, 
2313.00, 
2314.00, 
2315.00, 
2316.00, 
2317.00, 
2318.00, 
2319.00, 
2320.00, 
2321.00, 
2322.00, 
2323.00, 
2324.00, 
2325.00, 
2326.00, 
2327.00, 
2328.00, 
2329.00, 
2330.00, 
2331.00, 
2332.00, 
2333.00, 
2334.00, 
2335.00, 
2336.00, 
2337.00, 
2338.00, 
2339.00, 
2340.00, 
2341.00, 
2342.00, 
2343.00, 
2344.00, 
2345.00, 
2346.00, 
2347.00, 
2348.00, 
2349.00, 
2350.00, 
2351.00, 
2352.00, 
2353.00, 
2354.00, 
2355.00, 
2356.00, 
2357.00, 
2358.00, 
2359.00, 
2360.00, 
2361.00, 
2362.00, 
2363.00, 
2364.00, 
2365.00, 
2366.00, 
2367.00, 
2368.00, 
2369.00, 
2370.00, 
2371.00, 
2372.00, 
2373.00, 
2374.00, 
2375.00, 
2376.00, 
2377.00, 
2378.00, 
2379.00, 
2380.00, 
2381.00, 
2382.00, 
2383.00, 
2384.00, 
2385.00, 
2386.00, 
2387.00, 
2388.00, 
2389.00, 
2390.00, 
2391.00, 
2392.00, 
2393.00, 
2394.00, 
2395.00, 
2396.00, 
2397.00, 
2398.00, 
2399.00, 
2400.00, 
2401.00, 
2402.00, 
2403.00, 
2404.00, 
2405.00, 
2406.00, 
2407.00, 
2408.00, 
2409.00, 
2410.00, 
2411.00, 
2412.00, 
2413.00, 
2414.00, 
2415.00, 
2416.00, 
2417.00, 
2418.00, 
2419.00, 
2420.00, 
2421.00, 
2422.00, 
2423.00, 
2424.00, 
2425.00, 
2426.00, 
2427.00, 
2428.00, 
2429.00, 
2430.00, 
2431.00, 
2432.00, 
2433.00, 
2434.00, 
2435.00, 
2436.00, 
2437.00, 
2438.00, 
2439.00, 
2440.00, 
2441.00, 
2442.00, 
2443.00, 
2444.00, 
2445.00, 
2446.00, 
2447.00, 
2448.00, 
2449.00, 
2450.00, 
2451.00, 
2452.00, 
2453.00, 
2454.00, 
2455.00, 
2456.00, 
2457.00, 
2458.00, 
2459.00, 
2460.00, 
2461.00, 
2462.00, 
2463.00, 
2464.00, 
2465.00, 
2466.00, 
2467.00, 
2468.00, 
2469.00, 
2470.00, 
2471.00, 
2472.00, 
2473.00, 
2474.00, 
2475.00, 
2476.00, 
2477.00, 
2478.00, 
2479.00, 
2480.00, 
2481.00, 
2482.00, 
2483.00, 
2484.00, 
2485.00, 
2486.00, 
2487.00, 
2488.00, 
2489.00, 
2490.00, 
2491.00, 
2492.00, 
2493.00, 
2494.00, 
2495.00, 
2496.00, 
2497.00, 
2498.00, 
2499.00, 
2500.00, 
2501.00, 
2502.00, 
2503.00, 
2504.00, 
2505.00, 
2506.00, 
2507.00, 
2508.00, 
2509.00, 
2510.00, 
2511.00, 
2512.00, 
2513.00, 
2514.00, 
2515.00, 
2516.00, 
2517.00, 
2518.00, 
2519.00, 
2520.00, 
2521.00, 
2522.00, 
2523.00, 
2524.00, 
2525.00, 
2526.00, 
2527.00, 
2528.00, 
2529.00, 
2530.00, 
2531.00, 
2532.00, 
2533.00, 
2534.00, 
2535.00, 
2536.00, 
2537.00, 
2538.00, 
2539.00, 
2540.00, 
2541.00, 
2542.00, 
2543.00, 
2544.00, 
2545.00, 
2546.00, 
2547.00, 
2548.00, 
2549.00, 
2550.00, 
2551.00, 
2552.00, 
2553.00, 
2554.00, 
2555.00, 
2556.00, 
2557.00, 
2558.00, 
2559.00, 
2560.00, 
2561.00, 
2562.00, 
2563.00, 
2564.00, 
2565.00, 
2566.00, 
2567.00, 
2568.00, 
2569.00, 
2570.00, 
2571.00, 
2572.00, 
2573.00, 
2574.00, 
2575.00, 
2576.00, 
2577.00, 
2578.00, 
2579.00, 
2580.00, 
2581.00, 
2582.00, 
2583.00, 
2584.00, 
2585.00, 
2586.00, 
2587.00, 
2588.00, 
2589.00, 
2590.00, 
2591.00, 
2592.00, 
2593.00, 
2594.00, 
2595.00, 
2596.00, 
2597.00, 
2598.00, 
2599.00, 
2600.00, 
