"1cP2 - RawData"
"Wavelength nm.","T%"
200.00,0.001
201.00,-0.001
202.00,0.001
203.00,0.002
204.00,0.001
205.00,0.002
206.00,0.001
207.00,0.000
208.00,-0.001
209.00,0.001
210.00,0.001
211.00,0.000
212.00,-0.001
213.00,0.000
214.00,0.000
215.00,0.001
216.00,-0.000
217.00,0.003
218.00,0.002
219.00,0.000
220.00,0.001
221.00,-0.001
222.00,0.001
223.00,-0.002
224.00,-0.001
225.00,0.001
226.00,-0.001
227.00,0.001
228.00,0.001
229.00,0.003
230.00,0.001
231.00,0.001
232.00,0.000
233.00,0.001
234.00,0.001
235.00,0.002
236.00,0.001
237.00,0.000
238.00,-0.001
239.00,0.002
240.00,0.000
241.00,-0.001
242.00,-0.001
243.00,0.002
244.00,0.003
245.00,0.001
246.00,0.001
247.00,-0.001
248.00,0.000
249.00,-0.001
250.00,-0.000
251.00,0.001
252.00,-0.000
253.00,0.001
254.00,0.000
255.00,-0.001
256.00,0.002
257.00,0.001
258.00,0.002
259.00,-0.000
260.00,0.000
261.00,-0.000
262.00,-0.000
263.00,-0.002
264.00,0.000
265.00,0.001
266.00,0.001
267.00,-0.001
268.00,-0.000
269.00,-0.000
270.00,0.000
271.00,0.000
272.00,-0.000
273.00,0.001
274.00,-0.001
275.00,0.001
276.00,0.000
277.00,0.000
278.00,-0.001
279.00,-0.001
280.00,0.000
281.00,-0.000
282.00,0.001
283.00,0.000
284.00,0.000
285.00,0.001
286.00,0.002
287.00,-0.000
288.00,0.001
289.00,0.000
290.00,-0.002
291.00,-0.001
292.00,-0.000
293.00,0.000
294.00,0.001
295.00,0.001
296.00,-0.000
297.00,0.001
298.00,0.002
299.00,0.000
300.00,-0.001
301.00,0.003
302.00,0.000
303.00,0.001
304.00,0.001
305.00,0.002
306.00,0.001
307.00,0.005
308.00,0.010
309.00,0.013
310.00,0.023
311.00,0.033
312.00,0.058
313.00,0.088
314.00,0.137
315.00,0.197
316.00,0.284
317.00,0.400
318.00,0.546
319.00,0.736
320.00,0.977
321.00,1.268
322.00,1.631
323.00,2.080
324.00,2.565
325.00,3.081
326.00,3.681
327.00,4.348
328.00,5.107
329.00,5.891
330.00,6.746
331.00,7.665
332.00,8.488
333.00,9.655
334.00,10.643
335.00,11.697
336.00,12.765
337.00,13.878
338.00,14.946
339.00,15.992
340.00,17.083
341.00,18.152
342.00,19.166
343.00,20.212
344.00,21.228
345.00,22.103
346.00,22.986
347.00,23.773
348.00,24.657
349.00,25.412
350.00,26.125
351.00,26.820
352.00,27.447
353.00,28.077
354.00,28.657
355.00,29.279
356.00,29.690
357.00,30.214
358.00,30.680
359.00,31.167
360.00,31.608
361.00,31.895
362.00,32.318
363.00,32.599
364.00,32.839
365.00,33.076
366.00,33.309
367.00,33.445
368.00,33.681
369.00,33.794
370.00,33.941
371.00,34.102
372.00,33.986
373.00,34.128
374.00,34.117
375.00,34.020
376.00,33.934
377.00,33.879
378.00,33.770
379.00,33.683
380.00,33.706
381.00,33.694
382.00,33.713
383.00,33.817
384.00,33.939
385.00,34.062
386.00,34.146
387.00,34.399
388.00,34.519
389.00,34.581
390.00,34.727
391.00,34.815
392.00,34.926
393.00,34.959
394.00,35.029
395.00,35.100
396.00,35.074
397.00,35.148
398.00,35.207
399.00,35.256
400.00,35.304
401.00,35.330
402.00,35.303
403.00,35.286
404.00,35.285
405.00,35.285
406.00,35.250
407.00,35.184
408.00,35.204
409.00,35.080
410.00,35.007
411.00,34.991
412.00,34.918
413.00,34.963
414.00,34.943
415.00,34.848
416.00,34.959
417.00,34.899
418.00,34.944
419.00,35.026
420.00,35.074
421.00,35.044
422.00,35.018
423.00,35.048
424.00,35.074
425.00,35.095
426.00,35.080
427.00,35.150
428.00,35.184
429.00,35.184
430.00,35.204
431.00,35.269
432.00,35.349
433.00,35.270
434.00,35.341
435.00,35.389
436.00,35.404
437.00,35.449
438.00,35.499
439.00,35.521
440.00,35.536
441.00,35.558
442.00,35.651
443.00,35.712
444.00,35.802
445.00,35.860
446.00,35.938
447.00,35.985
448.00,36.118
449.00,36.157
450.00,36.220
451.00,36.298
452.00,36.363
453.00,36.482
454.00,36.495
455.00,36.626
456.00,36.715
457.00,36.779
458.00,36.877
459.00,36.962
460.00,37.108
461.00,37.165
462.00,37.240
463.00,37.352
464.00,37.466
465.00,37.557
466.00,37.643
467.00,37.794
468.00,37.815
469.00,37.863
470.00,37.917
471.00,37.942
472.00,38.046
473.00,38.063
474.00,38.128
475.00,38.233
476.00,38.249
477.00,38.326
478.00,38.432
479.00,38.594
480.00,38.689
481.00,38.746
482.00,38.866
483.00,38.955
484.00,39.094
485.00,39.222
486.00,39.350
487.00,39.450
488.00,39.544
489.00,39.670
490.00,39.810
491.00,39.882
492.00,39.966
493.00,40.185
494.00,40.322
495.00,40.261
496.00,40.331
497.00,40.307
498.00,40.487
499.00,40.513
500.00,40.713
501.00,40.787
502.00,40.889
503.00,40.980
504.00,40.961
505.00,41.063
506.00,41.178
507.00,41.219
508.00,41.315
509.00,41.468
510.00,41.536
511.00,41.573
512.00,41.716
513.00,41.839
514.00,41.936
515.00,42.007
516.00,42.112
517.00,42.122
518.00,42.240
519.00,42.244
520.00,42.214
521.00,42.392
522.00,42.447
523.00,42.388
524.00,42.527
525.00,42.599
526.00,42.684
527.00,42.737
528.00,42.734
529.00,42.979
530.00,43.076
531.00,43.156
532.00,43.169
533.00,43.324
534.00,43.344
535.00,43.407
536.00,43.487
537.00,43.485
538.00,43.589
539.00,43.584
540.00,43.613
541.00,43.559
542.00,43.664
543.00,43.720
544.00,43.797
545.00,43.849
546.00,43.850
547.00,43.978
548.00,44.041
549.00,43.958
550.00,44.059
551.00,44.236
552.00,44.254
553.00,44.265
554.00,44.235
555.00,44.220
556.00,44.306
557.00,44.629
558.00,44.657
559.00,44.615
560.00,44.676
561.00,44.714
562.00,44.794
563.00,44.798
564.00,44.925
565.00,44.877
566.00,44.831
567.00,44.859
568.00,44.918
569.00,44.982
570.00,44.968
571.00,45.016
572.00,45.020
573.00,44.969
574.00,45.040
575.00,45.023
576.00,45.008
577.00,45.021
578.00,45.125
579.00,45.215
580.00,45.160
581.00,45.409
582.00,45.468
583.00,45.317
584.00,45.552
585.00,45.630
586.00,45.495
587.00,45.563
588.00,45.578
589.00,45.509
590.00,45.656
591.00,45.694
592.00,45.621
593.00,45.695
594.00,45.807
595.00,45.757
596.00,45.754
597.00,45.874
598.00,45.902
599.00,45.949
600.00,45.997
601.00,45.969
602.00,45.774
603.00,46.040
604.00,46.180
605.00,46.072
606.00,46.109
607.00,46.094
608.00,46.299
609.00,46.398
610.00,46.158
611.00,46.188
612.00,46.217
613.00,46.259
614.00,46.272
615.00,46.298
616.00,46.428
617.00,46.324
618.00,46.321
619.00,46.403
620.00,46.384
621.00,46.419
622.00,46.475
623.00,46.491
624.00,46.583
625.00,46.659
626.00,46.658
627.00,46.662
628.00,46.603
629.00,46.611
630.00,46.670
631.00,46.652
632.00,46.783
633.00,46.798
634.00,46.788
635.00,46.973
636.00,47.002
637.00,46.913
638.00,46.920
639.00,47.036
640.00,46.988
641.00,47.029
642.00,47.039
643.00,46.997
644.00,47.047
645.00,47.178
646.00,47.456
647.00,47.323
648.00,47.218
649.00,47.262
650.00,47.266
651.00,47.393
652.00,47.327
653.00,47.378
654.00,47.387
655.00,47.405
656.00,47.766
657.00,46.972
658.00,47.654
659.00,47.805
660.00,47.758
661.00,47.619
662.00,47.714
663.00,47.791
664.00,47.985
665.00,48.134
666.00,47.905
667.00,48.071
668.00,48.010
669.00,48.268
670.00,48.403
671.00,48.159
672.00,48.277
673.00,48.236
674.00,48.276
675.00,48.295
676.00,48.457
677.00,48.562
678.00,48.201
679.00,48.375
680.00,48.460
681.00,48.618
682.00,48.523
683.00,48.507
684.00,48.552
685.00,48.567
686.00,48.439
687.00,48.633
688.00,48.645
689.00,48.587
690.00,48.786
691.00,49.070
692.00,48.698
693.00,48.615
694.00,48.725
695.00,48.978
696.00,49.038
697.00,48.869
698.00,48.902
699.00,49.112
700.00,49.056
701.00,49.021
702.00,49.083
703.00,49.214
704.00,49.166
705.00,49.077
706.00,49.124
707.00,49.161
708.00,48.939
709.00,49.296
710.00,49.691
711.00,49.119
712.00,49.120
713.00,49.273
714.00,49.331
715.00,49.404
716.00,49.186
717.00,49.354
718.00,49.425
719.00,49.285
720.00,49.418
721.00,54.091
722.00,54.067
723.00,54.028
724.00,53.941
725.00,53.815
726.00,53.911
727.00,53.807
728.00,53.858
729.00,53.945
730.00,53.831
731.00,53.781
732.00,53.793
733.00,53.783
734.00,53.718
735.00,53.757
736.00,53.801
737.00,53.673
738.00,53.696
739.00,53.674
740.00,53.667
741.00,53.700
742.00,53.654
743.00,53.637
744.00,53.538
745.00,53.498
746.00,53.539
747.00,53.364
748.00,53.385
749.00,53.302
750.00,53.347
751.00,53.329
752.00,53.326
753.00,53.219
754.00,53.265
755.00,53.133
756.00,53.156
757.00,53.145
758.00,53.118
759.00,53.162
760.00,53.024
761.00,53.025
762.00,52.958
763.00,53.038
764.00,52.954
765.00,52.902
766.00,52.928
767.00,52.941
768.00,52.854
769.00,52.872
770.00,52.848
771.00,52.765
772.00,52.826
773.00,52.721
774.00,52.837
775.00,52.839
776.00,52.710
777.00,52.745
778.00,52.732
779.00,52.768
780.00,52.639
781.00,52.634
782.00,52.594
783.00,52.571
784.00,52.551
785.00,52.519
786.00,52.511
787.00,52.433
788.00,52.427
789.00,52.376
790.00,52.301
791.00,52.373
792.00,52.287
793.00,52.225
794.00,52.242
795.00,52.148
796.00,52.229
797.00,52.113
798.00,52.083
799.00,52.036
800.00,52.037
801.00,52.021
802.00,52.051
803.00,51.988
804.00,51.923
805.00,51.912
806.00,51.865
807.00,51.842
808.00,51.832
809.00,51.752
810.00,51.727
811.00,51.765
812.00,51.726
813.00,51.655
814.00,51.540
815.00,51.673
816.00,51.646
817.00,51.517
818.00,51.429
819.00,51.565
820.00,51.526
821.00,51.475
822.00,51.438
823.00,51.367
824.00,51.397
825.00,51.319
826.00,51.330
827.00,51.366
828.00,51.356
829.00,51.357
830.00,51.324
831.00,53.649
832.00,53.624
833.00,53.543
834.00,53.518
835.00,53.499
836.00,53.477
837.00,53.438
838.00,53.426
839.00,53.418
840.00,53.329
841.00,53.348
842.00,53.301
843.00,53.278
844.00,53.271
845.00,53.191
846.00,53.218
847.00,53.168
848.00,53.157
849.00,53.084
850.00,53.054
851.00,52.967
852.00,52.964
853.00,52.941
854.00,52.915
855.00,52.865
856.00,52.859
857.00,52.913
858.00,52.817
859.00,52.785
860.00,52.812
861.00,52.796
862.00,52.710
863.00,52.685
864.00,52.628
865.00,52.659
866.00,52.619
867.00,52.606
868.00,52.587
869.00,52.566
870.00,52.554
871.00,52.541
872.00,52.544
873.00,52.498
874.00,52.482
875.00,52.447
876.00,52.468
877.00,52.412
878.00,52.446
879.00,52.380
880.00,52.377
881.00,52.350
882.00,52.369
883.00,52.302
884.00,52.267
885.00,52.251
886.00,52.251
887.00,52.205
888.00,52.181
889.00,52.165
890.00,52.172
891.00,52.143
892.00,52.108
893.00,52.081
894.00,52.082
895.00,52.031
896.00,51.995
897.00,52.021
898.00,51.949
899.00,51.935
900.00,51.920
901.00,51.924
902.00,51.934
903.00,51.907
904.00,51.855
905.00,51.854
906.00,51.865
907.00,51.804
908.00,51.757
909.00,51.763
910.00,51.715
911.00,51.717
912.00,51.702
913.00,51.656
914.00,51.645
915.00,51.606
916.00,51.568
917.00,51.552
918.00,51.512
919.00,51.507
920.00,51.493
921.00,51.490
922.00,51.453
923.00,51.442
924.00,51.391
925.00,51.400
926.00,51.394
927.00,51.365
928.00,51.326
929.00,51.334
930.00,51.293
931.00,51.279
932.00,51.227
933.00,51.235
934.00,51.223
935.00,51.192
936.00,51.175
937.00,51.161
938.00,51.149
939.00,51.151
940.00,51.111
941.00,51.094
942.00,51.070
943.00,51.050
944.00,50.999
945.00,51.020
946.00,50.987
947.00,50.938
948.00,50.936
949.00,50.883
950.00,50.873
951.00,50.861
952.00,50.834
953.00,50.787
954.00,50.777
955.00,50.736
956.00,50.749
957.00,50.700
958.00,50.709
959.00,50.660
960.00,50.650
961.00,50.618
962.00,50.622
963.00,50.581
964.00,50.566
965.00,50.544
966.00,50.531
967.00,50.545
968.00,50.503
969.00,50.565
970.00,50.575
971.00,50.529
972.00,50.494
973.00,50.537
974.00,50.538
975.00,50.502
976.00,50.511
977.00,50.495
978.00,50.548
979.00,50.495
980.00,50.508
981.00,50.507
982.00,50.462
983.00,50.496
984.00,50.478
985.00,50.481
986.00,50.441
987.00,50.469
988.00,50.410
989.00,50.408
990.00,50.398
991.00,50.380
992.00,50.407
993.00,50.360
994.00,50.353
995.00,50.400
996.00,50.322
997.00,50.328
998.00,50.296
999.00,50.311
1000.00,50.280
1001.00,50.274
1002.00,50.253
1003.00,50.263
1004.00,50.223
1005.00,50.193
1006.00,50.233
1007.00,50.189
1008.00,50.183
1009.00,50.157
1010.00,50.147
1011.00,50.145
1012.00,50.107
1013.00,50.103
1014.00,50.084
1015.00,50.104
1016.00,50.112
1017.00,50.047
1018.00,50.048
1019.00,50.009
1020.00,50.006
1021.00,49.971
1022.00,49.972
1023.00,49.929
1024.00,49.946
1025.00,49.947
1026.00,49.913
1027.00,49.888
1028.00,49.903
1029.00,49.849
1030.00,49.825
1031.00,49.872
1032.00,49.782
1033.00,49.792
1034.00,49.755
1035.00,49.723
1036.00,49.715
1037.00,49.689
1038.00,49.679
1039.00,49.660
1040.00,49.652
1041.00,49.635
1042.00,49.643
1043.00,49.598
1044.00,49.651
1045.00,49.604
1046.00,49.586
1047.00,49.617
1048.00,49.609
1049.00,49.619
1050.00,49.611
1051.00,49.661
1052.00,49.666
1053.00,49.678
1054.00,49.665
1055.00,49.712
1056.00,49.709
1057.00,49.707
1058.00,49.704
1059.00,49.686
1060.00,49.699
1061.00,49.685
1062.00,49.653
1063.00,49.668
1064.00,49.647
1065.00,49.618
1066.00,49.632
1067.00,49.618
1068.00,49.640
1069.00,49.607
1070.00,49.614
1071.00,49.624
1072.00,49.613
1073.00,49.576
1074.00,49.573
1075.00,49.560
1076.00,49.570
1077.00,49.575
1078.00,49.540
1079.00,49.536
1080.00,49.541
1081.00,49.507
1082.00,49.505
1083.00,49.508
1084.00,49.503
1085.00,49.510
1086.00,49.487
1087.00,49.486
1088.00,49.470
1089.00,49.466
1090.00,49.440
1091.00,49.458
1092.00,49.458
1093.00,49.429
1094.00,49.412
1095.00,49.406
1096.00,49.392
1097.00,49.382
1098.00,49.366
1099.00,49.373
1100.00,49.364
1101.00,49.375
1102.00,49.354
1103.00,49.342
1104.00,49.331
1105.00,49.315
1106.00,49.291
1107.00,49.325
1108.00,49.288
1109.00,49.286
1110.00,49.300
1111.00,49.285
1112.00,49.270
1113.00,49.274
1114.00,49.254
1115.00,49.257
1116.00,49.239
1117.00,49.223
1118.00,49.216
1119.00,49.209
1120.00,49.207
1121.00,49.214
1122.00,49.211
1123.00,49.202
1124.00,49.197
1125.00,49.184
1126.00,49.173
1127.00,49.183
1128.00,49.156
1129.00,49.153
1130.00,49.137
1131.00,49.128
1132.00,49.119
1133.00,49.113
1134.00,49.102
1135.00,49.106
1136.00,49.103
1137.00,49.110
1138.00,49.118
1139.00,49.117
1140.00,49.117
1141.00,49.114
1142.00,49.094
1143.00,49.124
1144.00,49.082
1145.00,49.091
1146.00,49.081
1147.00,49.089
1148.00,49.076
1149.00,49.089
1150.00,49.078
1151.00,49.075
1152.00,49.068
1153.00,49.053
1154.00,49.050
1155.00,49.055
1156.00,49.039
1157.00,49.062
1158.00,49.038
1159.00,49.044
1160.00,49.036
1161.00,49.042
1162.00,49.046
1163.00,49.045
1164.00,49.049
1165.00,49.040
1166.00,49.035
1167.00,49.017
1168.00,49.059
1169.00,49.029
1170.00,49.031
1171.00,49.021
1172.00,49.023
1173.00,49.018
1174.00,49.023
1175.00,49.036
1176.00,49.050
1177.00,49.030
1178.00,49.038
1179.00,49.035
1180.00,49.007
1181.00,49.036
1182.00,49.037
1183.00,49.047
1184.00,49.042
1185.00,49.042
1186.00,49.023
1187.00,49.045
1188.00,49.028
1189.00,49.016
1190.00,49.028
1191.00,49.020
1192.00,49.044
1193.00,49.034
1194.00,49.035
1195.00,49.019
1196.00,49.051
1197.00,49.034
1198.00,49.027
1199.00,49.026
1200.00,49.017
1201.00,49.050
1202.00,49.011
1203.00,49.010
1204.00,49.011
1205.00,49.005
1206.00,49.012
1207.00,49.018
1208.00,49.008
1209.00,49.033
1210.00,49.011
1211.00,49.030
1212.00,49.049
1213.00,49.010
1214.00,49.042
1215.00,49.012
1216.00,49.008
1217.00,49.010
1218.00,49.006
1219.00,49.012
1220.00,49.014
1221.00,49.017
1222.00,49.006
1223.00,49.036
1224.00,49.015
1225.00,49.019
1226.00,49.025
1227.00,49.014
1228.00,49.037
1229.00,49.019
1230.00,49.064
1231.00,49.065
1232.00,49.076
1233.00,49.076
1234.00,49.094
1235.00,49.081
1236.00,49.074
1237.00,49.101
1238.00,49.077
1239.00,49.100
1240.00,49.080
1241.00,49.083
1242.00,49.106
1243.00,49.090
1244.00,49.089
1245.00,49.141
1246.00,49.115
1247.00,49.106
1248.00,49.116
1249.00,49.126
1250.00,49.134
1251.00,49.120
1252.00,49.131
1253.00,49.133
1254.00,49.150
1255.00,49.142
1256.00,49.136
1257.00,49.134
1258.00,49.163
1259.00,49.165
1260.00,49.205
1261.00,49.180
1262.00,49.171
1263.00,49.171
1264.00,49.175
1265.00,49.186
1266.00,49.189
1267.00,49.224
1268.00,49.204
1269.00,49.220
1270.00,49.260
1271.00,49.232
1272.00,49.272
1273.00,49.293
1274.00,49.253
1275.00,49.262
1276.00,49.243
1277.00,49.243
1278.00,49.258
1279.00,49.261
1280.00,49.264
1281.00,49.286
1282.00,49.279
1283.00,49.286
1284.00,49.303
1285.00,49.285
1286.00,49.309
1287.00,49.287
1288.00,49.292
1289.00,49.299
1290.00,49.328
1291.00,49.326
1292.00,49.330
1293.00,49.324
1294.00,49.353
1295.00,49.374
1296.00,49.359
1297.00,49.372
1298.00,49.418
1299.00,49.386
1300.00,49.417
1301.00,49.382
1302.00,49.411
1303.00,49.402
1304.00,49.420
1305.00,49.471
1306.00,49.427
1307.00,49.438
1308.00,49.446
1309.00,49.448
1310.00,49.430
1311.00,49.455
1312.00,49.457
1313.00,49.484
1314.00,49.500
1315.00,49.504
1316.00,49.493
1317.00,49.528
1318.00,49.500
1319.00,49.533
1320.00,49.523
1321.00,49.693
1322.00,49.692
1323.00,49.680
1324.00,49.678
1325.00,49.659
1326.00,49.693
1327.00,49.676
1328.00,49.667
1329.00,49.686
1330.00,49.695
1331.00,49.690
1332.00,49.687
1333.00,49.696
1334.00,49.721
1335.00,49.766
1336.00,49.776
1337.00,49.814
1338.00,49.882
1339.00,49.926
1340.00,49.978
1341.00,50.050
1342.00,50.104
1343.00,50.168
1344.00,50.218
1345.00,50.267
1346.00,50.306
1347.00,50.310
1348.00,50.354
1349.00,50.376
1350.00,50.388
1351.00,50.391
1352.00,50.425
1353.00,50.450
1354.00,50.422
1355.00,50.395
1356.00,50.446
1357.00,50.438
1358.00,50.474
1359.00,50.478
1360.00,50.463
1361.00,50.490
1362.00,50.449
1363.00,50.581
1364.00,50.463
1365.00,50.446
1366.00,50.530
1367.00,50.481
1368.00,50.479
1369.00,50.491
1370.00,50.481
1371.00,50.456
1372.00,50.466
1373.00,50.481
1374.00,50.495
1375.00,50.469
1376.00,50.485
1377.00,50.530
1378.00,50.618
1379.00,50.545
1380.00,50.555
1381.00,50.475
1382.00,50.465
1383.00,50.489
1384.00,50.425
1385.00,50.470
1386.00,50.479
1387.00,50.447
1388.00,50.449
1389.00,50.448
1390.00,50.511
1391.00,50.474
1392.00,50.455
1393.00,50.471
1394.00,50.448
1395.00,50.390
1396.00,50.399
1397.00,50.453
1398.00,50.488
1399.00,50.475
1400.00,50.416
1401.00,50.435
1402.00,50.568
1403.00,50.485
1404.00,50.472
1405.00,50.501
1406.00,50.539
1407.00,50.522
1408.00,50.528
1409.00,50.500
1410.00,50.587
1411.00,50.543
1412.00,50.583
1413.00,50.526
1414.00,50.547
1415.00,50.575
1416.00,50.593
1417.00,50.648
1418.00,50.622
1419.00,50.618
1420.00,50.638
1421.00,50.683
1422.00,50.685
1423.00,50.704
1424.00,50.696
1425.00,50.739
1426.00,50.733
1427.00,50.756
1428.00,50.751
1429.00,50.780
1430.00,50.801
1431.00,50.828
1432.00,50.866
1433.00,50.874
1434.00,50.866
1435.00,50.919
1436.00,50.922
1437.00,50.934
1438.00,50.944
1439.00,50.986
1440.00,50.985
1441.00,50.966
1442.00,50.995
1443.00,51.027
1444.00,51.085
1445.00,51.042
1446.00,51.069
1447.00,51.096
1448.00,51.140
1449.00,51.129
1450.00,51.139
1451.00,51.148
1452.00,51.176
1453.00,51.175
1454.00,51.214
1455.00,51.228
1456.00,51.238
1457.00,51.227
1458.00,51.275
1459.00,51.293
1460.00,51.314
1461.00,51.316
1462.00,51.371
1463.00,51.366
1464.00,51.383
1465.00,51.406
1466.00,51.393
1467.00,51.414
1468.00,51.466
1469.00,51.426
1470.00,51.460
1471.00,51.464
1472.00,51.472
1473.00,51.497
1474.00,51.515
1475.00,51.541
1476.00,51.560
1477.00,51.547
1478.00,51.579
1479.00,51.589
1480.00,51.582
1481.00,51.592
1482.00,51.621
1483.00,51.640
1484.00,51.667
1485.00,51.662
1486.00,51.695
1487.00,51.723
1488.00,51.746
1489.00,51.740
1490.00,51.763
1491.00,51.762
1492.00,51.790
1493.00,51.765
1494.00,51.817
1495.00,51.814
1496.00,51.832
1497.00,51.813
1498.00,51.840
1499.00,51.842
1500.00,51.870
1501.00, 
1502.00, 
1503.00, 
1504.00, 
1505.00, 
1506.00, 
1507.00, 
1508.00, 
1509.00, 
1510.00, 
1511.00, 
1512.00, 
1513.00, 
1514.00, 
1515.00, 
1516.00, 
1517.00, 
1518.00, 
1519.00, 
1520.00, 
1521.00, 
1522.00, 
1523.00, 
1524.00, 
1525.00, 
1526.00, 
1527.00, 
1528.00, 
1529.00, 
1530.00, 
1531.00, 
1532.00, 
1533.00, 
1534.00, 
1535.00, 
1536.00, 
1537.00, 
1538.00, 
1539.00, 
1540.00, 
1541.00, 
1542.00, 
1543.00, 
1544.00, 
1545.00, 
1546.00, 
1547.00, 
1548.00, 
1549.00, 
1550.00, 
1551.00, 
1552.00, 
1553.00, 
1554.00, 
1555.00, 
1556.00, 
1557.00, 
1558.00, 
1559.00, 
1560.00, 
1561.00, 
1562.00, 
1563.00, 
1564.00, 
1565.00, 
1566.00, 
1567.00, 
1568.00, 
1569.00, 
1570.00, 
1571.00, 
1572.00, 
1573.00, 
1574.00, 
1575.00, 
1576.00, 
1577.00, 
1578.00, 
1579.00, 
1580.00, 
1581.00, 
1582.00, 
1583.00, 
1584.00, 
1585.00, 
1586.00, 
1587.00, 
1588.00, 
1589.00, 
1590.00, 
1591.00, 
1592.00, 
1593.00, 
1594.00, 
1595.00, 
1596.00, 
1597.00, 
1598.00, 
1599.00, 
1600.00, 
1601.00, 
1602.00, 
1603.00, 
1604.00, 
1605.00, 
1606.00, 
1607.00, 
1608.00, 
1609.00, 
1610.00, 
1611.00, 
1612.00, 
1613.00, 
1614.00, 
1615.00, 
1616.00, 
1617.00, 
1618.00, 
1619.00, 
1620.00, 
1621.00, 
1622.00, 
1623.00, 
1624.00, 
1625.00, 
1626.00, 
1627.00, 
1628.00, 
1629.00, 
1630.00, 
1631.00, 
1632.00, 
1633.00, 
1634.00, 
1635.00, 
1636.00, 
1637.00, 
1638.00, 
1639.00, 
1640.00, 
1641.00, 
1642.00, 
1643.00, 
1644.00, 
1645.00, 
1646.00, 
1647.00, 
1648.00, 
1649.00, 
1650.00, 
1651.00, 
1652.00, 
1653.00, 
1654.00, 
1655.00, 
1656.00, 
1657.00, 
1658.00, 
1659.00, 
1660.00, 
1661.00, 
1662.00, 
1663.00, 
1664.00, 
1665.00, 
1666.00, 
1667.00, 
1668.00, 
1669.00, 
1670.00, 
1671.00, 
1672.00, 
1673.00, 
1674.00, 
1675.00, 
1676.00, 
1677.00, 
1678.00, 
1679.00, 
1680.00, 
1681.00, 
1682.00, 
1683.00, 
1684.00, 
1685.00, 
1686.00, 
1687.00, 
1688.00, 
1689.00, 
1690.00, 
1691.00, 
1692.00, 
1693.00, 
1694.00, 
1695.00, 
1696.00, 
1697.00, 
1698.00, 
1699.00, 
1700.00, 
1701.00, 
1702.00, 
1703.00, 
1704.00, 
1705.00, 
1706.00, 
1707.00, 
1708.00, 
1709.00, 
1710.00, 
1711.00, 
1712.00, 
1713.00, 
1714.00, 
1715.00, 
1716.00, 
1717.00, 
1718.00, 
1719.00, 
1720.00, 
1721.00, 
1722.00, 
1723.00, 
1724.00, 
1725.00, 
1726.00, 
1727.00, 
1728.00, 
1729.00, 
1730.00, 
1731.00, 
1732.00, 
1733.00, 
1734.00, 
1735.00, 
1736.00, 
1737.00, 
1738.00, 
1739.00, 
1740.00, 
1741.00, 
1742.00, 
1743.00, 
1744.00, 
1745.00, 
1746.00, 
1747.00, 
1748.00, 
1749.00, 
1750.00, 
1751.00, 
1752.00, 
1753.00, 
1754.00, 
1755.00, 
1756.00, 
1757.00, 
1758.00, 
1759.00, 
1760.00, 
1761.00, 
1762.00, 
1763.00, 
1764.00, 
1765.00, 
1766.00, 
1767.00, 
1768.00, 
1769.00, 
1770.00, 
1771.00, 
1772.00, 
1773.00, 
1774.00, 
1775.00, 
1776.00, 
1777.00, 
1778.00, 
1779.00, 
1780.00, 
1781.00, 
1782.00, 
1783.00, 
1784.00, 
1785.00, 
1786.00, 
1787.00, 
1788.00, 
1789.00, 
1790.00, 
1791.00, 
1792.00, 
1793.00, 
1794.00, 
1795.00, 
1796.00, 
1797.00, 
1798.00, 
1799.00, 
1800.00, 
1801.00, 
1802.00, 
1803.00, 
1804.00, 
1805.00, 
1806.00, 
1807.00, 
1808.00, 
1809.00, 
1810.00, 
1811.00, 
1812.00, 
1813.00, 
1814.00, 
1815.00, 
1816.00, 
1817.00, 
1818.00, 
1819.00, 
1820.00, 
1821.00, 
1822.00, 
1823.00, 
1824.00, 
1825.00, 
1826.00, 
1827.00, 
1828.00, 
1829.00, 
1830.00, 
1831.00, 
1832.00, 
1833.00, 
1834.00, 
1835.00, 
1836.00, 
1837.00, 
1838.00, 
1839.00, 
1840.00, 
1841.00, 
1842.00, 
1843.00, 
1844.00, 
1845.00, 
1846.00, 
1847.00, 
1848.00, 
1849.00, 
1850.00, 
1851.00, 
1852.00, 
1853.00, 
1854.00, 
1855.00, 
1856.00, 
1857.00, 
1858.00, 
1859.00, 
1860.00, 
1861.00, 
1862.00, 
1863.00, 
1864.00, 
1865.00, 
1866.00, 
1867.00, 
1868.00, 
1869.00, 
1870.00, 
1871.00, 
1872.00, 
1873.00, 
1874.00, 
1875.00, 
1876.00, 
1877.00, 
1878.00, 
1879.00, 
1880.00, 
1881.00, 
1882.00, 
1883.00, 
1884.00, 
1885.00, 
1886.00, 
1887.00, 
1888.00, 
1889.00, 
1890.00, 
1891.00, 
1892.00, 
1893.00, 
1894.00, 
1895.00, 
1896.00, 
1897.00, 
1898.00, 
1899.00, 
1900.00, 
1901.00, 
1902.00, 
1903.00, 
1904.00, 
1905.00, 
1906.00, 
1907.00, 
1908.00, 
1909.00, 
1910.00, 
1911.00, 
1912.00, 
1913.00, 
1914.00, 
1915.00, 
1916.00, 
1917.00, 
1918.00, 
1919.00, 
1920.00, 
1921.00, 
1922.00, 
1923.00, 
1924.00, 
1925.00, 
1926.00, 
1927.00, 
1928.00, 
1929.00, 
1930.00, 
1931.00, 
1932.00, 
1933.00, 
1934.00, 
1935.00, 
1936.00, 
1937.00, 
1938.00, 
1939.00, 
1940.00, 
1941.00, 
1942.00, 
1943.00, 
1944.00, 
1945.00, 
1946.00, 
1947.00, 
1948.00, 
1949.00, 
1950.00, 
1951.00, 
1952.00, 
1953.00, 
1954.00, 
1955.00, 
1956.00, 
1957.00, 
1958.00, 
1959.00, 
1960.00, 
1961.00, 
1962.00, 
1963.00, 
1964.00, 
1965.00, 
1966.00, 
1967.00, 
1968.00, 
1969.00, 
1970.00, 
1971.00, 
1972.00, 
1973.00, 
1974.00, 
1975.00, 
1976.00, 
1977.00, 
1978.00, 
1979.00, 
1980.00, 
1981.00, 
1982.00, 
1983.00, 
1984.00, 
1985.00, 
1986.00, 
1987.00, 
1988.00, 
1989.00, 
1990.00, 
1991.00, 
1992.00, 
1993.00, 
1994.00, 
1995.00, 
1996.00, 
1997.00, 
1998.00, 
1999.00, 
2000.00, 
2001.00, 
2002.00, 
2003.00, 
2004.00, 
2005.00, 
2006.00, 
2007.00, 
2008.00, 
2009.00, 
2010.00, 
2011.00, 
2012.00, 
2013.00, 
2014.00, 
2015.00, 
2016.00, 
2017.00, 
2018.00, 
2019.00, 
2020.00, 
2021.00, 
2022.00, 
2023.00, 
2024.00, 
2025.00, 
2026.00, 
2027.00, 
2028.00, 
2029.00, 
2030.00, 
2031.00, 
2032.00, 
2033.00, 
2034.00, 
2035.00, 
2036.00, 
2037.00, 
2038.00, 
2039.00, 
2040.00, 
2041.00, 
2042.00, 
2043.00, 
2044.00, 
2045.00, 
2046.00, 
2047.00, 
2048.00, 
2049.00, 
2050.00, 
2051.00, 
2052.00, 
2053.00, 
2054.00, 
2055.00, 
2056.00, 
2057.00, 
2058.00, 
2059.00, 
2060.00, 
2061.00, 
2062.00, 
2063.00, 
2064.00, 
2065.00, 
2066.00, 
2067.00, 
2068.00, 
2069.00, 
2070.00, 
2071.00, 
2072.00, 
2073.00, 
2074.00, 
2075.00, 
2076.00, 
2077.00, 
2078.00, 
2079.00, 
2080.00, 
2081.00, 
2082.00, 
2083.00, 
2084.00, 
2085.00, 
2086.00, 
2087.00, 
2088.00, 
2089.00, 
2090.00, 
2091.00, 
2092.00, 
2093.00, 
2094.00, 
2095.00, 
2096.00, 
2097.00, 
2098.00, 
2099.00, 
2100.00, 
2101.00, 
2102.00, 
2103.00, 
2104.00, 
2105.00, 
2106.00, 
2107.00, 
2108.00, 
2109.00, 
2110.00, 
2111.00, 
2112.00, 
2113.00, 
2114.00, 
2115.00, 
2116.00, 
2117.00, 
2118.00, 
2119.00, 
2120.00, 
2121.00, 
2122.00, 
2123.00, 
2124.00, 
2125.00, 
2126.00, 
2127.00, 
2128.00, 
2129.00, 
2130.00, 
2131.00, 
2132.00, 
2133.00, 
2134.00, 
2135.00, 
2136.00, 
2137.00, 
2138.00, 
2139.00, 
2140.00, 
2141.00, 
2142.00, 
2143.00, 
2144.00, 
2145.00, 
2146.00, 
2147.00, 
2148.00, 
2149.00, 
2150.00, 
2151.00, 
2152.00, 
2153.00, 
2154.00, 
2155.00, 
2156.00, 
2157.00, 
2158.00, 
2159.00, 
2160.00, 
2161.00, 
2162.00, 
2163.00, 
2164.00, 
2165.00, 
2166.00, 
2167.00, 
2168.00, 
2169.00, 
2170.00, 
2171.00, 
2172.00, 
2173.00, 
2174.00, 
2175.00, 
2176.00, 
2177.00, 
2178.00, 
2179.00, 
2180.00, 
2181.00, 
2182.00, 
2183.00, 
2184.00, 
2185.00, 
2186.00, 
2187.00, 
2188.00, 
2189.00, 
2190.00, 
2191.00, 
2192.00, 
2193.00, 
2194.00, 
2195.00, 
2196.00, 
2197.00, 
2198.00, 
2199.00, 
2200.00, 
2201.00, 
2202.00, 
2203.00, 
2204.00, 
2205.00, 
2206.00, 
2207.00, 
2208.00, 
2209.00, 
2210.00, 
2211.00, 
2212.00, 
2213.00, 
2214.00, 
2215.00, 
2216.00, 
2217.00, 
2218.00, 
2219.00, 
2220.00, 
2221.00, 
2222.00, 
2223.00, 
2224.00, 
2225.00, 
2226.00, 
2227.00, 
2228.00, 
2229.00, 
2230.00, 
2231.00, 
2232.00, 
2233.00, 
2234.00, 
2235.00, 
2236.00, 
2237.00, 
2238.00, 
2239.00, 
2240.00, 
2241.00, 
2242.00, 
2243.00, 
2244.00, 
2245.00, 
2246.00, 
2247.00, 
2248.00, 
2249.00, 
2250.00, 
2251.00, 
2252.00, 
2253.00, 
2254.00, 
2255.00, 
2256.00, 
2257.00, 
2258.00, 
2259.00, 
2260.00, 
2261.00, 
2262.00, 
2263.00, 
2264.00, 
2265.00, 
2266.00, 
2267.00, 
2268.00, 
2269.00, 
2270.00, 
2271.00, 
2272.00, 
2273.00, 
2274.00, 
2275.00, 
2276.00, 
2277.00, 
2278.00, 
2279.00, 
2280.00, 
2281.00, 
2282.00, 
2283.00, 
2284.00, 
2285.00, 
2286.00, 
2287.00, 
2288.00, 
2289.00, 
2290.00, 
2291.00, 
2292.00, 
2293.00, 
2294.00, 
2295.00, 
2296.00, 
2297.00, 
2298.00, 
2299.00, 
2300.00, 
2301.00, 
2302.00, 
2303.00, 
2304.00, 
2305.00, 
2306.00, 
2307.00, 
2308.00, 
2309.00, 
2310.00, 
2311.00, 
2312.00, 
2313.00, 
2314.00, 
2315.00, 
2316.00, 
2317.00, 
2318.00, 
2319.00, 
2320.00, 
2321.00, 
2322.00, 
2323.00, 
2324.00, 
2325.00, 
2326.00, 
2327.00, 
2328.00, 
2329.00, 
2330.00, 
2331.00, 
2332.00, 
2333.00, 
2334.00, 
2335.00, 
2336.00, 
2337.00, 
2338.00, 
2339.00, 
2340.00, 
2341.00, 
2342.00, 
2343.00, 
2344.00, 
2345.00, 
2346.00, 
2347.00, 
2348.00, 
2349.00, 
2350.00, 
2351.00, 
2352.00, 
2353.00, 
2354.00, 
2355.00, 
2356.00, 
2357.00, 
2358.00, 
2359.00, 
2360.00, 
2361.00, 
2362.00, 
2363.00, 
2364.00, 
2365.00, 
2366.00, 
2367.00, 
2368.00, 
2369.00, 
2370.00, 
2371.00, 
2372.00, 
2373.00, 
2374.00, 
2375.00, 
2376.00, 
2377.00, 
2378.00, 
2379.00, 
2380.00, 
2381.00, 
2382.00, 
2383.00, 
2384.00, 
2385.00, 
2386.00, 
2387.00, 
2388.00, 
2389.00, 
2390.00, 
2391.00, 
2392.00, 
2393.00, 
2394.00, 
2395.00, 
2396.00, 
2397.00, 
2398.00, 
2399.00, 
2400.00, 
2401.00, 
2402.00, 
2403.00, 
2404.00, 
2405.00, 
2406.00, 
2407.00, 
2408.00, 
2409.00, 
2410.00, 
2411.00, 
2412.00, 
2413.00, 
2414.00, 
2415.00, 
2416.00, 
2417.00, 
2418.00, 
2419.00, 
2420.00, 
2421.00, 
2422.00, 
2423.00, 
2424.00, 
2425.00, 
2426.00, 
2427.00, 
2428.00, 
2429.00, 
2430.00, 
2431.00, 
2432.00, 
2433.00, 
2434.00, 
2435.00, 
2436.00, 
2437.00, 
2438.00, 
2439.00, 
2440.00, 
2441.00, 
2442.00, 
2443.00, 
2444.00, 
2445.00, 
2446.00, 
2447.00, 
2448.00, 
2449.00, 
2450.00, 
2451.00, 
2452.00, 
2453.00, 
2454.00, 
2455.00, 
2456.00, 
2457.00, 
2458.00, 
2459.00, 
2460.00, 
2461.00, 
2462.00, 
2463.00, 
2464.00, 
2465.00, 
2466.00, 
2467.00, 
2468.00, 
2469.00, 
2470.00, 
2471.00, 
2472.00, 
2473.00, 
2474.00, 
2475.00, 
2476.00, 
2477.00, 
2478.00, 
2479.00, 
2480.00, 
2481.00, 
2482.00, 
2483.00, 
2484.00, 
2485.00, 
2486.00, 
2487.00, 
2488.00, 
2489.00, 
2490.00, 
2491.00, 
2492.00, 
2493.00, 
2494.00, 
2495.00, 
2496.00, 
2497.00, 
2498.00, 
2499.00, 
2500.00, 
2501.00, 
2502.00, 
2503.00, 
2504.00, 
2505.00, 
2506.00, 
2507.00, 
2508.00, 
2509.00, 
2510.00, 
2511.00, 
2512.00, 
2513.00, 
2514.00, 
2515.00, 
2516.00, 
2517.00, 
2518.00, 
2519.00, 
2520.00, 
2521.00, 
2522.00, 
2523.00, 
2524.00, 
2525.00, 
2526.00, 
2527.00, 
2528.00, 
2529.00, 
2530.00, 
2531.00, 
2532.00, 
2533.00, 
2534.00, 
2535.00, 
2536.00, 
2537.00, 
2538.00, 
2539.00, 
2540.00, 
2541.00, 
2542.00, 
2543.00, 
2544.00, 
2545.00, 
2546.00, 
2547.00, 
2548.00, 
2549.00, 
2550.00, 
2551.00, 
2552.00, 
2553.00, 
2554.00, 
2555.00, 
2556.00, 
2557.00, 
2558.00, 
2559.00, 
2560.00, 
2561.00, 
2562.00, 
2563.00, 
2564.00, 
2565.00, 
2566.00, 
2567.00, 
2568.00, 
2569.00, 
2570.00, 
2571.00, 
2572.00, 
2573.00, 
2574.00, 
2575.00, 
2576.00, 
2577.00, 
2578.00, 
2579.00, 
2580.00, 
2581.00, 
2582.00, 
2583.00, 
2584.00, 
2585.00, 
2586.00, 
2587.00, 
2588.00, 
2589.00, 
2590.00, 
2591.00, 
2592.00, 
2593.00, 
2594.00, 
2595.00, 
2596.00, 
2597.00, 
2598.00, 
2599.00, 
2600.00, 
