"1cP3 - RawData"
"Wavelength nm.","T%"
200.00,0.001
201.00,0.004
202.00,0.001
203.00,0.000
204.00,0.000
205.00,0.001
206.00,0.001
207.00,-0.001
208.00,0.002
209.00,0.001
210.00,-0.000
211.00,0.001
212.00,-0.001
213.00,0.001
214.00,0.001
215.00,0.001
216.00,-0.000
217.00,0.002
218.00,0.001
219.00,-0.003
220.00,-0.000
221.00,0.003
222.00,-0.000
223.00,0.000
224.00,-0.001
225.00,0.001
226.00,-0.000
227.00,0.000
228.00,-0.001
229.00,0.001
230.00,0.002
231.00,0.002
232.00,-0.000
233.00,0.000
234.00,-0.001
235.00,-0.000
236.00,-0.000
237.00,-0.001
238.00,0.000
239.00,-0.002
240.00,0.001
241.00,0.001
242.00,0.001
243.00,0.000
244.00,0.002
245.00,0.002
246.00,-0.001
247.00,-0.001
248.00,0.001
249.00,0.002
250.00,0.001
251.00,-0.000
252.00,-0.000
253.00,-0.000
254.00,0.002
255.00,0.000
256.00,-0.000
257.00,-0.001
258.00,-0.000
259.00,-0.000
260.00,-0.000
261.00,-0.000
262.00,0.003
263.00,-0.000
264.00,-0.000
265.00,-0.001
266.00,0.001
267.00,-0.001
268.00,0.000
269.00,-0.000
270.00,0.000
271.00,0.002
272.00,0.000
273.00,-0.000
274.00,0.001
275.00,-0.000
276.00,0.001
277.00,0.001
278.00,-0.000
279.00,-0.001
280.00,-0.001
281.00,-0.000
282.00,0.001
283.00,-0.001
284.00,0.000
285.00,-0.001
286.00,0.000
287.00,0.001
288.00,0.001
289.00,0.001
290.00,-0.001
291.00,-0.002
292.00,-0.000
293.00,-0.001
294.00,0.000
295.00,0.002
296.00,0.001
297.00,-0.000
298.00,0.002
299.00,0.001
300.00,-0.000
301.00,0.000
302.00,-0.002
303.00,0.001
304.00,0.001
305.00,0.000
306.00,0.001
307.00,0.002
308.00,0.004
309.00,0.011
310.00,0.016
311.00,0.024
312.00,0.040
313.00,0.062
314.00,0.095
315.00,0.138
316.00,0.199
317.00,0.280
318.00,0.375
319.00,0.516
320.00,0.683
321.00,0.882
322.00,1.128
323.00,1.430
324.00,1.767
325.00,2.113
326.00,2.512
327.00,2.992
328.00,3.515
329.00,4.018
330.00,4.612
331.00,5.213
332.00,5.877
333.00,6.574
334.00,7.223
335.00,7.938
336.00,8.642
337.00,9.416
338.00,10.152
339.00,10.855
340.00,11.555
341.00,12.282
342.00,12.915
343.00,13.623
344.00,14.298
345.00,14.860
346.00,15.403
347.00,15.962
348.00,16.546
349.00,17.024
350.00,17.480
351.00,17.926
352.00,18.312
353.00,18.758
354.00,19.093
355.00,19.493
356.00,19.794
357.00,20.043
358.00,20.378
359.00,20.733
360.00,20.963
361.00,21.095
362.00,21.339
363.00,21.511
364.00,21.687
365.00,21.803
366.00,21.904
367.00,22.030
368.00,22.153
369.00,22.176
370.00,22.266
371.00,22.343
372.00,22.240
373.00,22.324
374.00,22.318
375.00,22.209
376.00,22.114
377.00,22.084
378.00,21.979
379.00,21.887
380.00,21.886
381.00,21.874
382.00,21.900
383.00,21.926
384.00,21.954
385.00,22.045
386.00,22.067
387.00,22.164
388.00,22.278
389.00,22.296
390.00,22.363
391.00,22.393
392.00,22.429
393.00,22.470
394.00,22.508
395.00,22.557
396.00,22.572
397.00,22.475
398.00,22.562
399.00,22.534
400.00,22.589
401.00,22.617
402.00,22.601
403.00,22.569
404.00,22.546
405.00,22.519
406.00,22.526
407.00,22.474
408.00,22.475
409.00,22.386
410.00,22.335
411.00,22.331
412.00,22.275
413.00,22.302
414.00,22.297
415.00,22.266
416.00,22.349
417.00,22.296
418.00,22.334
419.00,22.405
420.00,22.462
421.00,22.403
422.00,22.435
423.00,22.406
424.00,22.501
425.00,22.490
426.00,22.533
427.00,22.594
428.00,22.626
429.00,22.658
430.00,22.714
431.00,22.761
432.00,22.819
433.00,22.784
434.00,22.861
435.00,22.913
436.00,22.937
437.00,23.008
438.00,23.050
439.00,23.110
440.00,23.174
441.00,23.247
442.00,23.319
443.00,23.379
444.00,23.471
445.00,23.541
446.00,23.621
447.00,23.683
448.00,23.810
449.00,23.905
450.00,23.983
451.00,24.048
452.00,24.142
453.00,24.266
454.00,24.327
455.00,24.439
456.00,24.561
457.00,24.634
458.00,24.727
459.00,24.859
460.00,24.994
461.00,25.070
462.00,25.176
463.00,25.309
464.00,25.438
465.00,25.541
466.00,25.646
467.00,25.788
468.00,25.849
469.00,25.892
470.00,25.987
471.00,26.080
472.00,26.269
473.00,26.281
474.00,26.419
475.00,26.529
476.00,26.621
477.00,26.728
478.00,26.853
479.00,27.043
480.00,27.128
481.00,27.232
482.00,27.398
483.00,27.503
484.00,27.678
485.00,27.788
486.00,27.941
487.00,28.058
488.00,28.172
489.00,28.323
490.00,28.510
491.00,28.652
492.00,28.750
493.00,28.963
494.00,29.100
495.00,29.034
496.00,29.188
497.00,29.207
498.00,29.366
499.00,29.552
500.00,29.618
501.00,29.771
502.00,29.906
503.00,29.977
504.00,30.018
505.00,30.167
506.00,30.322
507.00,30.403
508.00,30.547
509.00,30.690
510.00,30.786
511.00,30.879
512.00,30.966
513.00,31.095
514.00,31.237
515.00,31.372
516.00,31.522
517.00,31.580
518.00,31.739
519.00,31.808
520.00,31.812
521.00,31.943
522.00,32.089
523.00,32.125
524.00,32.246
525.00,32.355
526.00,32.428
527.00,32.516
528.00,32.587
529.00,32.789
530.00,32.942
531.00,32.952
532.00,33.035
533.00,33.153
534.00,33.259
535.00,33.338
536.00,33.431
537.00,33.482
538.00,33.575
539.00,33.622
540.00,33.714
541.00,33.772
542.00,33.780
543.00,33.853
544.00,33.976
545.00,34.010
546.00,34.068
547.00,34.193
548.00,34.278
549.00,34.286
550.00,34.387
551.00,34.512
552.00,34.578
553.00,34.614
554.00,34.722
555.00,34.743
556.00,34.794
557.00,34.928
558.00,34.953
559.00,35.031
560.00,35.106
561.00,35.144
562.00,35.302
563.00,35.254
564.00,35.344
565.00,35.385
566.00,35.329
567.00,35.412
568.00,35.487
569.00,35.486
570.00,35.531
571.00,35.574
572.00,35.610
573.00,35.616
574.00,35.643
575.00,35.625
576.00,35.630
577.00,35.796
578.00,35.839
579.00,35.963
580.00,35.986
581.00,36.184
582.00,36.235
583.00,36.243
584.00,36.312
585.00,36.378
586.00,36.448
587.00,36.501
588.00,36.531
589.00,36.521
590.00,36.637
591.00,36.648
592.00,36.616
593.00,36.646
594.00,36.725
595.00,36.839
596.00,36.852
597.00,36.926
598.00,37.042
599.00,36.977
600.00,37.005
601.00,37.091
602.00,37.081
603.00,37.244
604.00,37.281
605.00,37.249
606.00,37.274
607.00,37.355
608.00,37.519
609.00,37.628
610.00,37.449
611.00,37.433
612.00,37.490
613.00,37.589
614.00,37.572
615.00,37.631
616.00,37.709
617.00,37.638
618.00,37.591
619.00,37.902
620.00,38.127
621.00,37.935
622.00,38.044
623.00,38.108
624.00,38.141
625.00,38.248
626.00,38.295
627.00,38.328
628.00,38.327
629.00,38.375
630.00,38.396
631.00,38.426
632.00,38.559
633.00,38.664
634.00,38.669
635.00,38.761
636.00,38.851
637.00,38.910
638.00,38.941
639.00,39.083
640.00,39.076
641.00,39.069
642.00,39.164
643.00,39.262
644.00,39.355
645.00,39.359
646.00,39.554
647.00,39.573
648.00,39.537
649.00,39.635
650.00,39.652
651.00,39.867
652.00,39.924
653.00,39.875
654.00,39.956
655.00,40.175
656.00,40.318
657.00,40.260
658.00,40.345
659.00,40.423
660.00,40.504
661.00,40.524
662.00,40.615
663.00,40.705
664.00,40.839
665.00,41.046
666.00,41.009
667.00,41.191
668.00,40.992
669.00,41.234
670.00,41.474
671.00,41.232
672.00,41.410
673.00,41.483
674.00,41.607
675.00,41.604
676.00,41.820
677.00,41.996
678.00,41.547
679.00,41.893
680.00,42.069
681.00,42.067
682.00,42.035
683.00,42.069
684.00,42.295
685.00,42.350
686.00,42.265
687.00,42.391
688.00,42.475
689.00,42.504
690.00,42.641
691.00,42.969
692.00,42.715
693.00,42.703
694.00,42.783
695.00,43.013
696.00,43.030
697.00,42.886
698.00,43.080
699.00,43.320
700.00,43.241
701.00,43.375
702.00,43.507
703.00,43.559
704.00,43.485
705.00,43.524
706.00,43.822
707.00,43.712
708.00,43.704
709.00,43.984
710.00,44.376
711.00,43.799
712.00,43.892
713.00,44.123
714.00,44.155
715.00,44.262
716.00,44.248
717.00,44.321
718.00,44.420
719.00,44.386
720.00,44.410
721.00,49.182
722.00,49.237
723.00,49.257
724.00,49.244
725.00,49.179
726.00,49.278
727.00,49.263
728.00,49.285
729.00,49.382
730.00,49.333
731.00,49.296
732.00,49.299
733.00,49.412
734.00,49.431
735.00,49.401
736.00,49.506
737.00,49.425
738.00,49.573
739.00,49.474
740.00,49.596
741.00,49.642
742.00,49.592
743.00,49.658
744.00,49.503
745.00,49.530
746.00,49.596
747.00,49.505
748.00,49.565
749.00,49.485
750.00,49.500
751.00,49.601
752.00,49.513
753.00,49.533
754.00,49.539
755.00,49.480
756.00,49.504
757.00,49.507
758.00,49.576
759.00,49.567
760.00,49.471
761.00,49.631
762.00,49.549
763.00,49.556
764.00,49.594
765.00,49.508
766.00,49.575
767.00,49.575
768.00,49.561
769.00,49.518
770.00,49.545
771.00,49.532
772.00,49.632
773.00,49.566
774.00,49.628
775.00,49.711
776.00,49.609
777.00,49.588
778.00,49.618
779.00,49.662
780.00,49.624
781.00,49.612
782.00,49.634
783.00,49.582
784.00,49.516
785.00,49.543
786.00,49.520
787.00,49.603
788.00,49.477
789.00,49.484
790.00,49.462
791.00,49.503
792.00,49.434
793.00,49.443
794.00,49.444
795.00,49.402
796.00,49.387
797.00,49.309
798.00,49.333
799.00,49.303
800.00,49.256
801.00,49.300
802.00,49.296
803.00,49.295
804.00,49.265
805.00,49.259
806.00,49.199
807.00,49.251
808.00,49.270
809.00,49.105
810.00,49.127
811.00,49.162
812.00,49.158
813.00,49.106
814.00,49.066
815.00,49.117
816.00,49.084
817.00,49.049
818.00,48.965
819.00,48.991
820.00,49.040
821.00,49.005
822.00,48.993
823.00,48.881
824.00,48.991
825.00,48.817
826.00,48.853
827.00,48.931
828.00,48.887
829.00,48.901
830.00,48.897
831.00,51.384
832.00,51.320
833.00,51.310
834.00,51.297
835.00,51.261
836.00,51.277
837.00,51.209
838.00,51.234
839.00,51.230
840.00,51.160
841.00,51.155
842.00,51.140
843.00,51.136
844.00,51.112
845.00,51.069
846.00,51.075
847.00,51.028
848.00,51.025
849.00,50.972
850.00,50.938
851.00,50.872
852.00,50.862
853.00,50.841
854.00,50.823
855.00,50.794
856.00,50.780
857.00,50.739
858.00,50.720
859.00,50.718
860.00,50.745
861.00,50.741
862.00,50.655
863.00,50.649
864.00,50.609
865.00,50.626
866.00,50.623
867.00,50.590
868.00,50.568
869.00,50.559
870.00,50.543
871.00,50.539
872.00,50.524
873.00,50.511
874.00,50.512
875.00,50.470
876.00,50.481
877.00,50.438
878.00,50.468
879.00,50.419
880.00,50.411
881.00,50.410
882.00,50.399
883.00,50.343
884.00,50.312
885.00,50.298
886.00,50.309
887.00,50.255
888.00,50.235
889.00,50.211
890.00,50.223
891.00,50.193
892.00,50.168
893.00,50.171
894.00,50.158
895.00,50.127
896.00,50.099
897.00,50.069
898.00,50.057
899.00,50.058
900.00,50.012
901.00,50.042
902.00,50.028
903.00,50.014
904.00,49.908
905.00,50.093
906.00,49.954
907.00,49.909
908.00,49.880
909.00,49.883
910.00,49.835
911.00,49.840
912.00,49.832
913.00,49.788
914.00,49.773
915.00,49.751
916.00,49.716
917.00,49.675
918.00,49.662
919.00,49.637
920.00,49.630
921.00,49.615
922.00,49.601
923.00,49.566
924.00,49.556
925.00,49.543
926.00,49.523
927.00,49.495
928.00,49.476
929.00,49.478
930.00,49.434
931.00,49.425
932.00,49.443
933.00,49.411
934.00,49.384
935.00,49.357
936.00,49.346
937.00,49.302
938.00,49.307
939.00,49.281
940.00,49.262
941.00,49.255
942.00,49.232
943.00,49.204
944.00,49.187
945.00,49.211
946.00,49.163
947.00,49.090
948.00,49.169
949.00,49.087
950.00,49.071
951.00,49.058
952.00,49.018
953.00,48.992
954.00,48.959
955.00,48.936
956.00,48.924
957.00,48.894
958.00,48.904
959.00,48.847
960.00,48.843
961.00,48.825
962.00,48.831
963.00,48.789
964.00,48.781
965.00,48.775
966.00,48.760
967.00,48.749
968.00,48.728
969.00,48.766
970.00,48.733
971.00,48.750
972.00,48.719
973.00,48.758
974.00,48.762
975.00,48.737
976.00,48.737
977.00,48.724
978.00,48.756
979.00,48.706
980.00,48.709
981.00,48.712
982.00,48.674
983.00,48.707
984.00,48.698
985.00,48.697
986.00,48.671
987.00,48.688
988.00,48.633
989.00,48.633
990.00,48.631
991.00,48.599
992.00,48.620
993.00,48.594
994.00,48.578
995.00,48.568
996.00,48.573
997.00,48.549
998.00,48.537
999.00,48.539
1000.00,48.488
1001.00,48.479
1002.00,48.471
1003.00,48.472
1004.00,48.421
1005.00,48.409
1006.00,48.461
1007.00,48.407
1008.00,48.401
1009.00,48.415
1010.00,48.382
1011.00,48.369
1012.00,48.331
1013.00,48.334
1014.00,48.301
1015.00,48.315
1016.00,48.265
1017.00,48.254
1018.00,48.248
1019.00,48.220
1020.00,48.208
1021.00,48.189
1022.00,48.186
1023.00,48.138
1024.00,48.147
1025.00,48.134
1026.00,48.124
1027.00,48.104
1028.00,48.101
1029.00,48.064
1030.00,48.044
1031.00,48.062
1032.00,48.007
1033.00,48.012
1034.00,48.013
1035.00,47.959
1036.00,47.941
1037.00,47.920
1038.00,47.914
1039.00,47.867
1040.00,47.870
1041.00,47.827
1042.00,47.833
1043.00,47.803
1044.00,47.843
1045.00,47.806
1046.00,47.804
1047.00,47.824
1048.00,47.823
1049.00,47.835
1050.00,47.830
1051.00,47.876
1052.00,47.876
1053.00,47.884
1054.00,47.894
1055.00,47.922
1056.00,47.918
1057.00,47.940
1058.00,47.910
1059.00,47.905
1060.00,47.928
1061.00,47.891
1062.00,47.880
1063.00,47.886
1064.00,47.876
1065.00,47.863
1066.00,47.860
1067.00,47.876
1068.00,47.891
1069.00,47.854
1070.00,47.841
1071.00,47.817
1072.00,47.835
1073.00,47.805
1074.00,47.793
1075.00,47.781
1076.00,47.791
1077.00,47.781
1078.00,47.753
1079.00,47.759
1080.00,47.760
1081.00,47.736
1082.00,47.744
1083.00,47.736
1084.00,47.727
1085.00,47.725
1086.00,47.705
1087.00,47.713
1088.00,47.696
1089.00,47.691
1090.00,47.685
1091.00,47.699
1092.00,47.682
1093.00,47.674
1094.00,47.639
1095.00,47.643
1096.00,47.619
1097.00,47.616
1098.00,47.598
1099.00,47.587
1100.00,47.587
1101.00,47.579
1102.00,47.561
1103.00,47.564
1104.00,47.553
1105.00,47.536
1106.00,47.518
1107.00,47.528
1108.00,47.516
1109.00,47.507
1110.00,47.502
1111.00,47.497
1112.00,47.483
1113.00,47.485
1114.00,47.472
1115.00,47.484
1116.00,47.463
1117.00,47.452
1118.00,47.450
1119.00,47.426
1120.00,47.421
1121.00,47.422
1122.00,47.405
1123.00,47.415
1124.00,47.404
1125.00,47.406
1126.00,47.393
1127.00,47.390
1128.00,47.386
1129.00,47.363
1130.00,47.355
1131.00,47.370
1132.00,47.338
1133.00,47.336
1134.00,47.332
1135.00,47.334
1136.00,47.333
1137.00,47.339
1138.00,47.340
1139.00,47.346
1140.00,47.342
1141.00,47.321
1142.00,47.294
1143.00,47.324
1144.00,47.303
1145.00,47.320
1146.00,47.299
1147.00,47.296
1148.00,47.289
1149.00,47.296
1150.00,47.290
1151.00,47.296
1152.00,47.291
1153.00,47.287
1154.00,47.272
1155.00,47.274
1156.00,47.263
1157.00,47.287
1158.00,47.268
1159.00,47.285
1160.00,47.260
1161.00,47.277
1162.00,47.286
1163.00,47.261
1164.00,47.273
1165.00,47.271
1166.00,47.275
1167.00,47.263
1168.00,47.283
1169.00,47.264
1170.00,47.269
1171.00,47.249
1172.00,47.251
1173.00,47.228
1174.00,47.247
1175.00,47.228
1176.00,47.238
1177.00,47.248
1178.00,47.235
1179.00,47.249
1180.00,47.231
1181.00,47.259
1182.00,47.236
1183.00,47.226
1184.00,47.227
1185.00,47.241
1186.00,47.229
1187.00,47.242
1188.00,47.233
1189.00,47.227
1190.00,47.223
1191.00,47.225
1192.00,47.252
1193.00,47.224
1194.00,47.232
1195.00,47.211
1196.00,47.236
1197.00,47.225
1198.00,47.208
1199.00,47.195
1200.00,47.211
1201.00,47.242
1202.00,47.211
1203.00,47.221
1204.00,47.198
1205.00,47.224
1206.00,47.214
1207.00,47.211
1208.00,47.209
1209.00,47.221
1210.00,47.220
1211.00,47.216
1212.00,47.240
1213.00,47.195
1214.00,47.220
1215.00,47.201
1216.00,47.214
1217.00,47.219
1218.00,47.198
1219.00,47.214
1220.00,47.220
1221.00,47.209
1222.00,47.217
1223.00,47.261
1224.00,47.226
1225.00,47.211
1226.00,47.225
1227.00,47.228
1228.00,47.253
1229.00,47.236
1230.00,47.277
1231.00,47.259
1232.00,47.269
1233.00,47.276
1234.00,47.287
1235.00,47.276
1236.00,47.277
1237.00,47.283
1238.00,47.267
1239.00,47.287
1240.00,47.265
1241.00,47.283
1242.00,47.286
1243.00,47.297
1244.00,47.295
1245.00,47.323
1246.00,47.313
1247.00,47.306
1248.00,47.298
1249.00,47.316
1250.00,47.327
1251.00,47.307
1252.00,47.325
1253.00,47.320
1254.00,47.342
1255.00,47.331
1256.00,47.318
1257.00,47.307
1258.00,47.361
1259.00,47.357
1260.00,47.382
1261.00,47.381
1262.00,47.366
1263.00,47.369
1264.00,47.378
1265.00,47.380
1266.00,47.387
1267.00,47.395
1268.00,47.395
1269.00,47.413
1270.00,47.421
1271.00,47.425
1272.00,47.429
1273.00,47.449
1274.00,47.445
1275.00,47.456
1276.00,47.456
1277.00,47.476
1278.00,47.486
1279.00,47.478
1280.00,47.474
1281.00,47.484
1282.00,47.491
1283.00,47.489
1284.00,47.518
1285.00,47.492
1286.00,47.513
1287.00,47.496
1288.00,47.508
1289.00,47.500
1290.00,47.535
1291.00,47.542
1292.00,47.537
1293.00,47.537
1294.00,47.554
1295.00,47.554
1296.00,47.557
1297.00,47.578
1298.00,47.619
1299.00,47.582
1300.00,47.610
1301.00,47.595
1302.00,47.623
1303.00,47.611
1304.00,47.596
1305.00,47.626
1306.00,47.621
1307.00,47.637
1308.00,47.634
1309.00,47.642
1310.00,47.641
1311.00,47.636
1312.00,47.642
1313.00,47.664
1314.00,47.669
1315.00,47.677
1316.00,47.678
1317.00,47.716
1318.00,47.698
1319.00,47.706
1320.00,47.710
1321.00,47.916
1322.00,47.880
1323.00,47.868
1324.00,47.881
1325.00,47.853
1326.00,47.883
1327.00,47.869
1328.00,47.860
1329.00,47.878
1330.00,47.904
1331.00,47.882
1332.00,47.901
1333.00,47.892
1334.00,47.937
1335.00,47.972
1336.00,47.977
1337.00,48.017
1338.00,48.091
1339.00,48.117
1340.00,48.178
1341.00,48.251
1342.00,48.288
1343.00,48.352
1344.00,48.410
1345.00,48.465
1346.00,48.506
1347.00,48.516
1348.00,48.572
1349.00,48.595
1350.00,48.598
1351.00,48.618
1352.00,48.634
1353.00,48.621
1354.00,48.631
1355.00,48.576
1356.00,48.640
1357.00,48.625
1358.00,48.658
1359.00,48.671
1360.00,48.749
1361.00,48.887
1362.00,48.649
1363.00,48.706
1364.00,48.666
1365.00,48.665
1366.00,48.735
1367.00,48.673
1368.00,48.677
1369.00,48.683
1370.00,48.672
1371.00,48.659
1372.00,48.659
1373.00,48.672
1374.00,48.725
1375.00,48.674
1376.00,48.674
1377.00,48.682
1378.00,48.747
1379.00,48.667
1380.00,48.665
1381.00,48.647
1382.00,48.575
1383.00,48.666
1384.00,48.638
1385.00,48.673
1386.00,48.678
1387.00,48.632
1388.00,48.618
1389.00,48.671
1390.00,48.686
1391.00,48.645
1392.00,48.639
1393.00,48.713
1394.00,48.642
1395.00,48.661
1396.00,48.601
1397.00,48.722
1398.00,48.413
1399.00,48.636
1400.00,48.609
1401.00,48.622
1402.00,48.744
1403.00,48.658
1404.00,48.680
1405.00,48.694
1406.00,48.748
1407.00,48.727
1408.00,48.703
1409.00,48.712
1410.00,48.826
1411.00,48.580
1412.00,48.809
1413.00,48.745
1414.00,48.747
1415.00,48.776
1416.00,48.795
1417.00,48.844
1418.00,48.812
1419.00,48.805
1420.00,48.838
1421.00,48.892
1422.00,48.873
1423.00,48.907
1424.00,48.887
1425.00,48.917
1426.00,48.921
1427.00,48.931
1428.00,48.951
1429.00,48.992
1430.00,48.981
1431.00,49.020
1432.00,49.032
1433.00,49.055
1434.00,49.050
1435.00,49.094
1436.00,49.098
1437.00,49.092
1438.00,49.099
1439.00,49.147
1440.00,49.164
1441.00,49.152
1442.00,49.188
1443.00,49.201
1444.00,49.265
1445.00,49.227
1446.00,49.247
1447.00,49.290
1448.00,49.324
1449.00,49.307
1450.00,49.328
1451.00,49.334
1452.00,49.349
1453.00,49.370
1454.00,49.384
1455.00,49.393
1456.00,49.415
1457.00,49.408
1458.00,49.474
1459.00,49.451
1460.00,49.480
1461.00,49.497
1462.00,49.536
1463.00,49.520
1464.00,49.541
1465.00,49.546
1466.00,49.560
1467.00,49.607
1468.00,49.649
1469.00,49.610
1470.00,49.652
1471.00,49.652
1472.00,49.673
1473.00,49.696
1474.00,49.711
1475.00,49.733
1476.00,49.741
1477.00,49.723
1478.00,49.773
1479.00,49.778
1480.00,49.782
1481.00,49.811
1482.00,49.829
1483.00,49.846
1484.00,49.862
1485.00,49.854
1486.00,49.876
1487.00,49.899
1488.00,49.914
1489.00,49.915
1490.00,49.929
1491.00,49.951
1492.00,49.986
1493.00,49.945
1494.00,50.008
1495.00,49.991
1496.00,50.019
1497.00,50.013
1498.00,50.024
1499.00,50.032
1500.00,50.061
1501.00, 
1502.00, 
1503.00, 
1504.00, 
1505.00, 
1506.00, 
1507.00, 
1508.00, 
1509.00, 
1510.00, 
1511.00, 
1512.00, 
1513.00, 
1514.00, 
1515.00, 
1516.00, 
1517.00, 
1518.00, 
1519.00, 
1520.00, 
1521.00, 
1522.00, 
1523.00, 
1524.00, 
1525.00, 
1526.00, 
1527.00, 
1528.00, 
1529.00, 
1530.00, 
1531.00, 
1532.00, 
1533.00, 
1534.00, 
1535.00, 
1536.00, 
1537.00, 
1538.00, 
1539.00, 
1540.00, 
1541.00, 
1542.00, 
1543.00, 
1544.00, 
1545.00, 
1546.00, 
1547.00, 
1548.00, 
1549.00, 
1550.00, 
1551.00, 
1552.00, 
1553.00, 
1554.00, 
1555.00, 
1556.00, 
1557.00, 
1558.00, 
1559.00, 
1560.00, 
1561.00, 
1562.00, 
1563.00, 
1564.00, 
1565.00, 
1566.00, 
1567.00, 
1568.00, 
1569.00, 
1570.00, 
1571.00, 
1572.00, 
1573.00, 
1574.00, 
1575.00, 
1576.00, 
1577.00, 
1578.00, 
1579.00, 
1580.00, 
1581.00, 
1582.00, 
1583.00, 
1584.00, 
1585.00, 
1586.00, 
1587.00, 
1588.00, 
1589.00, 
1590.00, 
1591.00, 
1592.00, 
1593.00, 
1594.00, 
1595.00, 
1596.00, 
1597.00, 
1598.00, 
1599.00, 
1600.00, 
1601.00, 
1602.00, 
1603.00, 
1604.00, 
1605.00, 
1606.00, 
1607.00, 
1608.00, 
1609.00, 
1610.00, 
1611.00, 
1612.00, 
1613.00, 
1614.00, 
1615.00, 
1616.00, 
1617.00, 
1618.00, 
1619.00, 
1620.00, 
1621.00, 
1622.00, 
1623.00, 
1624.00, 
1625.00, 
1626.00, 
1627.00, 
1628.00, 
1629.00, 
1630.00, 
1631.00, 
1632.00, 
1633.00, 
1634.00, 
1635.00, 
1636.00, 
1637.00, 
1638.00, 
1639.00, 
1640.00, 
1641.00, 
1642.00, 
1643.00, 
1644.00, 
1645.00, 
1646.00, 
1647.00, 
1648.00, 
1649.00, 
1650.00, 
1651.00, 
1652.00, 
1653.00, 
1654.00, 
1655.00, 
1656.00, 
1657.00, 
1658.00, 
1659.00, 
1660.00, 
1661.00, 
1662.00, 
1663.00, 
1664.00, 
1665.00, 
1666.00, 
1667.00, 
1668.00, 
1669.00, 
1670.00, 
1671.00, 
1672.00, 
1673.00, 
1674.00, 
1675.00, 
1676.00, 
1677.00, 
1678.00, 
1679.00, 
1680.00, 
1681.00, 
1682.00, 
1683.00, 
1684.00, 
1685.00, 
1686.00, 
1687.00, 
1688.00, 
1689.00, 
1690.00, 
1691.00, 
1692.00, 
1693.00, 
1694.00, 
1695.00, 
1696.00, 
1697.00, 
1698.00, 
1699.00, 
1700.00, 
1701.00, 
1702.00, 
1703.00, 
1704.00, 
1705.00, 
1706.00, 
1707.00, 
1708.00, 
1709.00, 
1710.00, 
1711.00, 
1712.00, 
1713.00, 
1714.00, 
1715.00, 
1716.00, 
1717.00, 
1718.00, 
1719.00, 
1720.00, 
1721.00, 
1722.00, 
1723.00, 
1724.00, 
1725.00, 
1726.00, 
1727.00, 
1728.00, 
1729.00, 
1730.00, 
1731.00, 
1732.00, 
1733.00, 
1734.00, 
1735.00, 
1736.00, 
1737.00, 
1738.00, 
1739.00, 
1740.00, 
1741.00, 
1742.00, 
1743.00, 
1744.00, 
1745.00, 
1746.00, 
1747.00, 
1748.00, 
1749.00, 
1750.00, 
1751.00, 
1752.00, 
1753.00, 
1754.00, 
1755.00, 
1756.00, 
1757.00, 
1758.00, 
1759.00, 
1760.00, 
1761.00, 
1762.00, 
1763.00, 
1764.00, 
1765.00, 
1766.00, 
1767.00, 
1768.00, 
1769.00, 
1770.00, 
1771.00, 
1772.00, 
1773.00, 
1774.00, 
1775.00, 
1776.00, 
1777.00, 
1778.00, 
1779.00, 
1780.00, 
1781.00, 
1782.00, 
1783.00, 
1784.00, 
1785.00, 
1786.00, 
1787.00, 
1788.00, 
1789.00, 
1790.00, 
1791.00, 
1792.00, 
1793.00, 
1794.00, 
1795.00, 
1796.00, 
1797.00, 
1798.00, 
1799.00, 
1800.00, 
1801.00, 
1802.00, 
1803.00, 
1804.00, 
1805.00, 
1806.00, 
1807.00, 
1808.00, 
1809.00, 
1810.00, 
1811.00, 
1812.00, 
1813.00, 
1814.00, 
1815.00, 
1816.00, 
1817.00, 
1818.00, 
1819.00, 
1820.00, 
1821.00, 
1822.00, 
1823.00, 
1824.00, 
1825.00, 
1826.00, 
1827.00, 
1828.00, 
1829.00, 
1830.00, 
1831.00, 
1832.00, 
1833.00, 
1834.00, 
1835.00, 
1836.00, 
1837.00, 
1838.00, 
1839.00, 
1840.00, 
1841.00, 
1842.00, 
1843.00, 
1844.00, 
1845.00, 
1846.00, 
1847.00, 
1848.00, 
1849.00, 
1850.00, 
1851.00, 
1852.00, 
1853.00, 
1854.00, 
1855.00, 
1856.00, 
1857.00, 
1858.00, 
1859.00, 
1860.00, 
1861.00, 
1862.00, 
1863.00, 
1864.00, 
1865.00, 
1866.00, 
1867.00, 
1868.00, 
1869.00, 
1870.00, 
1871.00, 
1872.00, 
1873.00, 
1874.00, 
1875.00, 
1876.00, 
1877.00, 
1878.00, 
1879.00, 
1880.00, 
1881.00, 
1882.00, 
1883.00, 
1884.00, 
1885.00, 
1886.00, 
1887.00, 
1888.00, 
1889.00, 
1890.00, 
1891.00, 
1892.00, 
1893.00, 
1894.00, 
1895.00, 
1896.00, 
1897.00, 
1898.00, 
1899.00, 
1900.00, 
1901.00, 
1902.00, 
1903.00, 
1904.00, 
1905.00, 
1906.00, 
1907.00, 
1908.00, 
1909.00, 
1910.00, 
1911.00, 
1912.00, 
1913.00, 
1914.00, 
1915.00, 
1916.00, 
1917.00, 
1918.00, 
1919.00, 
1920.00, 
1921.00, 
1922.00, 
1923.00, 
1924.00, 
1925.00, 
1926.00, 
1927.00, 
1928.00, 
1929.00, 
1930.00, 
1931.00, 
1932.00, 
1933.00, 
1934.00, 
1935.00, 
1936.00, 
1937.00, 
1938.00, 
1939.00, 
1940.00, 
1941.00, 
1942.00, 
1943.00, 
1944.00, 
1945.00, 
1946.00, 
1947.00, 
1948.00, 
1949.00, 
1950.00, 
1951.00, 
1952.00, 
1953.00, 
1954.00, 
1955.00, 
1956.00, 
1957.00, 
1958.00, 
1959.00, 
1960.00, 
1961.00, 
1962.00, 
1963.00, 
1964.00, 
1965.00, 
1966.00, 
1967.00, 
1968.00, 
1969.00, 
1970.00, 
1971.00, 
1972.00, 
1973.00, 
1974.00, 
1975.00, 
1976.00, 
1977.00, 
1978.00, 
1979.00, 
1980.00, 
1981.00, 
1982.00, 
1983.00, 
1984.00, 
1985.00, 
1986.00, 
1987.00, 
1988.00, 
1989.00, 
1990.00, 
1991.00, 
1992.00, 
1993.00, 
1994.00, 
1995.00, 
1996.00, 
1997.00, 
1998.00, 
1999.00, 
2000.00, 
2001.00, 
2002.00, 
2003.00, 
2004.00, 
2005.00, 
2006.00, 
2007.00, 
2008.00, 
2009.00, 
2010.00, 
2011.00, 
2012.00, 
2013.00, 
2014.00, 
2015.00, 
2016.00, 
2017.00, 
2018.00, 
2019.00, 
2020.00, 
2021.00, 
2022.00, 
2023.00, 
2024.00, 
2025.00, 
2026.00, 
2027.00, 
2028.00, 
2029.00, 
2030.00, 
2031.00, 
2032.00, 
2033.00, 
2034.00, 
2035.00, 
2036.00, 
2037.00, 
2038.00, 
2039.00, 
2040.00, 
2041.00, 
2042.00, 
2043.00, 
2044.00, 
2045.00, 
2046.00, 
2047.00, 
2048.00, 
2049.00, 
2050.00, 
2051.00, 
2052.00, 
2053.00, 
2054.00, 
2055.00, 
2056.00, 
2057.00, 
2058.00, 
2059.00, 
2060.00, 
2061.00, 
2062.00, 
2063.00, 
2064.00, 
2065.00, 
2066.00, 
2067.00, 
2068.00, 
2069.00, 
2070.00, 
2071.00, 
2072.00, 
2073.00, 
2074.00, 
2075.00, 
2076.00, 
2077.00, 
2078.00, 
2079.00, 
2080.00, 
2081.00, 
2082.00, 
2083.00, 
2084.00, 
2085.00, 
2086.00, 
2087.00, 
2088.00, 
2089.00, 
2090.00, 
2091.00, 
2092.00, 
2093.00, 
2094.00, 
2095.00, 
2096.00, 
2097.00, 
2098.00, 
2099.00, 
2100.00, 
2101.00, 
2102.00, 
2103.00, 
2104.00, 
2105.00, 
2106.00, 
2107.00, 
2108.00, 
2109.00, 
2110.00, 
2111.00, 
2112.00, 
2113.00, 
2114.00, 
2115.00, 
2116.00, 
2117.00, 
2118.00, 
2119.00, 
2120.00, 
2121.00, 
2122.00, 
2123.00, 
2124.00, 
2125.00, 
2126.00, 
2127.00, 
2128.00, 
2129.00, 
2130.00, 
2131.00, 
2132.00, 
2133.00, 
2134.00, 
2135.00, 
2136.00, 
2137.00, 
2138.00, 
2139.00, 
2140.00, 
2141.00, 
2142.00, 
2143.00, 
2144.00, 
2145.00, 
2146.00, 
2147.00, 
2148.00, 
2149.00, 
2150.00, 
2151.00, 
2152.00, 
2153.00, 
2154.00, 
2155.00, 
2156.00, 
2157.00, 
2158.00, 
2159.00, 
2160.00, 
2161.00, 
2162.00, 
2163.00, 
2164.00, 
2165.00, 
2166.00, 
2167.00, 
2168.00, 
2169.00, 
2170.00, 
2171.00, 
2172.00, 
2173.00, 
2174.00, 
2175.00, 
2176.00, 
2177.00, 
2178.00, 
2179.00, 
2180.00, 
2181.00, 
2182.00, 
2183.00, 
2184.00, 
2185.00, 
2186.00, 
2187.00, 
2188.00, 
2189.00, 
2190.00, 
2191.00, 
2192.00, 
2193.00, 
2194.00, 
2195.00, 
2196.00, 
2197.00, 
2198.00, 
2199.00, 
2200.00, 
2201.00, 
2202.00, 
2203.00, 
2204.00, 
2205.00, 
2206.00, 
2207.00, 
2208.00, 
2209.00, 
2210.00, 
2211.00, 
2212.00, 
2213.00, 
2214.00, 
2215.00, 
2216.00, 
2217.00, 
2218.00, 
2219.00, 
2220.00, 
2221.00, 
2222.00, 
2223.00, 
2224.00, 
2225.00, 
2226.00, 
2227.00, 
2228.00, 
2229.00, 
2230.00, 
2231.00, 
2232.00, 
2233.00, 
2234.00, 
2235.00, 
2236.00, 
2237.00, 
2238.00, 
2239.00, 
2240.00, 
2241.00, 
2242.00, 
2243.00, 
2244.00, 
2245.00, 
2246.00, 
2247.00, 
2248.00, 
2249.00, 
2250.00, 
2251.00, 
2252.00, 
2253.00, 
2254.00, 
2255.00, 
2256.00, 
2257.00, 
2258.00, 
2259.00, 
2260.00, 
2261.00, 
2262.00, 
2263.00, 
2264.00, 
2265.00, 
2266.00, 
2267.00, 
2268.00, 
2269.00, 
2270.00, 
2271.00, 
2272.00, 
2273.00, 
2274.00, 
2275.00, 
2276.00, 
2277.00, 
2278.00, 
2279.00, 
2280.00, 
2281.00, 
2282.00, 
2283.00, 
2284.00, 
2285.00, 
2286.00, 
2287.00, 
2288.00, 
2289.00, 
2290.00, 
2291.00, 
2292.00, 
2293.00, 
2294.00, 
2295.00, 
2296.00, 
2297.00, 
2298.00, 
2299.00, 
2300.00, 
2301.00, 
2302.00, 
2303.00, 
2304.00, 
2305.00, 
2306.00, 
2307.00, 
2308.00, 
2309.00, 
2310.00, 
2311.00, 
2312.00, 
2313.00, 
2314.00, 
2315.00, 
2316.00, 
2317.00, 
2318.00, 
2319.00, 
2320.00, 
2321.00, 
2322.00, 
2323.00, 
2324.00, 
2325.00, 
2326.00, 
2327.00, 
2328.00, 
2329.00, 
2330.00, 
2331.00, 
2332.00, 
2333.00, 
2334.00, 
2335.00, 
2336.00, 
2337.00, 
2338.00, 
2339.00, 
2340.00, 
2341.00, 
2342.00, 
2343.00, 
2344.00, 
2345.00, 
2346.00, 
2347.00, 
2348.00, 
2349.00, 
2350.00, 
2351.00, 
2352.00, 
2353.00, 
2354.00, 
2355.00, 
2356.00, 
2357.00, 
2358.00, 
2359.00, 
2360.00, 
2361.00, 
2362.00, 
2363.00, 
2364.00, 
2365.00, 
2366.00, 
2367.00, 
2368.00, 
2369.00, 
2370.00, 
2371.00, 
2372.00, 
2373.00, 
2374.00, 
2375.00, 
2376.00, 
2377.00, 
2378.00, 
2379.00, 
2380.00, 
2381.00, 
2382.00, 
2383.00, 
2384.00, 
2385.00, 
2386.00, 
2387.00, 
2388.00, 
2389.00, 
2390.00, 
2391.00, 
2392.00, 
2393.00, 
2394.00, 
2395.00, 
2396.00, 
2397.00, 
2398.00, 
2399.00, 
2400.00, 
2401.00, 
2402.00, 
2403.00, 
2404.00, 
2405.00, 
2406.00, 
2407.00, 
2408.00, 
2409.00, 
2410.00, 
2411.00, 
2412.00, 
2413.00, 
2414.00, 
2415.00, 
2416.00, 
2417.00, 
2418.00, 
2419.00, 
2420.00, 
2421.00, 
2422.00, 
2423.00, 
2424.00, 
2425.00, 
2426.00, 
2427.00, 
2428.00, 
2429.00, 
2430.00, 
2431.00, 
2432.00, 
2433.00, 
2434.00, 
2435.00, 
2436.00, 
2437.00, 
2438.00, 
2439.00, 
2440.00, 
2441.00, 
2442.00, 
2443.00, 
2444.00, 
2445.00, 
2446.00, 
2447.00, 
2448.00, 
2449.00, 
2450.00, 
2451.00, 
2452.00, 
2453.00, 
2454.00, 
2455.00, 
2456.00, 
2457.00, 
2458.00, 
2459.00, 
2460.00, 
2461.00, 
2462.00, 
2463.00, 
2464.00, 
2465.00, 
2466.00, 
2467.00, 
2468.00, 
2469.00, 
2470.00, 
2471.00, 
2472.00, 
2473.00, 
2474.00, 
2475.00, 
2476.00, 
2477.00, 
2478.00, 
2479.00, 
2480.00, 
2481.00, 
2482.00, 
2483.00, 
2484.00, 
2485.00, 
2486.00, 
2487.00, 
2488.00, 
2489.00, 
2490.00, 
2491.00, 
2492.00, 
2493.00, 
2494.00, 
2495.00, 
2496.00, 
2497.00, 
2498.00, 
2499.00, 
2500.00, 
2501.00, 
2502.00, 
2503.00, 
2504.00, 
2505.00, 
2506.00, 
2507.00, 
2508.00, 
2509.00, 
2510.00, 
2511.00, 
2512.00, 
2513.00, 
2514.00, 
2515.00, 
2516.00, 
2517.00, 
2518.00, 
2519.00, 
2520.00, 
2521.00, 
2522.00, 
2523.00, 
2524.00, 
2525.00, 
2526.00, 
2527.00, 
2528.00, 
2529.00, 
2530.00, 
2531.00, 
2532.00, 
2533.00, 
2534.00, 
2535.00, 
2536.00, 
2537.00, 
2538.00, 
2539.00, 
2540.00, 
2541.00, 
2542.00, 
2543.00, 
2544.00, 
2545.00, 
2546.00, 
2547.00, 
2548.00, 
2549.00, 
2550.00, 
2551.00, 
2552.00, 
2553.00, 
2554.00, 
2555.00, 
2556.00, 
2557.00, 
2558.00, 
2559.00, 
2560.00, 
2561.00, 
2562.00, 
2563.00, 
2564.00, 
2565.00, 
2566.00, 
2567.00, 
2568.00, 
2569.00, 
2570.00, 
2571.00, 
2572.00, 
2573.00, 
2574.00, 
2575.00, 
2576.00, 
2577.00, 
2578.00, 
2579.00, 
2580.00, 
2581.00, 
2582.00, 
2583.00, 
2584.00, 
2585.00, 
2586.00, 
2587.00, 
2588.00, 
2589.00, 
2590.00, 
2591.00, 
2592.00, 
2593.00, 
2594.00, 
2595.00, 
2596.00, 
2597.00, 
2598.00, 
2599.00, 
2600.00, 
