"1cP4 - RawData"
"Wavelength nm.","T%"
200.00,0.002
201.00,-0.001
202.00,0.003
203.00,0.001
204.00,-0.000
205.00,0.002
206.00,0.002
207.00,0.004
208.00,-0.001
209.00,0.003
210.00,0.003
211.00,0.003
212.00,-0.001
213.00,0.001
214.00,0.002
215.00,0.000
216.00,0.001
217.00,0.000
218.00,0.000
219.00,0.001
220.00,-0.003
221.00,0.001
222.00,0.001
223.00,0.001
224.00,0.001
225.00,0.003
226.00,-0.002
227.00,0.002
228.00,0.000
229.00,0.001
230.00,0.000
231.00,0.000
232.00,-0.000
233.00,-0.001
234.00,0.000
235.00,0.002
236.00,0.000
237.00,-0.000
238.00,0.001
239.00,-0.001
240.00,0.001
241.00,0.001
242.00,0.001
243.00,0.001
244.00,0.000
245.00,-0.000
246.00,0.000
247.00,-0.001
248.00,-0.000
249.00,-0.001
250.00,-0.000
251.00,-0.001
252.00,-0.000
253.00,-0.001
254.00,0.001
255.00,0.001
256.00,-0.001
257.00,0.000
258.00,-0.001
259.00,-0.001
260.00,-0.000
261.00,-0.001
262.00,0.001
263.00,0.001
264.00,-0.000
265.00,-0.000
266.00,0.001
267.00,0.001
268.00,-0.001
269.00,0.000
270.00,0.000
271.00,0.000
272.00,-0.000
273.00,0.000
274.00,0.001
275.00,0.000
276.00,0.000
277.00,0.002
278.00,0.001
279.00,0.001
280.00,0.001
281.00,0.000
282.00,-0.001
283.00,-0.000
284.00,-0.001
285.00,0.001
286.00,-0.001
287.00,0.001
288.00,-0.001
289.00,0.001
290.00,0.001
291.00,-0.002
292.00,-0.001
293.00,0.001
294.00,0.000
295.00,-0.001
296.00,0.000
297.00,0.001
298.00,-0.000
299.00,0.000
300.00,0.001
301.00,0.001
302.00,0.000
303.00,0.001
304.00,-0.000
305.00,0.001
306.00,0.003
307.00,0.002
308.00,0.005
309.00,0.009
310.00,0.017
311.00,0.022
312.00,0.039
313.00,0.060
314.00,0.087
315.00,0.124
316.00,0.179
317.00,0.256
318.00,0.346
319.00,0.468
320.00,0.620
321.00,0.804
322.00,1.019
323.00,1.300
324.00,1.584
325.00,1.911
326.00,2.267
327.00,2.690
328.00,3.141
329.00,3.574
330.00,4.165
331.00,4.693
332.00,5.272
333.00,5.908
334.00,6.489
335.00,7.118
336.00,7.729
337.00,8.385
338.00,8.994
339.00,9.663
340.00,10.288
341.00,10.940
342.00,11.488
343.00,12.090
344.00,12.662
345.00,13.148
346.00,13.646
347.00,14.145
348.00,14.619
349.00,15.038
350.00,15.427
351.00,15.811
352.00,16.133
353.00,16.511
354.00,16.788
355.00,17.120
356.00,17.342
357.00,17.584
358.00,17.857
359.00,18.080
360.00,18.310
361.00,18.419
362.00,18.623
363.00,18.748
364.00,18.845
365.00,18.927
366.00,19.050
367.00,19.077
368.00,19.155
369.00,19.200
370.00,19.236
371.00,19.284
372.00,19.216
373.00,19.242
374.00,19.232
375.00,19.131
376.00,19.037
377.00,18.980
378.00,18.858
379.00,18.790
380.00,18.800
381.00,18.731
382.00,18.729
383.00,18.739
384.00,18.786
385.00,18.842
386.00,18.843
387.00,18.918
388.00,18.972
389.00,18.999
390.00,19.014
391.00,19.049
392.00,19.069
393.00,19.099
394.00,19.084
395.00,19.115
396.00,19.122
397.00,19.104
398.00,19.125
399.00,19.136
400.00,19.118
401.00,19.132
402.00,19.084
403.00,19.105
404.00,19.052
405.00,19.041
406.00,19.030
407.00,18.972
408.00,19.012
409.00,18.932
410.00,18.870
411.00,18.877
412.00,18.837
413.00,18.863
414.00,18.858
415.00,18.846
416.00,18.891
417.00,18.846
418.00,18.892
419.00,18.976
420.00,19.014
421.00,18.987
422.00,19.026
423.00,19.076
424.00,19.069
425.00,19.134
426.00,19.125
427.00,19.191
428.00,19.243
429.00,19.255
430.00,19.308
431.00,19.377
432.00,19.439
433.00,19.436
434.00,19.516
435.00,19.574
436.00,19.627
437.00,19.705
438.00,19.737
439.00,19.805
440.00,19.826
441.00,19.968
442.00,20.040
443.00,20.113
444.00,20.231
445.00,20.291
446.00,20.410
447.00,20.483
448.00,20.601
449.00,20.700
450.00,20.810
451.00,20.899
452.00,21.027
453.00,21.125
454.00,21.210
455.00,21.354
456.00,21.474
457.00,21.575
458.00,21.658
459.00,21.813
460.00,21.963
461.00,22.063
462.00,22.191
463.00,22.347
464.00,22.457
465.00,22.610
466.00,22.748
467.00,22.901
468.00,22.971
469.00,23.076
470.00,23.204
471.00,23.298
472.00,23.429
473.00,23.520
474.00,23.626
475.00,23.778
476.00,23.882
477.00,24.021
478.00,24.160
479.00,24.333
480.00,24.454
481.00,24.571
482.00,24.731
483.00,24.894
484.00,25.069
485.00,25.239
486.00,25.376
487.00,25.513
488.00,25.653
489.00,25.822
490.00,26.002
491.00,26.125
492.00,26.267
493.00,26.504
494.00,26.671
495.00,26.663
496.00,26.816
497.00,26.897
498.00,27.075
499.00,27.230
500.00,27.377
501.00,27.493
502.00,27.669
503.00,27.754
504.00,27.793
505.00,27.953
506.00,28.104
507.00,28.231
508.00,28.348
509.00,28.522
510.00,28.635
511.00,28.713
512.00,28.905
513.00,29.026
514.00,29.152
515.00,29.294
516.00,29.390
517.00,29.485
518.00,29.636
519.00,29.725
520.00,29.747
521.00,29.898
522.00,29.996
523.00,30.036
524.00,30.155
525.00,30.292
526.00,30.408
527.00,30.478
528.00,30.564
529.00,30.758
530.00,30.888
531.00,30.969
532.00,31.054
533.00,31.162
534.00,31.269
535.00,31.356
536.00,31.447
537.00,31.539
538.00,31.623
539.00,31.639
540.00,31.692
541.00,31.792
542.00,31.843
543.00,31.908
544.00,31.966
545.00,32.059
546.00,32.067
547.00,32.234
548.00,32.350
549.00,32.362
550.00,32.451
551.00,32.576
552.00,32.625
553.00,32.683
554.00,32.764
555.00,32.807
556.00,32.897
557.00,32.970
558.00,33.001
559.00,33.067
560.00,33.150
561.00,33.169
562.00,33.325
563.00,33.346
564.00,33.407
565.00,33.433
566.00,33.424
567.00,33.488
568.00,33.521
569.00,33.600
570.00,33.622
571.00,33.686
572.00,33.731
573.00,33.713
574.00,33.772
575.00,33.765
576.00,33.796
577.00,33.832
578.00,33.940
579.00,34.004
580.00,33.997
581.00,34.185
582.00,34.249
583.00,34.274
584.00,34.343
585.00,34.393
586.00,34.452
587.00,34.494
588.00,34.514
589.00,34.507
590.00,34.625
591.00,34.637
592.00,34.610
593.00,34.707
594.00,34.764
595.00,34.856
596.00,34.879
597.00,34.954
598.00,35.053
599.00,35.043
600.00,35.101
601.00,35.148
602.00,35.117
603.00,35.196
604.00,35.267
605.00,35.297
606.00,35.385
607.00,35.412
608.00,35.561
609.00,35.677
610.00,35.553
611.00,35.597
612.00,35.650
613.00,35.717
614.00,35.746
615.00,35.853
616.00,35.986
617.00,35.888
618.00,35.933
619.00,36.037
620.00,36.023
621.00,36.176
622.00,36.209
623.00,36.292
624.00,36.390
625.00,36.445
626.00,36.492
627.00,36.543
628.00,36.533
629.00,36.583
630.00,36.668
631.00,36.734
632.00,36.751
633.00,36.965
634.00,37.056
635.00,37.176
636.00,37.215
637.00,37.283
638.00,37.345
639.00,37.456
640.00,37.509
641.00,37.550
642.00,37.648
643.00,37.726
644.00,37.794
645.00,37.908
646.00,38.139
647.00,38.120
648.00,38.187
649.00,38.252
650.00,38.271
651.00,38.463
652.00,38.535
653.00,38.573
654.00,38.636
655.00,38.838
656.00,39.099
657.00,39.066
658.00,39.147
659.00,39.428
660.00,39.233
661.00,39.359
662.00,39.459
663.00,39.590
664.00,39.817
665.00,40.001
666.00,40.007
667.00,40.165
668.00,40.067
669.00,40.360
670.00,40.573
671.00,40.410
672.00,40.645
673.00,40.807
674.00,40.689
675.00,40.876
676.00,41.073
677.00,41.228
678.00,41.060
679.00,41.609
680.00,41.462
681.00,41.590
682.00,41.639
683.00,41.628
684.00,41.781
685.00,41.930
686.00,41.908
687.00,42.051
688.00,42.192
689.00,42.222
690.00,42.467
691.00,42.775
692.00,42.483
693.00,42.509
694.00,42.748
695.00,43.014
696.00,43.048
697.00,42.993
698.00,43.137
699.00,43.372
700.00,43.328
701.00,43.514
702.00,43.695
703.00,43.804
704.00,43.876
705.00,43.747
706.00,43.988
707.00,44.009
708.00,43.958
709.00,44.340
710.00,44.749
711.00,44.253
712.00,44.459
713.00,44.577
714.00,44.600
715.00,44.696
716.00,44.735
717.00,44.959
718.00,45.053
719.00,45.046
720.00,45.107
721.00,49.513
722.00,49.507
723.00,49.562
724.00,49.617
725.00,49.594
726.00,49.697
727.00,49.683
728.00,49.730
729.00,49.813
730.00,49.828
731.00,49.878
732.00,49.921
733.00,49.983
734.00,50.017
735.00,50.125
736.00,50.160
737.00,50.140
738.00,50.234
739.00,50.294
740.00,50.342
741.00,50.396
742.00,50.415
743.00,50.456
744.00,50.464
745.00,50.480
746.00,50.479
747.00,50.441
748.00,50.452
749.00,50.430
750.00,50.483
751.00,50.584
752.00,50.609
753.00,50.601
754.00,50.653
755.00,50.563
756.00,50.678
757.00,50.642
758.00,50.768
759.00,50.764
760.00,50.674
761.00,50.807
762.00,50.663
763.00,50.860
764.00,50.855
765.00,50.753
766.00,50.854
767.00,50.922
768.00,50.929
769.00,50.877
770.00,50.969
771.00,50.840
772.00,51.008
773.00,50.950
774.00,51.060
775.00,51.122
776.00,51.054
777.00,51.023
778.00,51.062
779.00,51.177
780.00,51.037
781.00,51.077
782.00,51.082
783.00,51.034
784.00,51.126
785.00,51.070
786.00,51.143
787.00,51.106
788.00,51.059
789.00,51.101
790.00,51.051
791.00,51.122
792.00,51.053
793.00,51.076
794.00,51.054
795.00,51.025
796.00,51.089
797.00,51.011
798.00,51.004
799.00,51.010
800.00,50.954
801.00,51.018
802.00,50.974
803.00,51.072
804.00,50.957
805.00,50.943
806.00,50.936
807.00,50.945
808.00,50.944
809.00,50.907
810.00,50.864
811.00,50.929
812.00,51.004
813.00,50.882
814.00,50.762
815.00,50.894
816.00,50.841
817.00,50.867
818.00,50.767
819.00,50.869
820.00,50.805
821.00,50.907
822.00,50.769
823.00,50.769
824.00,50.785
825.00,50.694
826.00,50.714
827.00,50.870
828.00,50.814
829.00,50.784
830.00,50.766
831.00,53.062
832.00,53.027
833.00,52.982
834.00,53.007
835.00,52.959
836.00,52.972
837.00,52.936
838.00,52.948
839.00,52.966
840.00,52.884
841.00,52.934
842.00,52.900
843.00,52.899
844.00,52.867
845.00,52.833
846.00,52.848
847.00,52.786
848.00,52.789
849.00,52.735
850.00,52.712
851.00,52.635
852.00,52.646
853.00,52.616
854.00,52.612
855.00,52.589
856.00,52.587
857.00,52.556
858.00,52.524
859.00,52.511
860.00,52.531
861.00,52.539
862.00,52.463
863.00,52.477
864.00,52.430
865.00,52.469
866.00,52.401
867.00,52.410
868.00,52.402
869.00,52.389
870.00,52.384
871.00,52.363
872.00,52.374
873.00,52.317
874.00,52.337
875.00,52.306
876.00,52.338
877.00,52.241
878.00,52.404
879.00,52.281
880.00,52.261
881.00,52.267
882.00,52.276
883.00,52.215
884.00,52.196
885.00,52.195
886.00,52.210
887.00,52.165
888.00,52.124
889.00,52.130
890.00,52.113
891.00,52.089
892.00,52.068
893.00,52.061
894.00,52.059
895.00,52.015
896.00,52.008
897.00,51.967
898.00,51.958
899.00,51.964
900.00,51.927
901.00,51.934
902.00,51.942
903.00,51.885
904.00,51.838
905.00,52.013
906.00,51.904
907.00,51.850
908.00,51.826
909.00,51.815
910.00,51.769
911.00,51.795
912.00,51.783
913.00,51.728
914.00,51.721
915.00,51.698
916.00,51.643
917.00,51.627
918.00,51.609
919.00,51.621
920.00,51.599
921.00,51.602
922.00,51.572
923.00,51.553
924.00,51.525
925.00,51.539
926.00,51.497
927.00,51.476
928.00,51.446
929.00,51.453
930.00,51.416
931.00,51.412
932.00,51.313
933.00,51.400
934.00,51.343
935.00,51.335
936.00,51.312
937.00,51.292
938.00,51.284
939.00,51.291
940.00,51.243
941.00,51.221
942.00,51.209
943.00,51.190
944.00,51.166
945.00,51.183
946.00,51.159
947.00,51.094
948.00,51.117
949.00,51.077
950.00,51.058
951.00,51.050
952.00,51.023
953.00,50.987
954.00,50.982
955.00,50.935
956.00,50.941
957.00,50.899
958.00,50.905
959.00,50.850
960.00,50.837
961.00,50.830
962.00,50.830
963.00,50.793
964.00,50.783
965.00,50.791
966.00,50.769
967.00,50.764
968.00,50.739
969.00,50.774
970.00,50.734
971.00,50.749
972.00,50.727
973.00,50.771
974.00,50.775
975.00,50.742
976.00,50.752
977.00,50.751
978.00,50.791
979.00,50.743
980.00,50.749
981.00,50.764
982.00,50.726
983.00,50.743
984.00,50.746
985.00,50.741
986.00,50.700
987.00,50.722
988.00,50.674
989.00,50.661
990.00,50.659
991.00,50.658
992.00,50.662
993.00,50.602
994.00,50.615
995.00,50.600
996.00,50.594
997.00,50.584
998.00,50.561
999.00,50.560
1000.00,50.518
1001.00,50.512
1002.00,50.512
1003.00,50.510
1004.00,50.480
1005.00,50.460
1006.00,50.505
1007.00,50.459
1008.00,50.447
1009.00,50.440
1010.00,50.417
1011.00,50.408
1012.00,50.373
1013.00,50.373
1014.00,50.353
1015.00,50.371
1016.00,50.339
1017.00,50.337
1018.00,50.320
1019.00,50.286
1020.00,50.287
1021.00,50.264
1022.00,50.262
1023.00,50.217
1024.00,50.223
1025.00,50.206
1026.00,50.204
1027.00,50.182
1028.00,50.174
1029.00,50.140
1030.00,50.114
1031.00,50.134
1032.00,50.077
1033.00,50.084
1034.00,50.056
1035.00,50.032
1036.00,50.009
1037.00,50.001
1038.00,49.991
1039.00,49.960
1040.00,49.966
1041.00,49.910
1042.00,49.917
1043.00,49.882
1044.00,49.919
1045.00,49.890
1046.00,49.874
1047.00,49.907
1048.00,49.905
1049.00,49.926
1050.00,49.931
1051.00,49.970
1052.00,49.969
1053.00,49.972
1054.00,49.963
1055.00,50.013
1056.00,50.012
1057.00,50.022
1058.00,50.007
1059.00,49.990
1060.00,49.997
1061.00,49.974
1062.00,49.966
1063.00,49.976
1064.00,49.979
1065.00,49.954
1066.00,49.957
1067.00,49.950
1068.00,49.967
1069.00,49.922
1070.00,49.914
1071.00,49.904
1072.00,49.922
1073.00,49.891
1074.00,49.887
1075.00,49.880
1076.00,49.877
1077.00,49.863
1078.00,49.838
1079.00,49.840
1080.00,49.849
1081.00,49.829
1082.00,49.831
1083.00,49.832
1084.00,49.828
1085.00,49.833
1086.00,49.815
1087.00,49.814
1088.00,49.793
1089.00,49.789
1090.00,49.771
1091.00,49.775
1092.00,49.766
1093.00,49.747
1094.00,49.724
1095.00,49.735
1096.00,49.716
1097.00,49.717
1098.00,49.713
1099.00,49.704
1100.00,49.706
1101.00,49.720
1102.00,49.673
1103.00,49.689
1104.00,49.668
1105.00,49.655
1106.00,49.640
1107.00,49.634
1108.00,49.627
1109.00,49.639
1110.00,49.614
1111.00,49.597
1112.00,49.596
1113.00,49.599
1114.00,49.582
1115.00,49.610
1116.00,49.600
1117.00,49.560
1118.00,49.563
1119.00,49.560
1120.00,49.564
1121.00,49.555
1122.00,49.538
1123.00,49.541
1124.00,49.520
1125.00,49.531
1126.00,49.498
1127.00,49.501
1128.00,49.505
1129.00,49.486
1130.00,49.483
1131.00,49.482
1132.00,49.454
1133.00,49.450
1134.00,49.444
1135.00,49.440
1136.00,49.429
1137.00,49.434
1138.00,49.429
1139.00,49.440
1140.00,49.436
1141.00,49.436
1142.00,49.426
1143.00,49.444
1144.00,49.403
1145.00,49.410
1146.00,49.404
1147.00,49.408
1148.00,49.410
1149.00,49.414
1150.00,49.412
1151.00,49.403
1152.00,49.403
1153.00,49.408
1154.00,49.387
1155.00,49.392
1156.00,49.379
1157.00,49.406
1158.00,49.393
1159.00,49.389
1160.00,49.399
1161.00,49.418
1162.00,49.408
1163.00,49.397
1164.00,49.404
1165.00,49.397
1166.00,49.393
1167.00,49.380
1168.00,49.402
1169.00,49.373
1170.00,49.373
1171.00,49.364
1172.00,49.368
1173.00,49.358
1174.00,49.388
1175.00,49.364
1176.00,49.383
1177.00,49.381
1178.00,49.374
1179.00,49.387
1180.00,49.368
1181.00,49.394
1182.00,49.386
1183.00,49.372
1184.00,49.365
1185.00,49.385
1186.00,49.371
1187.00,49.386
1188.00,49.374
1189.00,49.369
1190.00,49.370
1191.00,49.352
1192.00,49.384
1193.00,49.363
1194.00,49.367
1195.00,49.354
1196.00,49.387
1197.00,49.376
1198.00,49.365
1199.00,49.358
1200.00,49.375
1201.00,49.395
1202.00,49.361
1203.00,49.361
1204.00,49.368
1205.00,49.383
1206.00,49.369
1207.00,49.384
1208.00,49.362
1209.00,49.379
1210.00,49.370
1211.00,49.376
1212.00,49.393
1213.00,49.345
1214.00,49.369
1215.00,49.352
1216.00,49.370
1217.00,49.360
1218.00,49.359
1219.00,49.391
1220.00,49.386
1221.00,49.421
1222.00,49.397
1223.00,49.408
1224.00,49.388
1225.00,49.383
1226.00,49.389
1227.00,49.382
1228.00,49.404
1229.00,49.387
1230.00,49.431
1231.00,49.408
1232.00,49.438
1233.00,49.446
1234.00,49.452
1235.00,49.450
1236.00,49.449
1237.00,49.471
1238.00,49.447
1239.00,49.454
1240.00,49.444
1241.00,49.452
1242.00,49.440
1243.00,49.456
1244.00,49.448
1245.00,49.472
1246.00,49.469
1247.00,49.469
1248.00,49.468
1249.00,49.486
1250.00,49.489
1251.00,49.486
1252.00,49.495
1253.00,49.492
1254.00,49.515
1255.00,49.492
1256.00,49.487
1257.00,49.485
1258.00,49.540
1259.00,49.527
1260.00,49.549
1261.00,49.539
1262.00,49.532
1263.00,49.528
1264.00,49.510
1265.00,49.532
1266.00,49.544
1267.00,49.568
1268.00,49.568
1269.00,49.571
1270.00,49.598
1271.00,49.586
1272.00,49.582
1273.00,49.623
1274.00,49.587
1275.00,49.599
1276.00,49.602
1277.00,49.610
1278.00,49.616
1279.00,49.614
1280.00,49.613
1281.00,49.656
1282.00,49.646
1283.00,49.647
1284.00,49.656
1285.00,49.650
1286.00,49.674
1287.00,49.661
1288.00,49.671
1289.00,49.674
1290.00,49.699
1291.00,49.704
1292.00,49.712
1293.00,49.707
1294.00,49.732
1295.00,49.748
1296.00,49.737
1297.00,49.740
1298.00,49.782
1299.00,49.745
1300.00,49.772
1301.00,49.749
1302.00,49.771
1303.00,49.764
1304.00,49.752
1305.00,49.791
1306.00,49.807
1307.00,49.805
1308.00,49.813
1309.00,49.819
1310.00,49.822
1311.00,49.829
1312.00,49.829
1313.00,49.853
1314.00,49.874
1315.00,49.874
1316.00,49.863
1317.00,49.911
1318.00,49.893
1319.00,49.901
1320.00,49.909
1321.00,50.073
1322.00,50.061
1323.00,50.047
1324.00,50.051
1325.00,50.031
1326.00,50.074
1327.00,50.046
1328.00,50.051
1329.00,50.065
1330.00,50.062
1331.00,50.071
1332.00,50.099
1333.00,50.080
1334.00,50.112
1335.00,50.155
1336.00,50.146
1337.00,50.182
1338.00,50.248
1339.00,50.284
1340.00,50.336
1341.00,50.402
1342.00,50.459
1343.00,50.508
1344.00,50.554
1345.00,50.613
1346.00,50.664
1347.00,50.671
1348.00,50.722
1349.00,50.732
1350.00,50.736
1351.00,50.757
1352.00,50.779
1353.00,50.772
1354.00,50.792
1355.00,50.736
1356.00,50.799
1357.00,50.795
1358.00,50.825
1359.00,50.826
1360.00,50.857
1361.00,50.817
1362.00,50.791
1363.00,50.906
1364.00,50.857
1365.00,50.849
1366.00,50.909
1367.00,50.838
1368.00,50.829
1369.00,50.863
1370.00,50.874
1371.00,50.834
1372.00,50.827
1373.00,50.832
1374.00,50.855
1375.00,50.828
1376.00,50.849
1377.00,50.825
1378.00,50.943
1379.00,50.850
1380.00,50.852
1381.00,50.852
1382.00,50.832
1383.00,50.872
1384.00,50.827
1385.00,50.843
1386.00,50.872
1387.00,50.865
1388.00,50.816
1389.00,50.841
1390.00,50.869
1391.00,50.852
1392.00,50.827
1393.00,50.880
1394.00,50.853
1395.00,50.844
1396.00,50.785
1397.00,50.853
1398.00,50.877
1399.00,50.858
1400.00,50.798
1401.00,50.823
1402.00,50.925
1403.00,50.875
1404.00,50.857
1405.00,50.888
1406.00,50.918
1407.00,50.903
1408.00,50.911
1409.00,50.900
1410.00,50.941
1411.00,50.903
1412.00,50.983
1413.00,50.913
1414.00,50.935
1415.00,50.955
1416.00,50.972
1417.00,51.028
1418.00,50.996
1419.00,51.000
1420.00,51.030
1421.00,51.088
1422.00,51.064
1423.00,51.100
1424.00,51.087
1425.00,51.117
1426.00,51.111
1427.00,51.139
1428.00,51.152
1429.00,51.159
1430.00,51.164
1431.00,51.188
1432.00,51.208
1433.00,51.248
1434.00,51.247
1435.00,51.285
1436.00,51.285
1437.00,51.281
1438.00,51.298
1439.00,51.340
1440.00,51.347
1441.00,51.346
1442.00,51.365
1443.00,51.370
1444.00,51.448
1445.00,51.424
1446.00,51.443
1447.00,51.488
1448.00,51.538
1449.00,51.520
1450.00,51.538
1451.00,51.538
1452.00,51.570
1453.00,51.573
1454.00,51.606
1455.00,51.619
1456.00,51.639
1457.00,51.628
1458.00,51.673
1459.00,51.681
1460.00,51.718
1461.00,51.719
1462.00,51.754
1463.00,51.761
1464.00,51.770
1465.00,51.775
1466.00,51.777
1467.00,51.812
1468.00,51.867
1469.00,51.826
1470.00,51.866
1471.00,51.871
1472.00,51.885
1473.00,51.895
1474.00,51.921
1475.00,51.938
1476.00,51.938
1477.00,51.933
1478.00,51.990
1479.00,51.992
1480.00,51.990
1481.00,52.004
1482.00,52.045
1483.00,52.060
1484.00,52.072
1485.00,52.079
1486.00,52.098
1487.00,52.116
1488.00,52.140
1489.00,52.138
1490.00,52.140
1491.00,52.161
1492.00,52.190
1493.00,52.174
1494.00,52.246
1495.00,52.215
1496.00,52.237
1497.00,52.221
1498.00,52.243
1499.00,52.254
1500.00,52.271
1501.00, 
1502.00, 
1503.00, 
1504.00, 
1505.00, 
1506.00, 
1507.00, 
1508.00, 
1509.00, 
1510.00, 
1511.00, 
1512.00, 
1513.00, 
1514.00, 
1515.00, 
1516.00, 
1517.00, 
1518.00, 
1519.00, 
1520.00, 
1521.00, 
1522.00, 
1523.00, 
1524.00, 
1525.00, 
1526.00, 
1527.00, 
1528.00, 
1529.00, 
1530.00, 
1531.00, 
1532.00, 
1533.00, 
1534.00, 
1535.00, 
1536.00, 
1537.00, 
1538.00, 
1539.00, 
1540.00, 
1541.00, 
1542.00, 
1543.00, 
1544.00, 
1545.00, 
1546.00, 
1547.00, 
1548.00, 
1549.00, 
1550.00, 
1551.00, 
1552.00, 
1553.00, 
1554.00, 
1555.00, 
1556.00, 
1557.00, 
1558.00, 
1559.00, 
1560.00, 
1561.00, 
1562.00, 
1563.00, 
1564.00, 
1565.00, 
1566.00, 
1567.00, 
1568.00, 
1569.00, 
1570.00, 
1571.00, 
1572.00, 
1573.00, 
1574.00, 
1575.00, 
1576.00, 
1577.00, 
1578.00, 
1579.00, 
1580.00, 
1581.00, 
1582.00, 
1583.00, 
1584.00, 
1585.00, 
1586.00, 
1587.00, 
1588.00, 
1589.00, 
1590.00, 
1591.00, 
1592.00, 
1593.00, 
1594.00, 
1595.00, 
1596.00, 
1597.00, 
1598.00, 
1599.00, 
1600.00, 
1601.00, 
1602.00, 
1603.00, 
1604.00, 
1605.00, 
1606.00, 
1607.00, 
1608.00, 
1609.00, 
1610.00, 
1611.00, 
1612.00, 
1613.00, 
1614.00, 
1615.00, 
1616.00, 
1617.00, 
1618.00, 
1619.00, 
1620.00, 
1621.00, 
1622.00, 
1623.00, 
1624.00, 
1625.00, 
1626.00, 
1627.00, 
1628.00, 
1629.00, 
1630.00, 
1631.00, 
1632.00, 
1633.00, 
1634.00, 
1635.00, 
1636.00, 
1637.00, 
1638.00, 
1639.00, 
1640.00, 
1641.00, 
1642.00, 
1643.00, 
1644.00, 
1645.00, 
1646.00, 
1647.00, 
1648.00, 
1649.00, 
1650.00, 
1651.00, 
1652.00, 
1653.00, 
1654.00, 
1655.00, 
1656.00, 
1657.00, 
1658.00, 
1659.00, 
1660.00, 
1661.00, 
1662.00, 
1663.00, 
1664.00, 
1665.00, 
1666.00, 
1667.00, 
1668.00, 
1669.00, 
1670.00, 
1671.00, 
1672.00, 
1673.00, 
1674.00, 
1675.00, 
1676.00, 
1677.00, 
1678.00, 
1679.00, 
1680.00, 
1681.00, 
1682.00, 
1683.00, 
1684.00, 
1685.00, 
1686.00, 
1687.00, 
1688.00, 
1689.00, 
1690.00, 
1691.00, 
1692.00, 
1693.00, 
1694.00, 
1695.00, 
1696.00, 
1697.00, 
1698.00, 
1699.00, 
1700.00, 
1701.00, 
1702.00, 
1703.00, 
1704.00, 
1705.00, 
1706.00, 
1707.00, 
1708.00, 
1709.00, 
1710.00, 
1711.00, 
1712.00, 
1713.00, 
1714.00, 
1715.00, 
1716.00, 
1717.00, 
1718.00, 
1719.00, 
1720.00, 
1721.00, 
1722.00, 
1723.00, 
1724.00, 
1725.00, 
1726.00, 
1727.00, 
1728.00, 
1729.00, 
1730.00, 
1731.00, 
1732.00, 
1733.00, 
1734.00, 
1735.00, 
1736.00, 
1737.00, 
1738.00, 
1739.00, 
1740.00, 
1741.00, 
1742.00, 
1743.00, 
1744.00, 
1745.00, 
1746.00, 
1747.00, 
1748.00, 
1749.00, 
1750.00, 
1751.00, 
1752.00, 
1753.00, 
1754.00, 
1755.00, 
1756.00, 
1757.00, 
1758.00, 
1759.00, 
1760.00, 
1761.00, 
1762.00, 
1763.00, 
1764.00, 
1765.00, 
1766.00, 
1767.00, 
1768.00, 
1769.00, 
1770.00, 
1771.00, 
1772.00, 
1773.00, 
1774.00, 
1775.00, 
1776.00, 
1777.00, 
1778.00, 
1779.00, 
1780.00, 
1781.00, 
1782.00, 
1783.00, 
1784.00, 
1785.00, 
1786.00, 
1787.00, 
1788.00, 
1789.00, 
1790.00, 
1791.00, 
1792.00, 
1793.00, 
1794.00, 
1795.00, 
1796.00, 
1797.00, 
1798.00, 
1799.00, 
1800.00, 
1801.00, 
1802.00, 
1803.00, 
1804.00, 
1805.00, 
1806.00, 
1807.00, 
1808.00, 
1809.00, 
1810.00, 
1811.00, 
1812.00, 
1813.00, 
1814.00, 
1815.00, 
1816.00, 
1817.00, 
1818.00, 
1819.00, 
1820.00, 
1821.00, 
1822.00, 
1823.00, 
1824.00, 
1825.00, 
1826.00, 
1827.00, 
1828.00, 
1829.00, 
1830.00, 
1831.00, 
1832.00, 
1833.00, 
1834.00, 
1835.00, 
1836.00, 
1837.00, 
1838.00, 
1839.00, 
1840.00, 
1841.00, 
1842.00, 
1843.00, 
1844.00, 
1845.00, 
1846.00, 
1847.00, 
1848.00, 
1849.00, 
1850.00, 
1851.00, 
1852.00, 
1853.00, 
1854.00, 
1855.00, 
1856.00, 
1857.00, 
1858.00, 
1859.00, 
1860.00, 
1861.00, 
1862.00, 
1863.00, 
1864.00, 
1865.00, 
1866.00, 
1867.00, 
1868.00, 
1869.00, 
1870.00, 
1871.00, 
1872.00, 
1873.00, 
1874.00, 
1875.00, 
1876.00, 
1877.00, 
1878.00, 
1879.00, 
1880.00, 
1881.00, 
1882.00, 
1883.00, 
1884.00, 
1885.00, 
1886.00, 
1887.00, 
1888.00, 
1889.00, 
1890.00, 
1891.00, 
1892.00, 
1893.00, 
1894.00, 
1895.00, 
1896.00, 
1897.00, 
1898.00, 
1899.00, 
1900.00, 
1901.00, 
1902.00, 
1903.00, 
1904.00, 
1905.00, 
1906.00, 
1907.00, 
1908.00, 
1909.00, 
1910.00, 
1911.00, 
1912.00, 
1913.00, 
1914.00, 
1915.00, 
1916.00, 
1917.00, 
1918.00, 
1919.00, 
1920.00, 
1921.00, 
1922.00, 
1923.00, 
1924.00, 
1925.00, 
1926.00, 
1927.00, 
1928.00, 
1929.00, 
1930.00, 
1931.00, 
1932.00, 
1933.00, 
1934.00, 
1935.00, 
1936.00, 
1937.00, 
1938.00, 
1939.00, 
1940.00, 
1941.00, 
1942.00, 
1943.00, 
1944.00, 
1945.00, 
1946.00, 
1947.00, 
1948.00, 
1949.00, 
1950.00, 
1951.00, 
1952.00, 
1953.00, 
1954.00, 
1955.00, 
1956.00, 
1957.00, 
1958.00, 
1959.00, 
1960.00, 
1961.00, 
1962.00, 
1963.00, 
1964.00, 
1965.00, 
1966.00, 
1967.00, 
1968.00, 
1969.00, 
1970.00, 
1971.00, 
1972.00, 
1973.00, 
1974.00, 
1975.00, 
1976.00, 
1977.00, 
1978.00, 
1979.00, 
1980.00, 
1981.00, 
1982.00, 
1983.00, 
1984.00, 
1985.00, 
1986.00, 
1987.00, 
1988.00, 
1989.00, 
1990.00, 
1991.00, 
1992.00, 
1993.00, 
1994.00, 
1995.00, 
1996.00, 
1997.00, 
1998.00, 
1999.00, 
2000.00, 
2001.00, 
2002.00, 
2003.00, 
2004.00, 
2005.00, 
2006.00, 
2007.00, 
2008.00, 
2009.00, 
2010.00, 
2011.00, 
2012.00, 
2013.00, 
2014.00, 
2015.00, 
2016.00, 
2017.00, 
2018.00, 
2019.00, 
2020.00, 
2021.00, 
2022.00, 
2023.00, 
2024.00, 
2025.00, 
2026.00, 
2027.00, 
2028.00, 
2029.00, 
2030.00, 
2031.00, 
2032.00, 
2033.00, 
2034.00, 
2035.00, 
2036.00, 
2037.00, 
2038.00, 
2039.00, 
2040.00, 
2041.00, 
2042.00, 
2043.00, 
2044.00, 
2045.00, 
2046.00, 
2047.00, 
2048.00, 
2049.00, 
2050.00, 
2051.00, 
2052.00, 
2053.00, 
2054.00, 
2055.00, 
2056.00, 
2057.00, 
2058.00, 
2059.00, 
2060.00, 
2061.00, 
2062.00, 
2063.00, 
2064.00, 
2065.00, 
2066.00, 
2067.00, 
2068.00, 
2069.00, 
2070.00, 
2071.00, 
2072.00, 
2073.00, 
2074.00, 
2075.00, 
2076.00, 
2077.00, 
2078.00, 
2079.00, 
2080.00, 
2081.00, 
2082.00, 
2083.00, 
2084.00, 
2085.00, 
2086.00, 
2087.00, 
2088.00, 
2089.00, 
2090.00, 
2091.00, 
2092.00, 
2093.00, 
2094.00, 
2095.00, 
2096.00, 
2097.00, 
2098.00, 
2099.00, 
2100.00, 
2101.00, 
2102.00, 
2103.00, 
2104.00, 
2105.00, 
2106.00, 
2107.00, 
2108.00, 
2109.00, 
2110.00, 
2111.00, 
2112.00, 
2113.00, 
2114.00, 
2115.00, 
2116.00, 
2117.00, 
2118.00, 
2119.00, 
2120.00, 
2121.00, 
2122.00, 
2123.00, 
2124.00, 
2125.00, 
2126.00, 
2127.00, 
2128.00, 
2129.00, 
2130.00, 
2131.00, 
2132.00, 
2133.00, 
2134.00, 
2135.00, 
2136.00, 
2137.00, 
2138.00, 
2139.00, 
2140.00, 
2141.00, 
2142.00, 
2143.00, 
2144.00, 
2145.00, 
2146.00, 
2147.00, 
2148.00, 
2149.00, 
2150.00, 
2151.00, 
2152.00, 
2153.00, 
2154.00, 
2155.00, 
2156.00, 
2157.00, 
2158.00, 
2159.00, 
2160.00, 
2161.00, 
2162.00, 
2163.00, 
2164.00, 
2165.00, 
2166.00, 
2167.00, 
2168.00, 
2169.00, 
2170.00, 
2171.00, 
2172.00, 
2173.00, 
2174.00, 
2175.00, 
2176.00, 
2177.00, 
2178.00, 
2179.00, 
2180.00, 
2181.00, 
2182.00, 
2183.00, 
2184.00, 
2185.00, 
2186.00, 
2187.00, 
2188.00, 
2189.00, 
2190.00, 
2191.00, 
2192.00, 
2193.00, 
2194.00, 
2195.00, 
2196.00, 
2197.00, 
2198.00, 
2199.00, 
2200.00, 
2201.00, 
2202.00, 
2203.00, 
2204.00, 
2205.00, 
2206.00, 
2207.00, 
2208.00, 
2209.00, 
2210.00, 
2211.00, 
2212.00, 
2213.00, 
2214.00, 
2215.00, 
2216.00, 
2217.00, 
2218.00, 
2219.00, 
2220.00, 
2221.00, 
2222.00, 
2223.00, 
2224.00, 
2225.00, 
2226.00, 
2227.00, 
2228.00, 
2229.00, 
2230.00, 
2231.00, 
2232.00, 
2233.00, 
2234.00, 
2235.00, 
2236.00, 
2237.00, 
2238.00, 
2239.00, 
2240.00, 
2241.00, 
2242.00, 
2243.00, 
2244.00, 
2245.00, 
2246.00, 
2247.00, 
2248.00, 
2249.00, 
2250.00, 
2251.00, 
2252.00, 
2253.00, 
2254.00, 
2255.00, 
2256.00, 
2257.00, 
2258.00, 
2259.00, 
2260.00, 
2261.00, 
2262.00, 
2263.00, 
2264.00, 
2265.00, 
2266.00, 
2267.00, 
2268.00, 
2269.00, 
2270.00, 
2271.00, 
2272.00, 
2273.00, 
2274.00, 
2275.00, 
2276.00, 
2277.00, 
2278.00, 
2279.00, 
2280.00, 
2281.00, 
2282.00, 
2283.00, 
2284.00, 
2285.00, 
2286.00, 
2287.00, 
2288.00, 
2289.00, 
2290.00, 
2291.00, 
2292.00, 
2293.00, 
2294.00, 
2295.00, 
2296.00, 
2297.00, 
2298.00, 
2299.00, 
2300.00, 
2301.00, 
2302.00, 
2303.00, 
2304.00, 
2305.00, 
2306.00, 
2307.00, 
2308.00, 
2309.00, 
2310.00, 
2311.00, 
2312.00, 
2313.00, 
2314.00, 
2315.00, 
2316.00, 
2317.00, 
2318.00, 
2319.00, 
2320.00, 
2321.00, 
2322.00, 
2323.00, 
2324.00, 
2325.00, 
2326.00, 
2327.00, 
2328.00, 
2329.00, 
2330.00, 
2331.00, 
2332.00, 
2333.00, 
2334.00, 
2335.00, 
2336.00, 
2337.00, 
2338.00, 
2339.00, 
2340.00, 
2341.00, 
2342.00, 
2343.00, 
2344.00, 
2345.00, 
2346.00, 
2347.00, 
2348.00, 
2349.00, 
2350.00, 
2351.00, 
2352.00, 
2353.00, 
2354.00, 
2355.00, 
2356.00, 
2357.00, 
2358.00, 
2359.00, 
2360.00, 
2361.00, 
2362.00, 
2363.00, 
2364.00, 
2365.00, 
2366.00, 
2367.00, 
2368.00, 
2369.00, 
2370.00, 
2371.00, 
2372.00, 
2373.00, 
2374.00, 
2375.00, 
2376.00, 
2377.00, 
2378.00, 
2379.00, 
2380.00, 
2381.00, 
2382.00, 
2383.00, 
2384.00, 
2385.00, 
2386.00, 
2387.00, 
2388.00, 
2389.00, 
2390.00, 
2391.00, 
2392.00, 
2393.00, 
2394.00, 
2395.00, 
2396.00, 
2397.00, 
2398.00, 
2399.00, 
2400.00, 
2401.00, 
2402.00, 
2403.00, 
2404.00, 
2405.00, 
2406.00, 
2407.00, 
2408.00, 
2409.00, 
2410.00, 
2411.00, 
2412.00, 
2413.00, 
2414.00, 
2415.00, 
2416.00, 
2417.00, 
2418.00, 
2419.00, 
2420.00, 
2421.00, 
2422.00, 
2423.00, 
2424.00, 
2425.00, 
2426.00, 
2427.00, 
2428.00, 
2429.00, 
2430.00, 
2431.00, 
2432.00, 
2433.00, 
2434.00, 
2435.00, 
2436.00, 
2437.00, 
2438.00, 
2439.00, 
2440.00, 
2441.00, 
2442.00, 
2443.00, 
2444.00, 
2445.00, 
2446.00, 
2447.00, 
2448.00, 
2449.00, 
2450.00, 
2451.00, 
2452.00, 
2453.00, 
2454.00, 
2455.00, 
2456.00, 
2457.00, 
2458.00, 
2459.00, 
2460.00, 
2461.00, 
2462.00, 
2463.00, 
2464.00, 
2465.00, 
2466.00, 
2467.00, 
2468.00, 
2469.00, 
2470.00, 
2471.00, 
2472.00, 
2473.00, 
2474.00, 
2475.00, 
2476.00, 
2477.00, 
2478.00, 
2479.00, 
2480.00, 
2481.00, 
2482.00, 
2483.00, 
2484.00, 
2485.00, 
2486.00, 
2487.00, 
2488.00, 
2489.00, 
2490.00, 
2491.00, 
2492.00, 
2493.00, 
2494.00, 
2495.00, 
2496.00, 
2497.00, 
2498.00, 
2499.00, 
2500.00, 
2501.00, 
2502.00, 
2503.00, 
2504.00, 
2505.00, 
2506.00, 
2507.00, 
2508.00, 
2509.00, 
2510.00, 
2511.00, 
2512.00, 
2513.00, 
2514.00, 
2515.00, 
2516.00, 
2517.00, 
2518.00, 
2519.00, 
2520.00, 
2521.00, 
2522.00, 
2523.00, 
2524.00, 
2525.00, 
2526.00, 
2527.00, 
2528.00, 
2529.00, 
2530.00, 
2531.00, 
2532.00, 
2533.00, 
2534.00, 
2535.00, 
2536.00, 
2537.00, 
2538.00, 
2539.00, 
2540.00, 
2541.00, 
2542.00, 
2543.00, 
2544.00, 
2545.00, 
2546.00, 
2547.00, 
2548.00, 
2549.00, 
2550.00, 
2551.00, 
2552.00, 
2553.00, 
2554.00, 
2555.00, 
2556.00, 
2557.00, 
2558.00, 
2559.00, 
2560.00, 
2561.00, 
2562.00, 
2563.00, 
2564.00, 
2565.00, 
2566.00, 
2567.00, 
2568.00, 
2569.00, 
2570.00, 
2571.00, 
2572.00, 
2573.00, 
2574.00, 
2575.00, 
2576.00, 
2577.00, 
2578.00, 
2579.00, 
2580.00, 
2581.00, 
2582.00, 
2583.00, 
2584.00, 
2585.00, 
2586.00, 
2587.00, 
2588.00, 
2589.00, 
2590.00, 
2591.00, 
2592.00, 
2593.00, 
2594.00, 
2595.00, 
2596.00, 
2597.00, 
2598.00, 
2599.00, 
2600.00, 
