"2aP2 - RawData"
"Wavelength nm.","T%"
200.00,0.004
201.00,0.002
202.00,0.002
203.00,0.001
204.00,-0.001
205.00,0.002
206.00,0.002
207.00,0.000
208.00,0.002
209.00,0.000
210.00,0.003
211.00,-0.001
212.00,-0.001
213.00,0.003
214.00,0.000
215.00,0.000
216.00,0.001
217.00,0.002
218.00,0.003
219.00,0.001
220.00,0.001
221.00,0.000
222.00,0.003
223.00,0.003
224.00,-0.001
225.00,0.001
226.00,0.003
227.00,0.002
228.00,0.002
229.00,0.001
230.00,0.002
231.00,0.001
232.00,0.003
233.00,0.002
234.00,-0.000
235.00,0.002
236.00,-0.000
237.00,0.004
238.00,0.001
239.00,0.001
240.00,0.002
241.00,0.004
242.00,0.003
243.00,0.002
244.00,-0.000
245.00,0.002
246.00,-0.000
247.00,0.002
248.00,0.002
249.00,0.001
250.00,0.002
251.00,0.002
252.00,-0.000
253.00,0.002
254.00,0.001
255.00,-0.001
256.00,0.001
257.00,-0.001
258.00,0.000
259.00,0.001
260.00,-0.001
261.00,-0.001
262.00,-0.001
263.00,0.001
264.00,0.002
265.00,-0.000
266.00,-0.000
267.00,-0.002
268.00,0.001
269.00,-0.001
270.00,0.001
271.00,0.001
272.00,-0.000
273.00,-0.001
274.00,-0.000
275.00,-0.000
276.00,0.000
277.00,-0.001
278.00,-0.000
279.00,-0.000
280.00,0.001
281.00,-0.000
282.00,0.001
283.00,-0.000
284.00,-0.001
285.00,0.002
286.00,-0.001
287.00,-0.002
288.00,-0.001
289.00,0.002
290.00,0.001
291.00,0.001
292.00,-0.003
293.00,0.001
294.00,0.000
295.00,0.002
296.00,-0.001
297.00,-0.000
298.00,-0.000
299.00,0.001
300.00,0.002
301.00,0.003
302.00,0.005
303.00,0.007
304.00,0.007
305.00,0.016
306.00,0.022
307.00,0.032
308.00,0.049
309.00,0.076
310.00,0.106
311.00,0.146
312.00,0.199
313.00,0.266
314.00,0.356
315.00,0.458
316.00,0.582
317.00,0.731
318.00,0.900
319.00,1.108
320.00,1.339
321.00,1.594
322.00,1.906
323.00,2.217
324.00,2.574
325.00,2.925
326.00,3.289
327.00,3.719
328.00,4.146
329.00,4.568
330.00,5.041
331.00,5.483
332.00,5.970
333.00,6.431
334.00,6.944
335.00,7.337
336.00,7.874
337.00,8.345
338.00,8.800
339.00,9.244
340.00,9.673
341.00,10.112
342.00,10.517
343.00,10.900
344.00,11.318
345.00,11.636
346.00,11.965
347.00,12.269
348.00,12.580
349.00,12.843
350.00,13.088
351.00,13.350
352.00,13.556
353.00,13.772
354.00,13.946
355.00,14.166
356.00,14.330
357.00,14.465
358.00,14.603
359.00,14.755
360.00,14.899
361.00,14.986
362.00,15.097
363.00,15.198
364.00,15.237
365.00,15.287
366.00,15.343
367.00,15.357
368.00,15.419
369.00,15.398
370.00,15.489
371.00,15.483
372.00,15.397
373.00,15.435
374.00,15.429
375.00,15.371
376.00,15.334
377.00,15.301
378.00,15.201
379.00,15.163
380.00,15.142
381.00,15.119
382.00,15.092
383.00,15.091
384.00,15.068
385.00,15.077
386.00,15.059
387.00,15.090
388.00,15.138
389.00,15.120
390.00,15.121
391.00,15.092
392.00,15.106
393.00,15.097
394.00,15.096
395.00,15.128
396.00,15.073
397.00,15.080
398.00,15.062
399.00,15.066
400.00,15.054
401.00,15.045
402.00,15.045
403.00,15.034
404.00,14.985
405.00,14.985
406.00,14.981
407.00,14.957
408.00,14.950
409.00,14.898
410.00,14.881
411.00,14.890
412.00,14.855
413.00,14.857
414.00,14.849
415.00,14.828
416.00,14.911
417.00,14.885
418.00,14.938
419.00,14.971
420.00,15.014
421.00,15.044
422.00,15.037
423.00,15.092
424.00,15.110
425.00,15.154
426.00,15.162
427.00,15.213
428.00,15.259
429.00,15.316
430.00,15.349
431.00,15.405
432.00,15.480
433.00,15.496
434.00,15.566
435.00,15.634
436.00,15.672
437.00,15.769
438.00,15.820
439.00,15.881
440.00,15.949
441.00,16.002
442.00,16.114
443.00,16.196
444.00,16.290
445.00,16.365
446.00,16.464
447.00,16.519
448.00,16.653
449.00,16.735
450.00,16.813
451.00,16.924
452.00,17.033
453.00,17.145
454.00,17.251
455.00,17.354
456.00,17.477
457.00,17.570
458.00,17.696
459.00,17.836
460.00,17.977
461.00,18.071
462.00,18.210
463.00,18.343
464.00,18.475
465.00,18.618
466.00,18.750
467.00,18.892
468.00,19.001
469.00,19.105
470.00,19.246
471.00,19.331
472.00,19.466
473.00,19.563
474.00,19.696
475.00,19.833
476.00,19.922
477.00,20.059
478.00,20.200
479.00,20.389
480.00,20.508
481.00,20.649
482.00,20.821
483.00,20.943
484.00,21.140
485.00,21.275
486.00,21.430
487.00,21.584
488.00,21.737
489.00,21.925
490.00,22.083
491.00,22.232
492.00,22.357
493.00,22.561
494.00,22.736
495.00,22.780
496.00,22.915
497.00,23.055
498.00,23.208
499.00,23.368
500.00,23.504
501.00,23.632
502.00,23.787
503.00,23.922
504.00,24.007
505.00,24.140
506.00,24.287
507.00,24.399
508.00,24.538
509.00,24.726
510.00,24.831
511.00,24.954
512.00,25.135
513.00,25.258
514.00,25.415
515.00,25.556
516.00,25.662
517.00,25.777
518.00,25.929
519.00,25.996
520.00,26.066
521.00,26.187
522.00,26.293
523.00,26.352
524.00,26.470
525.00,26.628
526.00,26.739
527.00,26.835
528.00,26.906
529.00,27.097
530.00,27.247
531.00,27.274
532.00,27.436
533.00,27.508
534.00,27.675
535.00,27.741
536.00,27.811
537.00,27.943
538.00,28.018
539.00,28.050
540.00,28.154
541.00,28.226
542.00,28.247
543.00,28.353
544.00,28.493
545.00,28.517
546.00,28.551
547.00,28.732
548.00,28.817
549.00,28.857
550.00,28.934
551.00,29.086
552.00,29.128
553.00,29.187
554.00,29.292
555.00,29.319
556.00,29.404
557.00,29.473
558.00,29.565
559.00,29.627
560.00,29.691
561.00,29.741
562.00,29.890
563.00,29.870
564.00,29.942
565.00,29.975
566.00,30.002
567.00,30.061
568.00,30.100
569.00,30.196
570.00,30.263
571.00,30.297
572.00,30.324
573.00,30.332
574.00,30.395
575.00,30.421
576.00,30.435
577.00,30.489
578.00,30.579
579.00,30.675
580.00,30.694
581.00,30.877
582.00,30.927
583.00,30.950
584.00,31.032
585.00,31.116
586.00,31.174
587.00,31.241
588.00,31.283
589.00,31.260
590.00,31.354
591.00,31.405
592.00,31.382
593.00,31.484
594.00,31.556
595.00,31.667
596.00,31.694
597.00,31.785
598.00,31.831
599.00,31.844
600.00,31.919
601.00,31.998
602.00,32.028
603.00,32.062
604.00,32.113
605.00,32.167
606.00,32.219
607.00,32.237
608.00,32.411
609.00,32.534
610.00,32.428
611.00,32.504
612.00,32.530
613.00,32.613
614.00,32.690
615.00,32.754
616.00,32.851
617.00,32.836
618.00,32.928
619.00,33.036
620.00,33.033
621.00,33.109
622.00,33.233
623.00,33.317
624.00,33.408
625.00,33.501
626.00,33.569
627.00,33.651
628.00,33.658
629.00,33.723
630.00,33.801
631.00,33.854
632.00,34.002
633.00,34.115
634.00,34.180
635.00,34.341
636.00,34.430
637.00,34.530
638.00,34.566
639.00,34.709
640.00,34.798
641.00,34.830
642.00,34.943
643.00,35.041
644.00,35.102
645.00,35.218
646.00,35.484
647.00,35.489
648.00,35.508
649.00,35.630
650.00,35.716
651.00,35.893
652.00,36.015
653.00,36.066
654.00,36.163
655.00,36.405
656.00,36.671
657.00,36.627
658.00,36.773
659.00,36.880
660.00,36.949
661.00,36.939
662.00,37.092
663.00,37.242
664.00,37.480
665.00,37.688
666.00,37.521
667.00,37.835
668.00,38.165
669.00,38.200
670.00,38.361
671.00,38.274
672.00,38.456
673.00,38.576
674.00,38.656
675.00,38.840
676.00,39.057
677.00,39.229
678.00,39.020
679.00,39.312
680.00,39.497
681.00,39.642
682.00,39.746
683.00,39.810
684.00,39.969
685.00,40.079
686.00,40.070
687.00,40.256
688.00,40.419
689.00,40.480
690.00,40.648
691.00,41.091
692.00,40.851
693.00,40.951
694.00,41.153
695.00,41.404
696.00,41.522
697.00,41.504
698.00,41.678
699.00,41.967
700.00,41.928
701.00,42.128
702.00,42.306
703.00,42.485
704.00,42.500
705.00,42.505
706.00,42.766
707.00,42.795
708.00,42.789
709.00,43.161
710.00,43.531
711.00,43.216
712.00,43.416
713.00,43.541
714.00,43.589
715.00,43.753
716.00,43.781
717.00,44.060
718.00,44.147
719.00,44.141
720.00,44.318
721.00,48.544
722.00,48.638
723.00,48.743
724.00,48.742
725.00,48.793
726.00,48.907
727.00,48.896
728.00,48.996
729.00,49.217
730.00,49.202
731.00,49.192
732.00,49.281
733.00,49.410
734.00,49.460
735.00,49.626
736.00,49.670
737.00,49.655
738.00,49.764
739.00,49.797
740.00,49.970
741.00,50.029
742.00,50.012
743.00,50.096
744.00,50.109
745.00,50.235
746.00,50.145
747.00,50.253
748.00,50.279
749.00,50.321
750.00,50.385
751.00,50.514
752.00,50.485
753.00,50.537
754.00,50.520
755.00,50.516
756.00,50.661
757.00,50.625
758.00,50.739
759.00,50.822
760.00,50.757
761.00,50.892
762.00,50.847
763.00,51.035
764.00,51.015
765.00,51.025
766.00,51.013
767.00,51.126
768.00,51.182
769.00,51.180
770.00,51.269
771.00,51.148
772.00,51.324
773.00,51.295
774.00,51.374
775.00,51.445
776.00,51.394
777.00,51.427
778.00,51.564
779.00,51.589
780.00,51.459
781.00,51.541
782.00,51.606
783.00,51.551
784.00,51.562
785.00,51.588
786.00,51.720
787.00,51.667
788.00,51.626
789.00,51.646
790.00,51.660
791.00,51.735
792.00,51.699
793.00,51.659
794.00,51.725
795.00,51.662
796.00,51.776
797.00,51.656
798.00,51.746
799.00,51.747
800.00,51.658
801.00,51.779
802.00,51.776
803.00,51.828
804.00,51.752
805.00,51.781
806.00,51.731
807.00,51.753
808.00,51.775
809.00,51.709
810.00,51.714
811.00,51.774
812.00,51.800
813.00,51.697
814.00,51.700
815.00,51.765
816.00,51.766
817.00,51.702
818.00,51.713
819.00,51.767
820.00,51.753
821.00,51.694
822.00,51.793
823.00,51.619
824.00,51.707
825.00,51.667
826.00,51.694
827.00,51.763
828.00,51.812
829.00,51.751
830.00,51.777
831.00,53.879
832.00,53.883
833.00,53.843
834.00,53.865
835.00,53.876
836.00,53.844
837.00,53.820
838.00,53.819
839.00,53.861
840.00,53.753
841.00,53.814
842.00,53.778
843.00,53.765
844.00,53.751
845.00,53.738
846.00,53.772
847.00,53.731
848.00,53.707
849.00,53.671
850.00,53.658
851.00,53.609
852.00,53.610
853.00,53.579
854.00,53.559
855.00,53.578
856.00,53.551
857.00,53.533
858.00,53.517
859.00,53.539
860.00,53.542
861.00,53.553
862.00,53.593
863.00,53.502
864.00,53.447
865.00,53.454
866.00,53.433
867.00,53.448
868.00,53.435
869.00,53.421
870.00,53.415
871.00,53.388
872.00,53.401
873.00,53.399
874.00,53.427
875.00,53.379
876.00,53.402
877.00,53.513
878.00,53.394
879.00,53.355
880.00,53.348
881.00,53.345
882.00,53.353
883.00,53.307
884.00,53.275
885.00,53.283
886.00,53.275
887.00,53.233
888.00,53.229
889.00,53.210
890.00,53.214
891.00,53.194
892.00,53.167
893.00,53.146
894.00,53.167
895.00,53.128
896.00,53.116
897.00,53.074
898.00,53.049
899.00,53.077
900.00,53.034
901.00,53.056
902.00,53.071
903.00,53.039
904.00,53.019
905.00,53.014
906.00,53.040
907.00,52.979
908.00,52.962
909.00,52.941
910.00,52.917
911.00,52.908
912.00,52.901
913.00,52.877
914.00,52.870
915.00,52.840
916.00,52.740
917.00,52.870
918.00,52.751
919.00,52.725
920.00,52.726
921.00,52.707
922.00,52.704
923.00,52.680
924.00,52.643
925.00,52.664
926.00,52.669
927.00,52.647
928.00,52.611
929.00,52.623
930.00,52.572
931.00,52.588
932.00,52.529
933.00,52.567
934.00,52.532
935.00,52.510
936.00,52.479
937.00,52.485
938.00,52.457
939.00,52.481
940.00,52.429
941.00,52.425
942.00,52.399
943.00,52.375
944.00,52.338
945.00,52.363
946.00,52.333
947.00,52.287
948.00,52.290
949.00,52.252
950.00,52.254
951.00,52.239
952.00,52.217
953.00,52.191
954.00,52.164
955.00,52.128
956.00,52.142
957.00,52.085
958.00,52.103
959.00,52.037
960.00,52.038
961.00,52.015
962.00,52.009
963.00,51.972
964.00,51.962
965.00,51.972
966.00,51.950
967.00,51.952
968.00,51.907
969.00,51.953
970.00,51.928
971.00,51.925
972.00,51.912
973.00,51.944
974.00,51.961
975.00,51.940
976.00,51.937
977.00,51.932
978.00,52.038
979.00,51.924
980.00,51.943
981.00,51.952
982.00,51.906
983.00,51.929
984.00,51.927
985.00,51.919
986.00,51.879
987.00,51.898
988.00,51.865
989.00,51.850
990.00,51.855
991.00,51.826
992.00,51.842
993.00,51.837
994.00,51.807
995.00,51.799
996.00,51.781
997.00,51.783
998.00,51.764
999.00,51.778
1000.00,51.723
1001.00,51.717
1002.00,51.704
1003.00,51.720
1004.00,51.656
1005.00,51.643
1006.00,51.681
1007.00,51.632
1008.00,51.633
1009.00,51.612
1010.00,51.620
1011.00,51.604
1012.00,51.554
1013.00,51.568
1014.00,51.537
1015.00,51.543
1016.00,51.509
1017.00,51.516
1018.00,51.497
1019.00,51.476
1020.00,51.470
1021.00,51.460
1022.00,51.451
1023.00,51.411
1024.00,51.422
1025.00,51.404
1026.00,51.378
1027.00,51.351
1028.00,51.352
1029.00,51.323
1030.00,51.302
1031.00,51.313
1032.00,51.264
1033.00,51.271
1034.00,51.222
1035.00,51.206
1036.00,51.188
1037.00,51.163
1038.00,51.182
1039.00,51.154
1040.00,51.144
1041.00,51.097
1042.00,51.094
1043.00,51.066
1044.00,51.097
1045.00,51.050
1046.00,51.042
1047.00,51.080
1048.00,51.072
1049.00,51.096
1050.00,51.090
1051.00,51.133
1052.00,51.138
1053.00,51.142
1054.00,51.165
1055.00,51.181
1056.00,51.169
1057.00,51.181
1058.00,51.163
1059.00,51.143
1060.00,51.164
1061.00,51.135
1062.00,51.120
1063.00,51.129
1064.00,51.127
1065.00,51.105
1066.00,51.107
1067.00,51.087
1068.00,51.120
1069.00,51.081
1070.00,51.067
1071.00,51.059
1072.00,51.073
1073.00,51.036
1074.00,51.038
1075.00,51.018
1076.00,51.020
1077.00,51.019
1078.00,50.985
1079.00,50.992
1080.00,50.997
1081.00,50.970
1082.00,50.981
1083.00,50.970
1084.00,50.963
1085.00,50.968
1086.00,50.941
1087.00,50.961
1088.00,50.943
1089.00,50.923
1090.00,50.914
1091.00,50.918
1092.00,50.890
1093.00,50.876
1094.00,50.859
1095.00,50.855
1096.00,50.840
1097.00,50.841
1098.00,50.825
1099.00,50.819
1100.00,50.809
1101.00,50.795
1102.00,50.790
1103.00,50.791
1104.00,50.783
1105.00,50.774
1106.00,50.749
1107.00,50.746
1108.00,50.739
1109.00,50.730
1110.00,50.727
1111.00,50.707
1112.00,50.702
1113.00,50.699
1114.00,50.681
1115.00,50.713
1116.00,50.675
1117.00,50.654
1118.00,50.649
1119.00,50.641
1120.00,50.643
1121.00,50.633
1122.00,50.612
1123.00,50.611
1124.00,50.612
1125.00,50.603
1126.00,50.590
1127.00,50.600
1128.00,50.574
1129.00,50.567
1130.00,50.545
1131.00,50.554
1132.00,50.550
1133.00,50.529
1134.00,50.525
1135.00,50.529
1136.00,50.513
1137.00,50.521
1138.00,50.519
1139.00,50.529
1140.00,50.514
1141.00,50.507
1142.00,50.493
1143.00,50.510
1144.00,50.460
1145.00,50.468
1146.00,50.471
1147.00,50.472
1148.00,50.469
1149.00,50.483
1150.00,50.467
1151.00,50.466
1152.00,50.461
1153.00,50.475
1154.00,50.458
1155.00,50.449
1156.00,50.437
1157.00,50.455
1158.00,50.441
1159.00,50.434
1160.00,50.436
1161.00,50.454
1162.00,50.438
1163.00,50.431
1164.00,50.445
1165.00,50.440
1166.00,50.436
1167.00,50.425
1168.00,50.444
1169.00,50.418
1170.00,50.422
1171.00,50.417
1172.00,50.413
1173.00,50.416
1174.00,50.410
1175.00,50.419
1176.00,50.433
1177.00,50.385
1178.00,50.406
1179.00,50.430
1180.00,50.386
1181.00,50.421
1182.00,50.399
1183.00,50.381
1184.00,50.379
1185.00,50.393
1186.00,50.390
1187.00,50.390
1188.00,50.374
1189.00,50.381
1190.00,50.371
1191.00,50.371
1192.00,50.407
1193.00,50.366
1194.00,50.362
1195.00,50.347
1196.00,50.365
1197.00,50.366
1198.00,50.358
1199.00,50.350
1200.00,50.367
1201.00,50.384
1202.00,50.342
1203.00,50.342
1204.00,50.340
1205.00,50.352
1206.00,50.347
1207.00,50.354
1208.00,50.345
1209.00,50.354
1210.00,50.343
1211.00,50.351
1212.00,50.371
1213.00,50.317
1214.00,50.362
1215.00,50.339
1216.00,50.332
1217.00,50.336
1218.00,50.307
1219.00,50.331
1220.00,50.313
1221.00,50.311
1222.00,50.301
1223.00,50.329
1224.00,50.322
1225.00,50.320
1226.00,50.334
1227.00,50.322
1228.00,50.352
1229.00,50.333
1230.00,50.375
1231.00,50.370
1232.00,50.373
1233.00,50.387
1234.00,50.394
1235.00,50.375
1236.00,50.377
1237.00,50.408
1238.00,50.383
1239.00,50.397
1240.00,50.377
1241.00,50.393
1242.00,50.386
1243.00,50.382
1244.00,50.390
1245.00,50.414
1246.00,50.399
1247.00,50.389
1248.00,50.388
1249.00,50.391
1250.00,50.405
1251.00,50.401
1252.00,50.434
1253.00,50.415
1254.00,50.415
1255.00,50.404
1256.00,50.395
1257.00,50.370
1258.00,50.421
1259.00,50.405
1260.00,50.416
1261.00,50.430
1262.00,50.406
1263.00,50.417
1264.00,50.410
1265.00,50.417
1266.00,50.429
1267.00,50.458
1268.00,50.443
1269.00,50.456
1270.00,50.470
1271.00,50.465
1272.00,50.467
1273.00,50.492
1274.00,50.487
1275.00,50.488
1276.00,50.465
1277.00,50.480
1278.00,50.487
1279.00,50.477
1280.00,50.483
1281.00,50.500
1282.00,50.508
1283.00,50.487
1284.00,50.511
1285.00,50.503
1286.00,50.515
1287.00,50.500
1288.00,50.518
1289.00,50.511
1290.00,50.528
1291.00,50.532
1292.00,50.539
1293.00,50.536
1294.00,50.554
1295.00,50.563
1296.00,50.562
1297.00,50.562
1298.00,50.596
1299.00,50.575
1300.00,50.596
1301.00,50.571
1302.00,50.602
1303.00,50.595
1304.00,50.573
1305.00,50.613
1306.00,50.607
1307.00,50.609
1308.00,50.615
1309.00,50.615
1310.00,50.633
1311.00,50.629
1312.00,50.625
1313.00,50.662
1314.00,50.666
1315.00,50.670
1316.00,50.662
1317.00,50.692
1318.00,50.666
1319.00,50.676
1320.00,50.663
1321.00,50.848
1322.00,50.843
1323.00,50.819
1324.00,50.831
1325.00,50.811
1326.00,50.832
1327.00,50.816
1328.00,50.815
1329.00,50.825
1330.00,50.826
1331.00,50.818
1332.00,50.833
1333.00,50.831
1334.00,50.835
1335.00,50.878
1336.00,50.879
1337.00,50.905
1338.00,50.970
1339.00,51.002
1340.00,51.057
1341.00,51.137
1342.00,51.177
1343.00,51.232
1344.00,51.287
1345.00,51.331
1346.00,51.383
1347.00,51.393
1348.00,51.440
1349.00,51.461
1350.00,51.465
1351.00,51.478
1352.00,51.503
1353.00,51.499
1354.00,51.488
1355.00,51.434
1356.00,51.488
1357.00,51.495
1358.00,51.517
1359.00,51.520
1360.00,51.533
1361.00,51.483
1362.00,51.482
1363.00,51.576
1364.00,51.499
1365.00,51.491
1366.00,51.496
1367.00,51.496
1368.00,51.499
1369.00,51.391
1370.00,51.499
1371.00,51.495
1372.00,51.490
1373.00,51.488
1374.00,51.530
1375.00,51.472
1376.00,51.496
1377.00,51.507
1378.00,51.484
1379.00,51.501
1380.00,51.483
1381.00,51.500
1382.00,51.475
1383.00,51.490
1384.00,51.458
1385.00,51.487
1386.00,51.507
1387.00,51.493
1388.00,51.448
1389.00,51.472
1390.00,51.511
1391.00,51.485
1392.00,51.454
1393.00,51.494
1394.00,51.454
1395.00,51.502
1396.00,51.402
1397.00,51.518
1398.00,51.284
1399.00,51.503
1400.00,51.457
1401.00,51.472
1402.00,51.574
1403.00,51.494
1404.00,51.497
1405.00,51.533
1406.00,51.558
1407.00,51.553
1408.00,51.543
1409.00,51.522
1410.00,51.566
1411.00,51.554
1412.00,51.622
1413.00,51.567
1414.00,51.595
1415.00,51.604
1416.00,51.584
1417.00,51.617
1418.00,51.599
1419.00,51.610
1420.00,51.643
1421.00,51.682
1422.00,51.667
1423.00,51.710
1424.00,51.692
1425.00,51.710
1426.00,51.705
1427.00,51.725
1428.00,51.729
1429.00,51.783
1430.00,51.746
1431.00,51.787
1432.00,51.790
1433.00,51.795
1434.00,51.810
1435.00,51.859
1436.00,51.848
1437.00,51.855
1438.00,51.870
1439.00,51.893
1440.00,51.897
1441.00,51.889
1442.00,51.939
1443.00,51.948
1444.00,52.008
1445.00,52.010
1446.00,51.993
1447.00,52.017
1448.00,52.065
1449.00,52.043
1450.00,52.055
1451.00,52.061
1452.00,52.087
1453.00,52.092
1454.00,52.110
1455.00,52.130
1456.00,52.150
1457.00,52.149
1458.00,52.173
1459.00,52.186
1460.00,52.200
1461.00,52.208
1462.00,52.252
1463.00,52.239
1464.00,52.257
1465.00,52.267
1466.00,52.265
1467.00,52.302
1468.00,52.340
1469.00,52.291
1470.00,52.346
1471.00,52.344
1472.00,52.353
1473.00,52.371
1474.00,52.386
1475.00,52.411
1476.00,52.408
1477.00,52.388
1478.00,52.443
1479.00,52.441
1480.00,52.432
1481.00,52.448
1482.00,52.476
1483.00,52.478
1484.00,52.503
1485.00,52.482
1486.00,52.506
1487.00,52.546
1488.00,52.582
1489.00,52.579
1490.00,52.575
1491.00,52.586
1492.00,52.633
1493.00,52.589
1494.00,52.644
1495.00,52.634
1496.00,52.644
1497.00,52.636
1498.00,52.651
1499.00,52.660
1500.00,52.687
1501.00, 
1502.00, 
1503.00, 
1504.00, 
1505.00, 
1506.00, 
1507.00, 
1508.00, 
1509.00, 
1510.00, 
1511.00, 
1512.00, 
1513.00, 
1514.00, 
1515.00, 
1516.00, 
1517.00, 
1518.00, 
1519.00, 
1520.00, 
1521.00, 
1522.00, 
1523.00, 
1524.00, 
1525.00, 
1526.00, 
1527.00, 
1528.00, 
1529.00, 
1530.00, 
1531.00, 
1532.00, 
1533.00, 
1534.00, 
1535.00, 
1536.00, 
1537.00, 
1538.00, 
1539.00, 
1540.00, 
1541.00, 
1542.00, 
1543.00, 
1544.00, 
1545.00, 
1546.00, 
1547.00, 
1548.00, 
1549.00, 
1550.00, 
1551.00, 
1552.00, 
1553.00, 
1554.00, 
1555.00, 
1556.00, 
1557.00, 
1558.00, 
1559.00, 
1560.00, 
1561.00, 
1562.00, 
1563.00, 
1564.00, 
1565.00, 
1566.00, 
1567.00, 
1568.00, 
1569.00, 
1570.00, 
1571.00, 
1572.00, 
1573.00, 
1574.00, 
1575.00, 
1576.00, 
1577.00, 
1578.00, 
1579.00, 
1580.00, 
1581.00, 
1582.00, 
1583.00, 
1584.00, 
1585.00, 
1586.00, 
1587.00, 
1588.00, 
1589.00, 
1590.00, 
1591.00, 
1592.00, 
1593.00, 
1594.00, 
1595.00, 
1596.00, 
1597.00, 
1598.00, 
1599.00, 
1600.00, 
1601.00, 
1602.00, 
1603.00, 
1604.00, 
1605.00, 
1606.00, 
1607.00, 
1608.00, 
1609.00, 
1610.00, 
1611.00, 
1612.00, 
1613.00, 
1614.00, 
1615.00, 
1616.00, 
1617.00, 
1618.00, 
1619.00, 
1620.00, 
1621.00, 
1622.00, 
1623.00, 
1624.00, 
1625.00, 
1626.00, 
1627.00, 
1628.00, 
1629.00, 
1630.00, 
1631.00, 
1632.00, 
1633.00, 
1634.00, 
1635.00, 
1636.00, 
1637.00, 
1638.00, 
1639.00, 
1640.00, 
1641.00, 
1642.00, 
1643.00, 
1644.00, 
1645.00, 
1646.00, 
1647.00, 
1648.00, 
1649.00, 
1650.00, 
1651.00, 
1652.00, 
1653.00, 
1654.00, 
1655.00, 
1656.00, 
1657.00, 
1658.00, 
1659.00, 
1660.00, 
1661.00, 
1662.00, 
1663.00, 
1664.00, 
1665.00, 
1666.00, 
1667.00, 
1668.00, 
1669.00, 
1670.00, 
1671.00, 
1672.00, 
1673.00, 
1674.00, 
1675.00, 
1676.00, 
1677.00, 
1678.00, 
1679.00, 
1680.00, 
1681.00, 
1682.00, 
1683.00, 
1684.00, 
1685.00, 
1686.00, 
1687.00, 
1688.00, 
1689.00, 
1690.00, 
1691.00, 
1692.00, 
1693.00, 
1694.00, 
1695.00, 
1696.00, 
1697.00, 
1698.00, 
1699.00, 
1700.00, 
1701.00, 
1702.00, 
1703.00, 
1704.00, 
1705.00, 
1706.00, 
1707.00, 
1708.00, 
1709.00, 
1710.00, 
1711.00, 
1712.00, 
1713.00, 
1714.00, 
1715.00, 
1716.00, 
1717.00, 
1718.00, 
1719.00, 
1720.00, 
1721.00, 
1722.00, 
1723.00, 
1724.00, 
1725.00, 
1726.00, 
1727.00, 
1728.00, 
1729.00, 
1730.00, 
1731.00, 
1732.00, 
1733.00, 
1734.00, 
1735.00, 
1736.00, 
1737.00, 
1738.00, 
1739.00, 
1740.00, 
1741.00, 
1742.00, 
1743.00, 
1744.00, 
1745.00, 
1746.00, 
1747.00, 
1748.00, 
1749.00, 
1750.00, 
1751.00, 
1752.00, 
1753.00, 
1754.00, 
1755.00, 
1756.00, 
1757.00, 
1758.00, 
1759.00, 
1760.00, 
1761.00, 
1762.00, 
1763.00, 
1764.00, 
1765.00, 
1766.00, 
1767.00, 
1768.00, 
1769.00, 
1770.00, 
1771.00, 
1772.00, 
1773.00, 
1774.00, 
1775.00, 
1776.00, 
1777.00, 
1778.00, 
1779.00, 
1780.00, 
1781.00, 
1782.00, 
1783.00, 
1784.00, 
1785.00, 
1786.00, 
1787.00, 
1788.00, 
1789.00, 
1790.00, 
1791.00, 
1792.00, 
1793.00, 
1794.00, 
1795.00, 
1796.00, 
1797.00, 
1798.00, 
1799.00, 
1800.00, 
1801.00, 
1802.00, 
1803.00, 
1804.00, 
1805.00, 
1806.00, 
1807.00, 
1808.00, 
1809.00, 
1810.00, 
1811.00, 
1812.00, 
1813.00, 
1814.00, 
1815.00, 
1816.00, 
1817.00, 
1818.00, 
1819.00, 
1820.00, 
1821.00, 
1822.00, 
1823.00, 
1824.00, 
1825.00, 
1826.00, 
1827.00, 
1828.00, 
1829.00, 
1830.00, 
1831.00, 
1832.00, 
1833.00, 
1834.00, 
1835.00, 
1836.00, 
1837.00, 
1838.00, 
1839.00, 
1840.00, 
1841.00, 
1842.00, 
1843.00, 
1844.00, 
1845.00, 
1846.00, 
1847.00, 
1848.00, 
1849.00, 
1850.00, 
1851.00, 
1852.00, 
1853.00, 
1854.00, 
1855.00, 
1856.00, 
1857.00, 
1858.00, 
1859.00, 
1860.00, 
1861.00, 
1862.00, 
1863.00, 
1864.00, 
1865.00, 
1866.00, 
1867.00, 
1868.00, 
1869.00, 
1870.00, 
1871.00, 
1872.00, 
1873.00, 
1874.00, 
1875.00, 
1876.00, 
1877.00, 
1878.00, 
1879.00, 
1880.00, 
1881.00, 
1882.00, 
1883.00, 
1884.00, 
1885.00, 
1886.00, 
1887.00, 
1888.00, 
1889.00, 
1890.00, 
1891.00, 
1892.00, 
1893.00, 
1894.00, 
1895.00, 
1896.00, 
1897.00, 
1898.00, 
1899.00, 
1900.00, 
1901.00, 
1902.00, 
1903.00, 
1904.00, 
1905.00, 
1906.00, 
1907.00, 
1908.00, 
1909.00, 
1910.00, 
1911.00, 
1912.00, 
1913.00, 
1914.00, 
1915.00, 
1916.00, 
1917.00, 
1918.00, 
1919.00, 
1920.00, 
1921.00, 
1922.00, 
1923.00, 
1924.00, 
1925.00, 
1926.00, 
1927.00, 
1928.00, 
1929.00, 
1930.00, 
1931.00, 
1932.00, 
1933.00, 
1934.00, 
1935.00, 
1936.00, 
1937.00, 
1938.00, 
1939.00, 
1940.00, 
1941.00, 
1942.00, 
1943.00, 
1944.00, 
1945.00, 
1946.00, 
1947.00, 
1948.00, 
1949.00, 
1950.00, 
1951.00, 
1952.00, 
1953.00, 
1954.00, 
1955.00, 
1956.00, 
1957.00, 
1958.00, 
1959.00, 
1960.00, 
1961.00, 
1962.00, 
1963.00, 
1964.00, 
1965.00, 
1966.00, 
1967.00, 
1968.00, 
1969.00, 
1970.00, 
1971.00, 
1972.00, 
1973.00, 
1974.00, 
1975.00, 
1976.00, 
1977.00, 
1978.00, 
1979.00, 
1980.00, 
1981.00, 
1982.00, 
1983.00, 
1984.00, 
1985.00, 
1986.00, 
1987.00, 
1988.00, 
1989.00, 
1990.00, 
1991.00, 
1992.00, 
1993.00, 
1994.00, 
1995.00, 
1996.00, 
1997.00, 
1998.00, 
1999.00, 
2000.00, 
2001.00, 
2002.00, 
2003.00, 
2004.00, 
2005.00, 
2006.00, 
2007.00, 
2008.00, 
2009.00, 
2010.00, 
2011.00, 
2012.00, 
2013.00, 
2014.00, 
2015.00, 
2016.00, 
2017.00, 
2018.00, 
2019.00, 
2020.00, 
2021.00, 
2022.00, 
2023.00, 
2024.00, 
2025.00, 
2026.00, 
2027.00, 
2028.00, 
2029.00, 
2030.00, 
2031.00, 
2032.00, 
2033.00, 
2034.00, 
2035.00, 
2036.00, 
2037.00, 
2038.00, 
2039.00, 
2040.00, 
2041.00, 
2042.00, 
2043.00, 
2044.00, 
2045.00, 
2046.00, 
2047.00, 
2048.00, 
2049.00, 
2050.00, 
2051.00, 
2052.00, 
2053.00, 
2054.00, 
2055.00, 
2056.00, 
2057.00, 
2058.00, 
2059.00, 
2060.00, 
2061.00, 
2062.00, 
2063.00, 
2064.00, 
2065.00, 
2066.00, 
2067.00, 
2068.00, 
2069.00, 
2070.00, 
2071.00, 
2072.00, 
2073.00, 
2074.00, 
2075.00, 
2076.00, 
2077.00, 
2078.00, 
2079.00, 
2080.00, 
2081.00, 
2082.00, 
2083.00, 
2084.00, 
2085.00, 
2086.00, 
2087.00, 
2088.00, 
2089.00, 
2090.00, 
2091.00, 
2092.00, 
2093.00, 
2094.00, 
2095.00, 
2096.00, 
2097.00, 
2098.00, 
2099.00, 
2100.00, 
2101.00, 
2102.00, 
2103.00, 
2104.00, 
2105.00, 
2106.00, 
2107.00, 
2108.00, 
2109.00, 
2110.00, 
2111.00, 
2112.00, 
2113.00, 
2114.00, 
2115.00, 
2116.00, 
2117.00, 
2118.00, 
2119.00, 
2120.00, 
2121.00, 
2122.00, 
2123.00, 
2124.00, 
2125.00, 
2126.00, 
2127.00, 
2128.00, 
2129.00, 
2130.00, 
2131.00, 
2132.00, 
2133.00, 
2134.00, 
2135.00, 
2136.00, 
2137.00, 
2138.00, 
2139.00, 
2140.00, 
2141.00, 
2142.00, 
2143.00, 
2144.00, 
2145.00, 
2146.00, 
2147.00, 
2148.00, 
2149.00, 
2150.00, 
2151.00, 
2152.00, 
2153.00, 
2154.00, 
2155.00, 
2156.00, 
2157.00, 
2158.00, 
2159.00, 
2160.00, 
2161.00, 
2162.00, 
2163.00, 
2164.00, 
2165.00, 
2166.00, 
2167.00, 
2168.00, 
2169.00, 
2170.00, 
2171.00, 
2172.00, 
2173.00, 
2174.00, 
2175.00, 
2176.00, 
2177.00, 
2178.00, 
2179.00, 
2180.00, 
2181.00, 
2182.00, 
2183.00, 
2184.00, 
2185.00, 
2186.00, 
2187.00, 
2188.00, 
2189.00, 
2190.00, 
2191.00, 
2192.00, 
2193.00, 
2194.00, 
2195.00, 
2196.00, 
2197.00, 
2198.00, 
2199.00, 
2200.00, 
2201.00, 
2202.00, 
2203.00, 
2204.00, 
2205.00, 
2206.00, 
2207.00, 
2208.00, 
2209.00, 
2210.00, 
2211.00, 
2212.00, 
2213.00, 
2214.00, 
2215.00, 
2216.00, 
2217.00, 
2218.00, 
2219.00, 
2220.00, 
2221.00, 
2222.00, 
2223.00, 
2224.00, 
2225.00, 
2226.00, 
2227.00, 
2228.00, 
2229.00, 
2230.00, 
2231.00, 
2232.00, 
2233.00, 
2234.00, 
2235.00, 
2236.00, 
2237.00, 
2238.00, 
2239.00, 
2240.00, 
2241.00, 
2242.00, 
2243.00, 
2244.00, 
2245.00, 
2246.00, 
2247.00, 
2248.00, 
2249.00, 
2250.00, 
2251.00, 
2252.00, 
2253.00, 
2254.00, 
2255.00, 
2256.00, 
2257.00, 
2258.00, 
2259.00, 
2260.00, 
2261.00, 
2262.00, 
2263.00, 
2264.00, 
2265.00, 
2266.00, 
2267.00, 
2268.00, 
2269.00, 
2270.00, 
2271.00, 
2272.00, 
2273.00, 
2274.00, 
2275.00, 
2276.00, 
2277.00, 
2278.00, 
2279.00, 
2280.00, 
2281.00, 
2282.00, 
2283.00, 
2284.00, 
2285.00, 
2286.00, 
2287.00, 
2288.00, 
2289.00, 
2290.00, 
2291.00, 
2292.00, 
2293.00, 
2294.00, 
2295.00, 
2296.00, 
2297.00, 
2298.00, 
2299.00, 
2300.00, 
2301.00, 
2302.00, 
2303.00, 
2304.00, 
2305.00, 
2306.00, 
2307.00, 
2308.00, 
2309.00, 
2310.00, 
2311.00, 
2312.00, 
2313.00, 
2314.00, 
2315.00, 
2316.00, 
2317.00, 
2318.00, 
2319.00, 
2320.00, 
2321.00, 
2322.00, 
2323.00, 
2324.00, 
2325.00, 
2326.00, 
2327.00, 
2328.00, 
2329.00, 
2330.00, 
2331.00, 
2332.00, 
2333.00, 
2334.00, 
2335.00, 
2336.00, 
2337.00, 
2338.00, 
2339.00, 
2340.00, 
2341.00, 
2342.00, 
2343.00, 
2344.00, 
2345.00, 
2346.00, 
2347.00, 
2348.00, 
2349.00, 
2350.00, 
2351.00, 
2352.00, 
2353.00, 
2354.00, 
2355.00, 
2356.00, 
2357.00, 
2358.00, 
2359.00, 
2360.00, 
2361.00, 
2362.00, 
2363.00, 
2364.00, 
2365.00, 
2366.00, 
2367.00, 
2368.00, 
2369.00, 
2370.00, 
2371.00, 
2372.00, 
2373.00, 
2374.00, 
2375.00, 
2376.00, 
2377.00, 
2378.00, 
2379.00, 
2380.00, 
2381.00, 
2382.00, 
2383.00, 
2384.00, 
2385.00, 
2386.00, 
2387.00, 
2388.00, 
2389.00, 
2390.00, 
2391.00, 
2392.00, 
2393.00, 
2394.00, 
2395.00, 
2396.00, 
2397.00, 
2398.00, 
2399.00, 
2400.00, 
2401.00, 
2402.00, 
2403.00, 
2404.00, 
2405.00, 
2406.00, 
2407.00, 
2408.00, 
2409.00, 
2410.00, 
2411.00, 
2412.00, 
2413.00, 
2414.00, 
2415.00, 
2416.00, 
2417.00, 
2418.00, 
2419.00, 
2420.00, 
2421.00, 
2422.00, 
2423.00, 
2424.00, 
2425.00, 
2426.00, 
2427.00, 
2428.00, 
2429.00, 
2430.00, 
2431.00, 
2432.00, 
2433.00, 
2434.00, 
2435.00, 
2436.00, 
2437.00, 
2438.00, 
2439.00, 
2440.00, 
2441.00, 
2442.00, 
2443.00, 
2444.00, 
2445.00, 
2446.00, 
2447.00, 
2448.00, 
2449.00, 
2450.00, 
2451.00, 
2452.00, 
2453.00, 
2454.00, 
2455.00, 
2456.00, 
2457.00, 
2458.00, 
2459.00, 
2460.00, 
2461.00, 
2462.00, 
2463.00, 
2464.00, 
2465.00, 
2466.00, 
2467.00, 
2468.00, 
2469.00, 
2470.00, 
2471.00, 
2472.00, 
2473.00, 
2474.00, 
2475.00, 
2476.00, 
2477.00, 
2478.00, 
2479.00, 
2480.00, 
2481.00, 
2482.00, 
2483.00, 
2484.00, 
2485.00, 
2486.00, 
2487.00, 
2488.00, 
2489.00, 
2490.00, 
2491.00, 
2492.00, 
2493.00, 
2494.00, 
2495.00, 
2496.00, 
2497.00, 
2498.00, 
2499.00, 
2500.00, 
2501.00, 
2502.00, 
2503.00, 
2504.00, 
2505.00, 
2506.00, 
2507.00, 
2508.00, 
2509.00, 
2510.00, 
2511.00, 
2512.00, 
2513.00, 
2514.00, 
2515.00, 
2516.00, 
2517.00, 
2518.00, 
2519.00, 
2520.00, 
2521.00, 
2522.00, 
2523.00, 
2524.00, 
2525.00, 
2526.00, 
2527.00, 
2528.00, 
2529.00, 
2530.00, 
2531.00, 
2532.00, 
2533.00, 
2534.00, 
2535.00, 
2536.00, 
2537.00, 
2538.00, 
2539.00, 
2540.00, 
2541.00, 
2542.00, 
2543.00, 
2544.00, 
2545.00, 
2546.00, 
2547.00, 
2548.00, 
2549.00, 
2550.00, 
2551.00, 
2552.00, 
2553.00, 
2554.00, 
2555.00, 
2556.00, 
2557.00, 
2558.00, 
2559.00, 
2560.00, 
2561.00, 
2562.00, 
2563.00, 
2564.00, 
2565.00, 
2566.00, 
2567.00, 
2568.00, 
2569.00, 
2570.00, 
2571.00, 
2572.00, 
2573.00, 
2574.00, 
2575.00, 
2576.00, 
2577.00, 
2578.00, 
2579.00, 
2580.00, 
2581.00, 
2582.00, 
2583.00, 
2584.00, 
2585.00, 
2586.00, 
2587.00, 
2588.00, 
2589.00, 
2590.00, 
2591.00, 
2592.00, 
2593.00, 
2594.00, 
2595.00, 
2596.00, 
2597.00, 
2598.00, 
2599.00, 
2600.00, 
