"2bP2 - RawData"
"Wavelength nm.","T%"
200.00,0.004
201.00,0.000
202.00,0.001
203.00,0.004
204.00,0.001
205.00,-0.001
206.00,0.005
207.00,-0.001
208.00,0.001
209.00,-0.001
210.00,0.001
211.00,0.002
212.00,0.001
213.00,0.001
214.00,-0.001
215.00,0.003
216.00,-0.001
217.00,-0.002
218.00,0.001
219.00,0.003
220.00,-0.001
221.00,0.002
222.00,0.001
223.00,0.001
224.00,-0.001
225.00,0.001
226.00,0.001
227.00,0.002
228.00,0.002
229.00,-0.000
230.00,0.001
231.00,0.001
232.00,0.000
233.00,-0.001
234.00,0.001
235.00,-0.001
236.00,-0.001
237.00,0.001
238.00,0.001
239.00,0.001
240.00,0.001
241.00,0.001
242.00,0.001
243.00,0.001
244.00,0.002
245.00,0.002
246.00,0.001
247.00,-0.002
248.00,-0.001
249.00,0.001
250.00,0.002
251.00,-0.001
252.00,0.001
253.00,0.000
254.00,-0.001
255.00,-0.001
256.00,0.001
257.00,0.000
258.00,0.001
259.00,-0.000
260.00,0.001
261.00,-0.000
262.00,-0.001
263.00,0.002
264.00,0.001
265.00,-0.000
266.00,0.002
267.00,-0.002
268.00,0.002
269.00,-0.001
270.00,-0.001
271.00,-0.000
272.00,-0.000
273.00,0.001
274.00,0.000
275.00,-0.000
276.00,-0.000
277.00,0.001
278.00,-0.001
279.00,0.000
280.00,-0.000
281.00,-0.001
282.00,-0.001
283.00,0.001
284.00,-0.001
285.00,0.001
286.00,0.001
287.00,-0.000
288.00,-0.001
289.00,-0.000
290.00,0.001
291.00,-0.001
292.00,-0.000
293.00,0.000
294.00,0.001
295.00,0.001
296.00,0.001
297.00,0.001
298.00,0.001
299.00,0.003
300.00,0.002
301.00,0.004
302.00,0.004
303.00,0.007
304.00,0.011
305.00,0.018
306.00,0.029
307.00,0.044
308.00,0.066
309.00,0.102
310.00,0.141
311.00,0.189
312.00,0.254
313.00,0.341
314.00,0.447
315.00,0.575
316.00,0.729
317.00,0.923
318.00,1.129
319.00,1.367
320.00,1.641
321.00,1.972
322.00,2.332
323.00,2.710
324.00,3.143
325.00,3.552
326.00,3.999
327.00,4.491
328.00,4.988
329.00,5.492
330.00,6.031
331.00,6.568
332.00,7.119
333.00,7.702
334.00,8.235
335.00,8.784
336.00,9.290
337.00,9.879
338.00,10.422
339.00,10.894
340.00,11.403
341.00,11.938
342.00,12.392
343.00,12.836
344.00,13.306
345.00,13.662
346.00,14.028
347.00,14.379
348.00,14.725
349.00,15.052
350.00,15.325
351.00,15.608
352.00,15.856
353.00,16.128
354.00,16.351
355.00,16.559
356.00,16.677
357.00,16.875
358.00,17.055
359.00,17.258
360.00,17.382
361.00,17.403
362.00,17.597
363.00,17.704
364.00,17.762
365.00,17.826
366.00,17.897
367.00,17.942
368.00,17.985
369.00,17.980
370.00,18.053
371.00,18.095
372.00,18.001
373.00,18.027
374.00,18.016
375.00,17.953
376.00,17.899
377.00,17.887
378.00,17.790
379.00,17.726
380.00,17.734
381.00,17.659
382.00,17.668
383.00,17.641
384.00,17.642
385.00,17.658
386.00,17.627
387.00,17.672
388.00,17.710
389.00,17.686
390.00,17.684
391.00,17.695
392.00,17.666
393.00,17.679
394.00,17.682
395.00,17.665
396.00,17.653
397.00,17.640
398.00,17.641
399.00,17.653
400.00,17.631
401.00,17.576
402.00,17.591
403.00,17.563
404.00,17.572
405.00,17.573
406.00,17.538
407.00,17.513
408.00,17.515
409.00,17.435
410.00,17.410
411.00,17.414
412.00,17.382
413.00,17.378
414.00,17.395
415.00,17.391
416.00,17.432
417.00,17.413
418.00,17.452
419.00,17.502
420.00,17.542
421.00,17.574
422.00,17.573
423.00,17.615
424.00,17.636
425.00,17.659
426.00,17.691
427.00,17.746
428.00,17.804
429.00,17.815
430.00,17.858
431.00,17.919
432.00,18.008
433.00,18.004
434.00,18.072
435.00,18.155
436.00,18.183
437.00,18.268
438.00,18.306
439.00,18.378
440.00,18.440
441.00,18.539
442.00,18.625
443.00,18.717
444.00,18.775
445.00,18.857
446.00,18.944
447.00,19.063
448.00,19.153
449.00,19.265
450.00,19.352
451.00,19.443
452.00,19.546
453.00,19.657
454.00,19.753
455.00,19.869
456.00,19.998
457.00,20.097
458.00,20.208
459.00,20.341
460.00,20.486
461.00,20.603
462.00,20.715
463.00,20.853
464.00,20.972
465.00,21.109
466.00,21.237
467.00,21.395
468.00,21.507
469.00,21.615
470.00,21.728
471.00,21.823
472.00,21.966
473.00,22.047
474.00,22.177
475.00,22.322
476.00,22.413
477.00,22.543
478.00,22.684
479.00,22.876
480.00,22.993
481.00,23.127
482.00,23.281
483.00,23.416
484.00,23.612
485.00,23.750
486.00,23.913
487.00,24.036
488.00,24.214
489.00,24.385
490.00,24.525
491.00,24.670
492.00,24.838
493.00,25.035
494.00,25.199
495.00,25.234
496.00,25.363
497.00,25.473
498.00,25.658
499.00,25.796
500.00,25.914
501.00,26.049
502.00,26.227
503.00,26.333
504.00,26.429
505.00,26.558
506.00,26.679
507.00,26.811
508.00,26.945
509.00,27.127
510.00,27.253
511.00,27.333
512.00,27.503
513.00,27.670
514.00,27.820
515.00,27.920
516.00,28.040
517.00,28.117
518.00,28.283
519.00,28.362
520.00,28.416
521.00,28.556
522.00,28.648
523.00,28.724
524.00,28.815
525.00,28.939
526.00,29.104
527.00,29.186
528.00,29.234
529.00,29.435
530.00,29.587
531.00,29.672
532.00,29.770
533.00,29.845
534.00,29.954
535.00,30.049
536.00,30.133
537.00,30.237
538.00,30.325
539.00,30.372
540.00,30.439
541.00,30.534
542.00,30.596
543.00,30.638
544.00,30.744
545.00,30.826
546.00,30.864
547.00,30.973
548.00,31.096
549.00,31.131
550.00,31.165
551.00,31.355
552.00,31.419
553.00,31.381
554.00,31.485
555.00,31.572
556.00,31.631
557.00,31.756
558.00,31.810
559.00,31.855
560.00,31.925
561.00,31.975
562.00,32.087
563.00,32.103
564.00,32.198
565.00,32.202
566.00,32.209
567.00,32.291
568.00,32.296
569.00,32.372
570.00,32.422
571.00,32.502
572.00,32.560
573.00,32.481
574.00,32.527
575.00,32.521
576.00,32.636
577.00,32.651
578.00,32.784
579.00,32.864
580.00,32.892
581.00,33.093
582.00,33.142
583.00,33.163
584.00,33.260
585.00,33.313
586.00,33.378
587.00,33.420
588.00,33.433
589.00,33.451
590.00,33.558
591.00,33.566
592.00,33.575
593.00,33.601
594.00,33.674
595.00,33.790
596.00,33.774
597.00,33.896
598.00,33.981
599.00,33.982
600.00,34.097
601.00,34.127
602.00,34.118
603.00,34.216
604.00,34.272
605.00,34.285
606.00,34.335
607.00,34.378
608.00,34.545
609.00,34.669
610.00,34.519
611.00,34.602
612.00,34.628
613.00,34.698
614.00,34.730
615.00,34.801
616.00,34.926
617.00,34.944
618.00,34.982
619.00,35.080
620.00,35.106
621.00,35.210
622.00,35.287
623.00,35.282
624.00,35.435
625.00,35.520
626.00,35.595
627.00,35.666
628.00,35.644
629.00,35.746
630.00,35.801
631.00,35.867
632.00,35.985
633.00,36.085
634.00,36.177
635.00,36.355
636.00,36.400
637.00,36.460
638.00,36.519
639.00,36.625
640.00,36.676
641.00,36.771
642.00,36.842
643.00,36.907
644.00,37.009
645.00,37.098
646.00,37.377
647.00,37.383
648.00,37.371
649.00,37.461
650.00,37.520
651.00,37.748
652.00,37.823
653.00,37.836
654.00,37.969
655.00,38.169
656.00,38.467
657.00,38.386
658.00,38.526
659.00,38.638
660.00,38.704
661.00,38.699
662.00,38.863
663.00,38.981
664.00,39.177
665.00,39.386
666.00,39.416
667.00,39.576
668.00,39.479
669.00,39.760
670.00,39.959
671.00,39.823
672.00,40.011
673.00,40.135
674.00,40.210
675.00,40.360
676.00,40.562
677.00,40.731
678.00,40.569
679.00,40.789
680.00,40.955
681.00,41.119
682.00,41.213
683.00,41.226
684.00,41.355
685.00,41.536
686.00,41.431
687.00,41.650
688.00,41.780
689.00,41.734
690.00,42.073
691.00,42.399
692.00,42.165
693.00,42.216
694.00,42.369
695.00,42.605
696.00,42.807
697.00,42.708
698.00,42.936
699.00,43.124
700.00,43.117
701.00,43.310
702.00,43.429
703.00,43.610
704.00,43.616
705.00,43.641
706.00,43.828
707.00,43.858
708.00,43.829
709.00,44.268
710.00,44.617
711.00,44.128
712.00,44.298
713.00,44.520
714.00,44.458
715.00,44.597
716.00,44.507
717.00,45.036
718.00,45.374
719.00,45.092
720.00,45.314
721.00,49.560
722.00,49.587
723.00,49.529
724.00,49.579
725.00,49.630
726.00,49.731
727.00,49.731
728.00,49.835
729.00,49.952
730.00,49.950
731.00,50.021
732.00,50.090
733.00,50.124
734.00,50.195
735.00,50.274
736.00,50.361
737.00,50.289
738.00,50.451
739.00,50.425
740.00,50.580
741.00,50.635
742.00,50.582
743.00,50.722
744.00,50.687
745.00,50.777
746.00,50.752
747.00,50.765
748.00,50.830
749.00,50.836
750.00,50.885
751.00,50.958
752.00,51.051
753.00,50.962
754.00,51.038
755.00,50.964
756.00,51.028
757.00,51.091
758.00,51.152
759.00,51.155
760.00,51.158
761.00,51.186
762.00,51.188
763.00,51.322
764.00,51.366
765.00,51.314
766.00,51.369
767.00,51.422
768.00,51.494
769.00,51.484
770.00,51.505
771.00,51.508
772.00,51.566
773.00,51.533
774.00,51.606
775.00,51.714
776.00,51.656
777.00,51.635
778.00,51.758
779.00,51.746
780.00,51.721
781.00,51.777
782.00,51.778
783.00,51.723
784.00,51.790
785.00,51.760
786.00,51.854
787.00,51.811
788.00,51.828
789.00,51.809
790.00,51.736
791.00,51.875
792.00,51.833
793.00,51.796
794.00,51.821
795.00,51.796
796.00,51.870
797.00,51.768
798.00,51.896
799.00,51.845
800.00,51.751
801.00,51.912
802.00,51.844
803.00,51.855
804.00,51.840
805.00,51.811
806.00,51.817
807.00,51.824
808.00,51.876
809.00,51.812
810.00,51.768
811.00,51.846
812.00,51.890
813.00,51.780
814.00,51.708
815.00,51.811
816.00,51.782
817.00,51.755
818.00,51.675
819.00,51.759
820.00,51.775
821.00,51.747
822.00,51.806
823.00,51.622
824.00,51.773
825.00,51.665
826.00,51.720
827.00,51.787
828.00,51.753
829.00,51.758
830.00,51.731
831.00,54.149
832.00,54.125
833.00,54.076
834.00,54.080
835.00,54.105
836.00,54.086
837.00,54.095
838.00,54.068
839.00,54.103
840.00,54.006
841.00,54.047
842.00,54.006
843.00,54.004
844.00,54.016
845.00,53.967
846.00,53.972
847.00,53.961
848.00,53.930
849.00,53.904
850.00,53.874
851.00,53.831
852.00,53.828
853.00,53.790
854.00,53.786
855.00,53.792
856.00,53.760
857.00,53.722
858.00,53.729
859.00,53.709
860.00,53.687
861.00,53.725
862.00,53.645
863.00,53.670
864.00,53.625
865.00,53.644
866.00,53.611
867.00,53.648
868.00,53.601
869.00,53.578
870.00,53.578
871.00,53.572
872.00,53.591
873.00,53.576
874.00,53.576
875.00,53.468
876.00,53.668
877.00,53.535
878.00,53.575
879.00,53.521
880.00,53.500
881.00,53.539
882.00,53.518
883.00,53.446
884.00,53.424
885.00,53.415
886.00,53.426
887.00,53.393
888.00,53.359
889.00,53.372
890.00,53.367
891.00,53.365
892.00,53.334
893.00,53.312
894.00,53.329
895.00,53.286
896.00,53.268
897.00,53.240
898.00,53.232
899.00,53.222
900.00,53.211
901.00,53.208
902.00,53.203
903.00,53.168
904.00,53.166
905.00,53.163
906.00,53.182
907.00,53.118
908.00,53.108
909.00,53.100
910.00,53.056
911.00,53.085
912.00,53.060
913.00,53.027
914.00,53.021
915.00,52.987
916.00,52.942
917.00,52.938
918.00,52.930
919.00,52.896
920.00,52.824
921.00,52.928
922.00,52.877
923.00,52.861
924.00,52.843
925.00,52.835
926.00,52.836
927.00,52.812
928.00,52.757
929.00,52.776
930.00,52.714
931.00,52.708
932.00,52.665
933.00,52.697
934.00,52.656
935.00,52.617
936.00,52.682
937.00,52.605
938.00,52.612
939.00,52.622
940.00,52.570
941.00,52.566
942.00,52.558
943.00,52.532
944.00,52.488
945.00,52.499
946.00,52.481
947.00,52.417
948.00,52.410
949.00,52.429
950.00,52.379
951.00,52.373
952.00,52.354
953.00,52.310
954.00,52.299
955.00,52.256
956.00,52.266
957.00,52.220
958.00,52.229
959.00,52.171
960.00,52.153
961.00,52.149
962.00,52.139
963.00,52.107
964.00,52.102
965.00,52.112
966.00,52.091
967.00,52.105
968.00,52.085
969.00,52.123
970.00,52.146
971.00,52.088
972.00,52.061
973.00,52.101
974.00,52.115
975.00,52.084
976.00,52.099
977.00,52.094
978.00,52.129
979.00,52.080
980.00,52.091
981.00,52.106
982.00,52.086
983.00,52.079
984.00,52.058
985.00,52.105
986.00,52.034
987.00,52.061
988.00,52.019
989.00,52.007
990.00,51.996
991.00,51.966
992.00,51.994
993.00,51.951
994.00,51.953
995.00,51.954
996.00,51.941
997.00,51.943
998.00,51.917
999.00,51.925
1000.00,51.889
1001.00,51.876
1002.00,51.864
1003.00,51.870
1004.00,51.835
1005.00,51.810
1006.00,51.854
1007.00,51.813
1008.00,51.783
1009.00,51.755
1010.00,51.800
1011.00,51.761
1012.00,51.724
1013.00,51.734
1014.00,51.702
1015.00,51.717
1016.00,51.669
1017.00,51.660
1018.00,51.656
1019.00,51.613
1020.00,51.620
1021.00,51.602
1022.00,51.606
1023.00,51.563
1024.00,51.569
1025.00,51.559
1026.00,51.534
1027.00,51.506
1028.00,51.522
1029.00,51.481
1030.00,51.451
1031.00,51.509
1032.00,51.438
1033.00,51.447
1034.00,51.403
1035.00,51.373
1036.00,51.357
1037.00,51.327
1038.00,51.333
1039.00,51.314
1040.00,51.292
1041.00,51.249
1042.00,51.250
1043.00,51.228
1044.00,51.251
1045.00,51.221
1046.00,51.217
1047.00,51.243
1048.00,51.232
1049.00,51.245
1050.00,51.245
1051.00,51.285
1052.00,51.279
1053.00,51.306
1054.00,51.295
1055.00,51.325
1056.00,51.323
1057.00,51.328
1058.00,51.304
1059.00,51.283
1060.00,51.296
1061.00,51.277
1062.00,51.261
1063.00,51.280
1064.00,51.287
1065.00,51.264
1066.00,51.259
1067.00,51.247
1068.00,51.278
1069.00,51.240
1070.00,51.225
1071.00,51.219
1072.00,51.254
1073.00,51.222
1074.00,51.214
1075.00,51.211
1076.00,51.210
1077.00,51.200
1078.00,51.170
1079.00,51.171
1080.00,51.177
1081.00,51.150
1082.00,51.150
1083.00,51.148
1084.00,51.121
1085.00,51.120
1086.00,51.107
1087.00,51.110
1088.00,51.094
1089.00,51.077
1090.00,51.067
1091.00,51.094
1092.00,51.096
1093.00,51.052
1094.00,51.040
1095.00,51.043
1096.00,51.024
1097.00,51.026
1098.00,51.017
1099.00,51.015
1100.00,50.995
1101.00,50.994
1102.00,50.986
1103.00,50.980
1104.00,50.964
1105.00,50.968
1106.00,50.936
1107.00,50.933
1108.00,50.921
1109.00,50.919
1110.00,50.906
1111.00,50.887
1112.00,50.870
1113.00,50.868
1114.00,50.848
1115.00,50.857
1116.00,50.847
1117.00,50.833
1118.00,50.824
1119.00,50.828
1120.00,50.811
1121.00,50.802
1122.00,50.791
1123.00,50.790
1124.00,50.785
1125.00,50.783
1126.00,50.761
1127.00,50.781
1128.00,50.755
1129.00,50.746
1130.00,50.745
1131.00,50.738
1132.00,50.724
1133.00,50.708
1134.00,50.702
1135.00,50.702
1136.00,50.681
1137.00,50.699
1138.00,50.712
1139.00,50.698
1140.00,50.699
1141.00,50.697
1142.00,50.685
1143.00,50.697
1144.00,50.648
1145.00,50.657
1146.00,50.649
1147.00,50.648
1148.00,50.646
1149.00,50.661
1150.00,50.649
1151.00,50.641
1152.00,50.658
1153.00,50.672
1154.00,50.624
1155.00,50.633
1156.00,50.622
1157.00,50.640
1158.00,50.617
1159.00,50.614
1160.00,50.612
1161.00,50.606
1162.00,50.602
1163.00,50.606
1164.00,50.605
1165.00,50.599
1166.00,50.598
1167.00,50.586
1168.00,50.611
1169.00,50.588
1170.00,50.595
1171.00,50.588
1172.00,50.581
1173.00,50.564
1174.00,50.578
1175.00,50.576
1176.00,50.576
1177.00,50.554
1178.00,50.563
1179.00,50.582
1180.00,50.552
1181.00,50.578
1182.00,50.570
1183.00,50.545
1184.00,50.542
1185.00,50.567
1186.00,50.551
1187.00,50.560
1188.00,50.554
1189.00,50.551
1190.00,50.547
1191.00,50.537
1192.00,50.573
1193.00,50.562
1194.00,50.573
1195.00,50.555
1196.00,50.598
1197.00,50.593
1198.00,50.573
1199.00,50.553
1200.00,50.565
1201.00,50.591
1202.00,50.553
1203.00,50.553
1204.00,50.552
1205.00,50.553
1206.00,50.544
1207.00,50.557
1208.00,50.538
1209.00,50.540
1210.00,50.537
1211.00,50.549
1212.00,50.561
1213.00,50.528
1214.00,50.571
1215.00,50.540
1216.00,50.541
1217.00,50.536
1218.00,50.518
1219.00,50.529
1220.00,50.510
1221.00,50.512
1222.00,50.498
1223.00,50.520
1224.00,50.517
1225.00,50.505
1226.00,50.519
1227.00,50.509
1228.00,50.535
1229.00,50.542
1230.00,50.544
1231.00,50.537
1232.00,50.551
1233.00,50.559
1234.00,50.565
1235.00,50.551
1236.00,50.545
1237.00,50.565
1238.00,50.548
1239.00,50.550
1240.00,50.548
1241.00,50.549
1242.00,50.550
1243.00,50.569
1244.00,50.559
1245.00,50.576
1246.00,50.582
1247.00,50.563
1248.00,50.568
1249.00,50.571
1250.00,50.572
1251.00,50.568
1252.00,50.579
1253.00,50.582
1254.00,50.616
1255.00,50.587
1256.00,50.559
1257.00,50.544
1258.00,50.602
1259.00,50.597
1260.00,50.612
1261.00,50.613
1262.00,50.604
1263.00,50.605
1264.00,50.603
1265.00,50.619
1266.00,50.612
1267.00,50.635
1268.00,50.634
1269.00,50.638
1270.00,50.652
1271.00,50.641
1272.00,50.644
1273.00,50.668
1274.00,50.654
1275.00,50.668
1276.00,50.663
1277.00,50.668
1278.00,50.682
1279.00,50.677
1280.00,50.675
1281.00,50.702
1282.00,50.691
1283.00,50.696
1284.00,50.705
1285.00,50.689
1286.00,50.710
1287.00,50.699
1288.00,50.697
1289.00,50.695
1290.00,50.711
1291.00,50.712
1292.00,50.717
1293.00,50.699
1294.00,50.714
1295.00,50.743
1296.00,50.751
1297.00,50.750
1298.00,50.784
1299.00,50.751
1300.00,50.772
1301.00,50.754
1302.00,50.775
1303.00,50.776
1304.00,50.749
1305.00,50.771
1306.00,50.789
1307.00,50.794
1308.00,50.801
1309.00,50.801
1310.00,50.810
1311.00,50.815
1312.00,50.797
1313.00,50.826
1314.00,50.838
1315.00,50.828
1316.00,50.808
1317.00,50.853
1318.00,50.827
1319.00,50.843
1320.00,50.840
1321.00,51.018
1322.00,51.009
1323.00,51.005
1324.00,51.007
1325.00,50.979
1326.00,51.009
1327.00,50.992
1328.00,50.981
1329.00,50.995
1330.00,50.984
1331.00,50.989
1332.00,50.983
1333.00,51.009
1334.00,51.032
1335.00,51.072
1336.00,51.065
1337.00,51.095
1338.00,51.154
1339.00,51.189
1340.00,51.242
1341.00,51.309
1342.00,51.368
1343.00,51.402
1344.00,51.468
1345.00,51.524
1346.00,51.579
1347.00,51.656
1348.00,51.624
1349.00,51.626
1350.00,51.649
1351.00,51.660
1352.00,51.659
1353.00,51.662
1354.00,51.686
1355.00,51.674
1356.00,51.724
1357.00,51.696
1358.00,51.701
1359.00,51.688
1360.00,51.669
1361.00,51.792
1362.00,51.730
1363.00,51.721
1364.00,51.798
1365.00,51.684
1366.00,51.730
1367.00,51.745
1368.00,51.685
1369.00,51.692
1370.00,51.726
1371.00,51.712
1372.00,51.670
1373.00,51.691
1374.00,51.703
1375.00,51.668
1376.00,51.660
1377.00,51.667
1378.00,51.680
1379.00,51.755
1380.00,51.738
1381.00,51.721
1382.00,51.697
1383.00,51.690
1384.00,51.656
1385.00,51.646
1386.00,51.676
1387.00,51.700
1388.00,51.643
1389.00,51.585
1390.00,51.674
1391.00,51.704
1392.00,51.632
1393.00,51.614
1394.00,51.616
1395.00,51.627
1396.00,51.612
1397.00,51.607
1398.00,51.639
1399.00,51.701
1400.00,51.685
1401.00,51.627
1402.00,51.610
1403.00,51.686
1404.00,51.671
1405.00,51.679
1406.00,51.707
1407.00,51.699
1408.00,51.738
1409.00,51.690
1410.00,51.726
1411.00,51.705
1412.00,51.751
1413.00,51.712
1414.00,51.724
1415.00,51.723
1416.00,51.726
1417.00,51.770
1418.00,51.756
1419.00,51.761
1420.00,51.788
1421.00,51.826
1422.00,51.812
1423.00,51.851
1424.00,51.832
1425.00,51.884
1426.00,51.838
1427.00,51.876
1428.00,51.879
1429.00,51.875
1430.00,51.902
1431.00,51.932
1432.00,51.945
1433.00,51.969
1434.00,51.961
1435.00,52.019
1436.00,52.013
1437.00,51.992
1438.00,52.023
1439.00,52.053
1440.00,52.078
1441.00,52.074
1442.00,52.073
1443.00,52.088
1444.00,52.148
1445.00,52.114
1446.00,52.129
1447.00,52.161
1448.00,52.194
1449.00,52.188
1450.00,52.198
1451.00,52.191
1452.00,52.222
1453.00,52.237
1454.00,52.253
1455.00,52.279
1456.00,52.307
1457.00,52.282
1458.00,52.320
1459.00,52.331
1460.00,52.357
1461.00,52.349
1462.00,52.379
1463.00,52.382
1464.00,52.391
1465.00,52.403
1466.00,52.404
1467.00,52.436
1468.00,52.487
1469.00,52.450
1470.00,52.485
1471.00,52.492
1472.00,52.505
1473.00,52.512
1474.00,52.533
1475.00,52.542
1476.00,52.545
1477.00,52.535
1478.00,52.582
1479.00,52.576
1480.00,52.567
1481.00,52.587
1482.00,52.615
1483.00,52.628
1484.00,52.646
1485.00,52.646
1486.00,52.666
1487.00,52.682
1488.00,52.701
1489.00,52.693
1490.00,52.706
1491.00,52.714
1492.00,52.731
1493.00,52.710
1494.00,52.757
1495.00,52.734
1496.00,52.755
1497.00,52.756
1498.00,52.769
1499.00,52.776
1500.00,52.797
1501.00, 
1502.00, 
1503.00, 
1504.00, 
1505.00, 
1506.00, 
1507.00, 
1508.00, 
1509.00, 
1510.00, 
1511.00, 
1512.00, 
1513.00, 
1514.00, 
1515.00, 
1516.00, 
1517.00, 
1518.00, 
1519.00, 
1520.00, 
1521.00, 
1522.00, 
1523.00, 
1524.00, 
1525.00, 
1526.00, 
1527.00, 
1528.00, 
1529.00, 
1530.00, 
1531.00, 
1532.00, 
1533.00, 
1534.00, 
1535.00, 
1536.00, 
1537.00, 
1538.00, 
1539.00, 
1540.00, 
1541.00, 
1542.00, 
1543.00, 
1544.00, 
1545.00, 
1546.00, 
1547.00, 
1548.00, 
1549.00, 
1550.00, 
1551.00, 
1552.00, 
1553.00, 
1554.00, 
1555.00, 
1556.00, 
1557.00, 
1558.00, 
1559.00, 
1560.00, 
1561.00, 
1562.00, 
1563.00, 
1564.00, 
1565.00, 
1566.00, 
1567.00, 
1568.00, 
1569.00, 
1570.00, 
1571.00, 
1572.00, 
1573.00, 
1574.00, 
1575.00, 
1576.00, 
1577.00, 
1578.00, 
1579.00, 
1580.00, 
1581.00, 
1582.00, 
1583.00, 
1584.00, 
1585.00, 
1586.00, 
1587.00, 
1588.00, 
1589.00, 
1590.00, 
1591.00, 
1592.00, 
1593.00, 
1594.00, 
1595.00, 
1596.00, 
1597.00, 
1598.00, 
1599.00, 
1600.00, 
1601.00, 
1602.00, 
1603.00, 
1604.00, 
1605.00, 
1606.00, 
1607.00, 
1608.00, 
1609.00, 
1610.00, 
1611.00, 
1612.00, 
1613.00, 
1614.00, 
1615.00, 
1616.00, 
1617.00, 
1618.00, 
1619.00, 
1620.00, 
1621.00, 
1622.00, 
1623.00, 
1624.00, 
1625.00, 
1626.00, 
1627.00, 
1628.00, 
1629.00, 
1630.00, 
1631.00, 
1632.00, 
1633.00, 
1634.00, 
1635.00, 
1636.00, 
1637.00, 
1638.00, 
1639.00, 
1640.00, 
1641.00, 
1642.00, 
1643.00, 
1644.00, 
1645.00, 
1646.00, 
1647.00, 
1648.00, 
1649.00, 
1650.00, 
1651.00, 
1652.00, 
1653.00, 
1654.00, 
1655.00, 
1656.00, 
1657.00, 
1658.00, 
1659.00, 
1660.00, 
1661.00, 
1662.00, 
1663.00, 
1664.00, 
1665.00, 
1666.00, 
1667.00, 
1668.00, 
1669.00, 
1670.00, 
1671.00, 
1672.00, 
1673.00, 
1674.00, 
1675.00, 
1676.00, 
1677.00, 
1678.00, 
1679.00, 
1680.00, 
1681.00, 
1682.00, 
1683.00, 
1684.00, 
1685.00, 
1686.00, 
1687.00, 
1688.00, 
1689.00, 
1690.00, 
1691.00, 
1692.00, 
1693.00, 
1694.00, 
1695.00, 
1696.00, 
1697.00, 
1698.00, 
1699.00, 
1700.00, 
1701.00, 
1702.00, 
1703.00, 
1704.00, 
1705.00, 
1706.00, 
1707.00, 
1708.00, 
1709.00, 
1710.00, 
1711.00, 
1712.00, 
1713.00, 
1714.00, 
1715.00, 
1716.00, 
1717.00, 
1718.00, 
1719.00, 
1720.00, 
1721.00, 
1722.00, 
1723.00, 
1724.00, 
1725.00, 
1726.00, 
1727.00, 
1728.00, 
1729.00, 
1730.00, 
1731.00, 
1732.00, 
1733.00, 
1734.00, 
1735.00, 
1736.00, 
1737.00, 
1738.00, 
1739.00, 
1740.00, 
1741.00, 
1742.00, 
1743.00, 
1744.00, 
1745.00, 
1746.00, 
1747.00, 
1748.00, 
1749.00, 
1750.00, 
1751.00, 
1752.00, 
1753.00, 
1754.00, 
1755.00, 
1756.00, 
1757.00, 
1758.00, 
1759.00, 
1760.00, 
1761.00, 
1762.00, 
1763.00, 
1764.00, 
1765.00, 
1766.00, 
1767.00, 
1768.00, 
1769.00, 
1770.00, 
1771.00, 
1772.00, 
1773.00, 
1774.00, 
1775.00, 
1776.00, 
1777.00, 
1778.00, 
1779.00, 
1780.00, 
1781.00, 
1782.00, 
1783.00, 
1784.00, 
1785.00, 
1786.00, 
1787.00, 
1788.00, 
1789.00, 
1790.00, 
1791.00, 
1792.00, 
1793.00, 
1794.00, 
1795.00, 
1796.00, 
1797.00, 
1798.00, 
1799.00, 
1800.00, 
1801.00, 
1802.00, 
1803.00, 
1804.00, 
1805.00, 
1806.00, 
1807.00, 
1808.00, 
1809.00, 
1810.00, 
1811.00, 
1812.00, 
1813.00, 
1814.00, 
1815.00, 
1816.00, 
1817.00, 
1818.00, 
1819.00, 
1820.00, 
1821.00, 
1822.00, 
1823.00, 
1824.00, 
1825.00, 
1826.00, 
1827.00, 
1828.00, 
1829.00, 
1830.00, 
1831.00, 
1832.00, 
1833.00, 
1834.00, 
1835.00, 
1836.00, 
1837.00, 
1838.00, 
1839.00, 
1840.00, 
1841.00, 
1842.00, 
1843.00, 
1844.00, 
1845.00, 
1846.00, 
1847.00, 
1848.00, 
1849.00, 
1850.00, 
1851.00, 
1852.00, 
1853.00, 
1854.00, 
1855.00, 
1856.00, 
1857.00, 
1858.00, 
1859.00, 
1860.00, 
1861.00, 
1862.00, 
1863.00, 
1864.00, 
1865.00, 
1866.00, 
1867.00, 
1868.00, 
1869.00, 
1870.00, 
1871.00, 
1872.00, 
1873.00, 
1874.00, 
1875.00, 
1876.00, 
1877.00, 
1878.00, 
1879.00, 
1880.00, 
1881.00, 
1882.00, 
1883.00, 
1884.00, 
1885.00, 
1886.00, 
1887.00, 
1888.00, 
1889.00, 
1890.00, 
1891.00, 
1892.00, 
1893.00, 
1894.00, 
1895.00, 
1896.00, 
1897.00, 
1898.00, 
1899.00, 
1900.00, 
1901.00, 
1902.00, 
1903.00, 
1904.00, 
1905.00, 
1906.00, 
1907.00, 
1908.00, 
1909.00, 
1910.00, 
1911.00, 
1912.00, 
1913.00, 
1914.00, 
1915.00, 
1916.00, 
1917.00, 
1918.00, 
1919.00, 
1920.00, 
1921.00, 
1922.00, 
1923.00, 
1924.00, 
1925.00, 
1926.00, 
1927.00, 
1928.00, 
1929.00, 
1930.00, 
1931.00, 
1932.00, 
1933.00, 
1934.00, 
1935.00, 
1936.00, 
1937.00, 
1938.00, 
1939.00, 
1940.00, 
1941.00, 
1942.00, 
1943.00, 
1944.00, 
1945.00, 
1946.00, 
1947.00, 
1948.00, 
1949.00, 
1950.00, 
1951.00, 
1952.00, 
1953.00, 
1954.00, 
1955.00, 
1956.00, 
1957.00, 
1958.00, 
1959.00, 
1960.00, 
1961.00, 
1962.00, 
1963.00, 
1964.00, 
1965.00, 
1966.00, 
1967.00, 
1968.00, 
1969.00, 
1970.00, 
1971.00, 
1972.00, 
1973.00, 
1974.00, 
1975.00, 
1976.00, 
1977.00, 
1978.00, 
1979.00, 
1980.00, 
1981.00, 
1982.00, 
1983.00, 
1984.00, 
1985.00, 
1986.00, 
1987.00, 
1988.00, 
1989.00, 
1990.00, 
1991.00, 
1992.00, 
1993.00, 
1994.00, 
1995.00, 
1996.00, 
1997.00, 
1998.00, 
1999.00, 
2000.00, 
2001.00, 
2002.00, 
2003.00, 
2004.00, 
2005.00, 
2006.00, 
2007.00, 
2008.00, 
2009.00, 
2010.00, 
2011.00, 
2012.00, 
2013.00, 
2014.00, 
2015.00, 
2016.00, 
2017.00, 
2018.00, 
2019.00, 
2020.00, 
2021.00, 
2022.00, 
2023.00, 
2024.00, 
2025.00, 
2026.00, 
2027.00, 
2028.00, 
2029.00, 
2030.00, 
2031.00, 
2032.00, 
2033.00, 
2034.00, 
2035.00, 
2036.00, 
2037.00, 
2038.00, 
2039.00, 
2040.00, 
2041.00, 
2042.00, 
2043.00, 
2044.00, 
2045.00, 
2046.00, 
2047.00, 
2048.00, 
2049.00, 
2050.00, 
2051.00, 
2052.00, 
2053.00, 
2054.00, 
2055.00, 
2056.00, 
2057.00, 
2058.00, 
2059.00, 
2060.00, 
2061.00, 
2062.00, 
2063.00, 
2064.00, 
2065.00, 
2066.00, 
2067.00, 
2068.00, 
2069.00, 
2070.00, 
2071.00, 
2072.00, 
2073.00, 
2074.00, 
2075.00, 
2076.00, 
2077.00, 
2078.00, 
2079.00, 
2080.00, 
2081.00, 
2082.00, 
2083.00, 
2084.00, 
2085.00, 
2086.00, 
2087.00, 
2088.00, 
2089.00, 
2090.00, 
2091.00, 
2092.00, 
2093.00, 
2094.00, 
2095.00, 
2096.00, 
2097.00, 
2098.00, 
2099.00, 
2100.00, 
2101.00, 
2102.00, 
2103.00, 
2104.00, 
2105.00, 
2106.00, 
2107.00, 
2108.00, 
2109.00, 
2110.00, 
2111.00, 
2112.00, 
2113.00, 
2114.00, 
2115.00, 
2116.00, 
2117.00, 
2118.00, 
2119.00, 
2120.00, 
2121.00, 
2122.00, 
2123.00, 
2124.00, 
2125.00, 
2126.00, 
2127.00, 
2128.00, 
2129.00, 
2130.00, 
2131.00, 
2132.00, 
2133.00, 
2134.00, 
2135.00, 
2136.00, 
2137.00, 
2138.00, 
2139.00, 
2140.00, 
2141.00, 
2142.00, 
2143.00, 
2144.00, 
2145.00, 
2146.00, 
2147.00, 
2148.00, 
2149.00, 
2150.00, 
2151.00, 
2152.00, 
2153.00, 
2154.00, 
2155.00, 
2156.00, 
2157.00, 
2158.00, 
2159.00, 
2160.00, 
2161.00, 
2162.00, 
2163.00, 
2164.00, 
2165.00, 
2166.00, 
2167.00, 
2168.00, 
2169.00, 
2170.00, 
2171.00, 
2172.00, 
2173.00, 
2174.00, 
2175.00, 
2176.00, 
2177.00, 
2178.00, 
2179.00, 
2180.00, 
2181.00, 
2182.00, 
2183.00, 
2184.00, 
2185.00, 
2186.00, 
2187.00, 
2188.00, 
2189.00, 
2190.00, 
2191.00, 
2192.00, 
2193.00, 
2194.00, 
2195.00, 
2196.00, 
2197.00, 
2198.00, 
2199.00, 
2200.00, 
2201.00, 
2202.00, 
2203.00, 
2204.00, 
2205.00, 
2206.00, 
2207.00, 
2208.00, 
2209.00, 
2210.00, 
2211.00, 
2212.00, 
2213.00, 
2214.00, 
2215.00, 
2216.00, 
2217.00, 
2218.00, 
2219.00, 
2220.00, 
2221.00, 
2222.00, 
2223.00, 
2224.00, 
2225.00, 
2226.00, 
2227.00, 
2228.00, 
2229.00, 
2230.00, 
2231.00, 
2232.00, 
2233.00, 
2234.00, 
2235.00, 
2236.00, 
2237.00, 
2238.00, 
2239.00, 
2240.00, 
2241.00, 
2242.00, 
2243.00, 
2244.00, 
2245.00, 
2246.00, 
2247.00, 
2248.00, 
2249.00, 
2250.00, 
2251.00, 
2252.00, 
2253.00, 
2254.00, 
2255.00, 
2256.00, 
2257.00, 
2258.00, 
2259.00, 
2260.00, 
2261.00, 
2262.00, 
2263.00, 
2264.00, 
2265.00, 
2266.00, 
2267.00, 
2268.00, 
2269.00, 
2270.00, 
2271.00, 
2272.00, 
2273.00, 
2274.00, 
2275.00, 
2276.00, 
2277.00, 
2278.00, 
2279.00, 
2280.00, 
2281.00, 
2282.00, 
2283.00, 
2284.00, 
2285.00, 
2286.00, 
2287.00, 
2288.00, 
2289.00, 
2290.00, 
2291.00, 
2292.00, 
2293.00, 
2294.00, 
2295.00, 
2296.00, 
2297.00, 
2298.00, 
2299.00, 
2300.00, 
2301.00, 
2302.00, 
2303.00, 
2304.00, 
2305.00, 
2306.00, 
2307.00, 
2308.00, 
2309.00, 
2310.00, 
2311.00, 
2312.00, 
2313.00, 
2314.00, 
2315.00, 
2316.00, 
2317.00, 
2318.00, 
2319.00, 
2320.00, 
2321.00, 
2322.00, 
2323.00, 
2324.00, 
2325.00, 
2326.00, 
2327.00, 
2328.00, 
2329.00, 
2330.00, 
2331.00, 
2332.00, 
2333.00, 
2334.00, 
2335.00, 
2336.00, 
2337.00, 
2338.00, 
2339.00, 
2340.00, 
2341.00, 
2342.00, 
2343.00, 
2344.00, 
2345.00, 
2346.00, 
2347.00, 
2348.00, 
2349.00, 
2350.00, 
2351.00, 
2352.00, 
2353.00, 
2354.00, 
2355.00, 
2356.00, 
2357.00, 
2358.00, 
2359.00, 
2360.00, 
2361.00, 
2362.00, 
2363.00, 
2364.00, 
2365.00, 
2366.00, 
2367.00, 
2368.00, 
2369.00, 
2370.00, 
2371.00, 
2372.00, 
2373.00, 
2374.00, 
2375.00, 
2376.00, 
2377.00, 
2378.00, 
2379.00, 
2380.00, 
2381.00, 
2382.00, 
2383.00, 
2384.00, 
2385.00, 
2386.00, 
2387.00, 
2388.00, 
2389.00, 
2390.00, 
2391.00, 
2392.00, 
2393.00, 
2394.00, 
2395.00, 
2396.00, 
2397.00, 
2398.00, 
2399.00, 
2400.00, 
2401.00, 
2402.00, 
2403.00, 
2404.00, 
2405.00, 
2406.00, 
2407.00, 
2408.00, 
2409.00, 
2410.00, 
2411.00, 
2412.00, 
2413.00, 
2414.00, 
2415.00, 
2416.00, 
2417.00, 
2418.00, 
2419.00, 
2420.00, 
2421.00, 
2422.00, 
2423.00, 
2424.00, 
2425.00, 
2426.00, 
2427.00, 
2428.00, 
2429.00, 
2430.00, 
2431.00, 
2432.00, 
2433.00, 
2434.00, 
2435.00, 
2436.00, 
2437.00, 
2438.00, 
2439.00, 
2440.00, 
2441.00, 
2442.00, 
2443.00, 
2444.00, 
2445.00, 
2446.00, 
2447.00, 
2448.00, 
2449.00, 
2450.00, 
2451.00, 
2452.00, 
2453.00, 
2454.00, 
2455.00, 
2456.00, 
2457.00, 
2458.00, 
2459.00, 
2460.00, 
2461.00, 
2462.00, 
2463.00, 
2464.00, 
2465.00, 
2466.00, 
2467.00, 
2468.00, 
2469.00, 
2470.00, 
2471.00, 
2472.00, 
2473.00, 
2474.00, 
2475.00, 
2476.00, 
2477.00, 
2478.00, 
2479.00, 
2480.00, 
2481.00, 
2482.00, 
2483.00, 
2484.00, 
2485.00, 
2486.00, 
2487.00, 
2488.00, 
2489.00, 
2490.00, 
2491.00, 
2492.00, 
2493.00, 
2494.00, 
2495.00, 
2496.00, 
2497.00, 
2498.00, 
2499.00, 
2500.00, 
2501.00, 
2502.00, 
2503.00, 
2504.00, 
2505.00, 
2506.00, 
2507.00, 
2508.00, 
2509.00, 
2510.00, 
2511.00, 
2512.00, 
2513.00, 
2514.00, 
2515.00, 
2516.00, 
2517.00, 
2518.00, 
2519.00, 
2520.00, 
2521.00, 
2522.00, 
2523.00, 
2524.00, 
2525.00, 
2526.00, 
2527.00, 
2528.00, 
2529.00, 
2530.00, 
2531.00, 
2532.00, 
2533.00, 
2534.00, 
2535.00, 
2536.00, 
2537.00, 
2538.00, 
2539.00, 
2540.00, 
2541.00, 
2542.00, 
2543.00, 
2544.00, 
2545.00, 
2546.00, 
2547.00, 
2548.00, 
2549.00, 
2550.00, 
2551.00, 
2552.00, 
2553.00, 
2554.00, 
2555.00, 
2556.00, 
2557.00, 
2558.00, 
2559.00, 
2560.00, 
2561.00, 
2562.00, 
2563.00, 
2564.00, 
2565.00, 
2566.00, 
2567.00, 
2568.00, 
2569.00, 
2570.00, 
2571.00, 
2572.00, 
2573.00, 
2574.00, 
2575.00, 
2576.00, 
2577.00, 
2578.00, 
2579.00, 
2580.00, 
2581.00, 
2582.00, 
2583.00, 
2584.00, 
2585.00, 
2586.00, 
2587.00, 
2588.00, 
2589.00, 
2590.00, 
2591.00, 
2592.00, 
2593.00, 
2594.00, 
2595.00, 
2596.00, 
2597.00, 
2598.00, 
2599.00, 
2600.00, 
