"2cP2 - RawData"
"Wavelength nm.","T%"
200.00,0.000
201.00,0.001
202.00,-0.001
203.00,-0.002
204.00,-0.000
205.00,0.003
206.00,0.002
207.00,0.005
208.00,0.001
209.00,0.004
210.00,0.002
211.00,-0.001
212.00,0.002
213.00,0.001
214.00,0.002
215.00,-0.000
216.00,0.002
217.00,-0.000
218.00,0.004
219.00,0.001
220.00,-0.001
221.00,0.001
222.00,0.003
223.00,0.002
224.00,0.001
225.00,0.002
226.00,0.001
227.00,-0.000
228.00,0.003
229.00,-0.000
230.00,0.002
231.00,-0.002
232.00,0.001
233.00,0.000
234.00,0.002
235.00,-0.001
236.00,0.001
237.00,-0.000
238.00,-0.000
239.00,0.001
240.00,-0.001
241.00,-0.000
242.00,-0.000
243.00,0.002
244.00,0.001
245.00,0.001
246.00,0.001
247.00,-0.001
248.00,0.000
249.00,0.002
250.00,0.001
251.00,0.000
252.00,-0.000
253.00,0.001
254.00,0.000
255.00,0.001
256.00,-0.000
257.00,0.002
258.00,-0.001
259.00,-0.002
260.00,0.000
261.00,-0.000
262.00,0.001
263.00,-0.000
264.00,0.000
265.00,0.000
266.00,0.000
267.00,0.001
268.00,-0.001
269.00,-0.000
270.00,-0.000
271.00,-0.001
272.00,-0.001
273.00,0.001
274.00,0.002
275.00,-0.000
276.00,-0.001
277.00,-0.001
278.00,-0.000
279.00,0.002
280.00,0.001
281.00,-0.000
282.00,-0.001
283.00,-0.001
284.00,-0.000
285.00,-0.000
286.00,0.001
287.00,0.002
288.00,-0.000
289.00,-0.000
290.00,0.000
291.00,0.001
292.00,-0.001
293.00,0.001
294.00,0.000
295.00,0.001
296.00,-0.000
297.00,0.001
298.00,0.001
299.00,0.003
300.00,0.002
301.00,0.005
302.00,0.008
303.00,0.011
304.00,0.016
305.00,0.027
306.00,0.037
307.00,0.060
308.00,0.095
309.00,0.145
310.00,0.205
311.00,0.277
312.00,0.373
313.00,0.516
314.00,0.681
315.00,0.892
316.00,1.146
317.00,1.437
318.00,1.773
319.00,2.182
320.00,2.664
321.00,3.189
322.00,3.791
323.00,4.472
324.00,5.174
325.00,5.916
326.00,6.673
327.00,7.555
328.00,8.464
329.00,9.364
330.00,10.313
331.00,11.254
332.00,12.230
333.00,13.281
334.00,14.296
335.00,15.320
336.00,16.334
337.00,17.377
338.00,18.360
339.00,19.297
340.00,20.273
341.00,21.188
342.00,22.083
343.00,22.990
344.00,23.827
345.00,24.503
346.00,25.331
347.00,25.981
348.00,26.732
349.00,27.321
350.00,27.940
351.00,28.516
352.00,29.058
353.00,29.583
354.00,30.072
355.00,30.524
356.00,30.934
357.00,31.409
358.00,31.779
359.00,32.127
360.00,32.441
361.00,32.712
362.00,33.077
363.00,33.327
364.00,33.652
365.00,33.846
366.00,34.040
367.00,34.173
368.00,34.362
369.00,34.448
370.00,34.637
371.00,34.819
372.00,34.742
373.00,34.756
374.00,34.785
375.00,34.837
376.00,34.764
377.00,34.796
378.00,34.750
379.00,34.728
380.00,34.728
381.00,34.744
382.00,34.787
383.00,34.817
384.00,34.888
385.00,34.938
386.00,35.039
387.00,35.075
388.00,35.251
389.00,35.369
390.00,35.411
391.00,35.488
392.00,35.564
393.00,35.594
394.00,35.658
395.00,35.684
396.00,35.749
397.00,35.710
398.00,35.800
399.00,35.853
400.00,35.872
401.00,35.866
402.00,35.878
403.00,35.880
404.00,35.839
405.00,35.834
406.00,35.831
407.00,35.830
408.00,35.829
409.00,35.745
410.00,35.691
411.00,35.667
412.00,35.639
413.00,35.628
414.00,35.659
415.00,35.621
416.00,35.645
417.00,35.648
418.00,35.651
419.00,35.703
420.00,35.678
421.00,35.770
422.00,35.791
423.00,35.832
424.00,35.793
425.00,35.853
426.00,35.892
427.00,35.890
428.00,35.971
429.00,35.963
430.00,35.986
431.00,36.027
432.00,36.137
433.00,36.057
434.00,36.127
435.00,36.162
436.00,36.167
437.00,36.252
438.00,36.275
439.00,36.336
440.00,36.352
441.00,36.444
442.00,36.488
443.00,36.571
444.00,36.603
445.00,36.642
446.00,36.750
447.00,36.804
448.00,36.884
449.00,36.952
450.00,37.020
451.00,37.115
452.00,37.195
453.00,37.246
454.00,37.300
455.00,37.398
456.00,37.493
457.00,37.565
458.00,37.621
459.00,37.690
460.00,37.825
461.00,37.795
462.00,38.014
463.00,38.071
464.00,38.228
465.00,38.283
466.00,38.348
467.00,38.460
468.00,38.513
469.00,38.572
470.00,38.632
471.00,38.706
472.00,38.736
473.00,38.752
474.00,38.819
475.00,38.938
476.00,38.948
477.00,39.054
478.00,39.190
479.00,39.272
480.00,39.371
481.00,39.485
482.00,39.566
483.00,39.682
484.00,39.818
485.00,39.950
486.00,40.013
487.00,40.103
488.00,40.238
489.00,40.336
490.00,40.425
491.00,40.559
492.00,40.607
493.00,40.758
494.00,40.792
495.00,40.829
496.00,40.940
497.00,40.916
498.00,41.069
499.00,41.222
500.00,41.200
501.00,41.311
502.00,41.366
503.00,41.371
504.00,41.568
505.00,41.702
506.00,41.787
507.00,41.859
508.00,41.934
509.00,42.065
510.00,42.095
511.00,42.160
512.00,42.248
513.00,42.361
514.00,42.463
515.00,42.451
516.00,42.577
517.00,42.618
518.00,42.659
519.00,42.832
520.00,42.885
521.00,42.914
522.00,42.952
523.00,43.079
524.00,43.100
525.00,43.154
526.00,43.244
527.00,43.288
528.00,43.304
529.00,43.402
530.00,43.464
531.00,43.625
532.00,43.691
533.00,43.749
534.00,43.817
535.00,43.877
536.00,43.958
537.00,43.995
538.00,44.119
539.00,44.060
540.00,44.176
541.00,44.232
542.00,44.202
543.00,44.306
544.00,44.315
545.00,44.390
546.00,44.381
547.00,44.515
548.00,44.604
549.00,44.555
550.00,44.672
551.00,44.719
552.00,44.795
553.00,44.815
554.00,44.924
555.00,44.926
556.00,44.894
557.00,44.975
558.00,45.059
559.00,45.036
560.00,45.113
561.00,45.128
562.00,45.152
563.00,45.271
564.00,45.359
565.00,45.331
566.00,45.306
567.00,45.366
568.00,45.372
569.00,45.429
570.00,45.402
571.00,45.475
572.00,45.493
573.00,45.520
574.00,45.574
575.00,45.594
576.00,45.621
577.00,45.634
578.00,45.718
579.00,45.773
580.00,45.818
581.00,45.950
582.00,46.011
583.00,46.043
584.00,46.156
585.00,46.125
586.00,46.166
587.00,46.219
588.00,46.291
589.00,46.338
590.00,46.384
591.00,46.324
592.00,46.327
593.00,46.389
594.00,46.396
595.00,46.465
596.00,46.489
597.00,46.526
598.00,46.586
599.00,46.547
600.00,46.570
601.00,46.703
602.00,46.660
603.00,46.799
604.00,46.775
605.00,46.739
606.00,46.835
607.00,46.765
608.00,46.894
609.00,46.882
610.00,46.879
611.00,46.918
612.00,46.965
613.00,46.939
614.00,46.942
615.00,46.967
616.00,47.052
617.00,46.962
618.00,47.098
619.00,47.164
620.00,47.044
621.00,47.130
622.00,47.205
623.00,47.087
624.00,47.239
625.00,47.279
626.00,47.236
627.00,47.291
628.00,47.246
629.00,47.349
630.00,47.420
631.00,47.432
632.00,47.474
633.00,47.549
634.00,47.508
635.00,47.589
636.00,47.637
637.00,47.751
638.00,47.740
639.00,47.792
640.00,47.809
641.00,47.764
642.00,47.798
643.00,47.821
644.00,47.921
645.00,47.923
646.00,48.069
647.00,47.995
648.00,47.997
649.00,48.117
650.00,48.036
651.00,48.143
652.00,48.077
653.00,48.156
654.00,48.191
655.00,48.223
656.00,48.229
657.00,48.250
658.00,48.470
659.00,48.608
660.00,48.661
661.00,47.907
662.00,48.613
663.00,48.559
664.00,48.669
665.00,48.579
666.00,48.699
667.00,48.862
668.00,48.776
669.00,48.896
670.00,48.857
671.00,48.870
672.00,48.959
673.00,48.922
674.00,48.944
675.00,48.981
676.00,49.062
677.00,49.064
678.00,49.116
679.00,49.080
680.00,49.105
681.00,49.151
682.00,49.186
683.00,49.291
684.00,49.371
685.00,49.332
686.00,49.228
687.00,49.306
688.00,49.365
689.00,49.289
690.00,49.307
691.00,49.479
692.00,49.452
693.00,49.456
694.00,49.343
695.00,49.547
696.00,49.620
697.00,49.520
698.00,49.772
699.00,49.922
700.00,49.783
701.00,49.712
702.00,49.768
703.00,49.803
704.00,49.843
705.00,49.810
706.00,50.021
707.00,49.980
708.00,49.800
709.00,49.883
710.00,50.112
711.00,49.875
712.00,49.887
713.00,50.066
714.00,49.975
715.00,50.095
716.00,50.128
717.00,50.012
718.00,49.938
719.00,49.999
720.00,50.117
721.00,54.351
722.00,54.309
723.00,54.311
724.00,54.172
725.00,54.167
726.00,54.150
727.00,54.077
728.00,54.097
729.00,54.125
730.00,54.106
731.00,54.065
732.00,54.067
733.00,54.046
734.00,54.064
735.00,54.053
736.00,54.021
737.00,53.853
738.00,53.930
739.00,53.927
740.00,53.928
741.00,53.975
742.00,53.899
743.00,53.882
744.00,53.813
745.00,53.847
746.00,53.735
747.00,53.664
748.00,53.644
749.00,53.572
750.00,53.575
751.00,53.575
752.00,53.578
753.00,53.444
754.00,53.523
755.00,53.402
756.00,53.412
757.00,53.328
758.00,53.430
759.00,53.393
760.00,53.375
761.00,53.317
762.00,53.279
763.00,53.352
764.00,53.281
765.00,53.206
766.00,53.194
767.00,53.160
768.00,53.160
769.00,53.134
770.00,53.116
771.00,53.091
772.00,53.112
773.00,53.067
774.00,53.124
775.00,53.092
776.00,53.050
777.00,52.991
778.00,53.053
779.00,52.964
780.00,52.933
781.00,52.929
782.00,52.892
783.00,52.898
784.00,52.806
785.00,52.825
786.00,52.747
787.00,52.786
788.00,52.729
789.00,52.677
790.00,52.636
791.00,52.636
792.00,52.591
793.00,52.509
794.00,52.579
795.00,52.516
796.00,52.559
797.00,52.407
798.00,52.415
799.00,52.396
800.00,52.327
801.00,52.337
802.00,52.256
803.00,52.397
804.00,52.291
805.00,52.182
806.00,52.257
807.00,52.194
808.00,52.226
809.00,52.114
810.00,52.155
811.00,52.087
812.00,52.120
813.00,52.008
814.00,51.949
815.00,52.025
816.00,52.011
817.00,51.835
818.00,51.875
819.00,51.835
820.00,51.896
821.00,51.809
822.00,51.791
823.00,51.687
824.00,51.795
825.00,51.673
826.00,51.755
827.00,51.755
828.00,51.626
829.00,51.666
830.00,51.680
831.00,54.233
832.00,54.179
833.00,54.140
834.00,54.113
835.00,54.078
836.00,54.053
837.00,54.001
838.00,53.986
839.00,53.998
840.00,53.922
841.00,53.954
842.00,53.867
843.00,53.876
844.00,53.877
845.00,53.798
846.00,53.854
847.00,53.751
848.00,53.743
849.00,53.658
850.00,53.624
851.00,53.573
852.00,53.537
853.00,53.505
854.00,53.499
855.00,53.475
856.00,53.447
857.00,53.400
858.00,53.382
859.00,53.348
860.00,53.333
861.00,53.335
862.00,53.283
863.00,53.253
864.00,53.191
865.00,53.205
866.00,53.186
867.00,53.186
868.00,53.160
869.00,53.134
870.00,53.122
871.00,53.102
872.00,53.125
873.00,53.070
874.00,53.075
875.00,53.038
876.00,53.065
877.00,53.024
878.00,53.033
879.00,52.970
880.00,52.968
881.00,52.946
882.00,52.946
883.00,52.890
884.00,52.843
885.00,52.815
886.00,52.806
887.00,52.796
888.00,52.759
889.00,52.749
890.00,52.739
891.00,52.703
892.00,52.672
893.00,52.647
894.00,52.651
895.00,52.612
896.00,52.587
897.00,52.568
898.00,52.550
899.00,52.528
900.00,52.528
901.00,52.501
902.00,52.483
903.00,52.469
904.00,52.425
905.00,52.410
906.00,52.408
907.00,52.381
908.00,52.343
909.00,52.341
910.00,52.292
911.00,52.301
912.00,52.300
913.00,52.254
914.00,52.204
915.00,52.197
916.00,52.176
917.00,52.134
918.00,52.101
919.00,52.081
920.00,52.088
921.00,52.066
922.00,52.037
923.00,52.005
924.00,52.005
925.00,51.973
926.00,51.972
927.00,51.941
928.00,51.912
929.00,51.909
930.00,51.869
931.00,51.857
932.00,51.838
933.00,51.816
934.00,51.788
935.00,51.761
936.00,51.764
937.00,51.735
938.00,51.734
939.00,51.730
940.00,51.682
941.00,51.669
942.00,51.651
943.00,51.629
944.00,51.595
945.00,51.594
946.00,51.572
947.00,51.537
948.00,51.527
949.00,51.492
950.00,51.482
951.00,51.464
952.00,51.420
953.00,51.400
954.00,51.370
955.00,51.334
956.00,51.329
957.00,51.345
958.00,51.290
959.00,51.248
960.00,51.229
961.00,51.207
962.00,51.204
963.00,51.160
964.00,51.151
965.00,51.139
966.00,51.130
967.00,51.148
968.00,51.115
969.00,51.136
970.00,51.121
971.00,51.116
972.00,51.094
973.00,51.105
974.00,51.133
975.00,51.102
976.00,51.119
977.00,51.108
978.00,51.129
979.00,51.084
980.00,51.096
981.00,51.108
982.00,51.090
983.00,51.090
984.00,51.087
985.00,51.082
986.00,51.036
987.00,51.048
988.00,51.022
989.00,50.999
990.00,51.012
991.00,50.980
992.00,51.005
993.00,50.977
994.00,50.948
995.00,50.959
996.00,50.934
997.00,50.939
998.00,50.908
999.00,50.912
1000.00,50.860
1001.00,50.859
1002.00,50.852
1003.00,50.845
1004.00,50.816
1005.00,50.796
1006.00,50.818
1007.00,50.770
1008.00,50.757
1009.00,50.797
1010.00,50.752
1011.00,50.744
1012.00,50.703
1013.00,50.712
1014.00,50.684
1015.00,50.692
1016.00,50.649
1017.00,50.650
1018.00,50.627
1019.00,50.597
1020.00,50.595
1021.00,50.572
1022.00,50.563
1023.00,50.528
1024.00,50.540
1025.00,50.522
1026.00,50.511
1027.00,50.474
1028.00,50.473
1029.00,50.452
1030.00,50.425
1031.00,50.431
1032.00,50.383
1033.00,50.389
1034.00,50.350
1035.00,50.328
1036.00,50.306
1037.00,50.284
1038.00,50.290
1039.00,50.256
1040.00,50.252
1041.00,50.203
1042.00,50.204
1043.00,50.165
1044.00,50.199
1045.00,50.172
1046.00,50.163
1047.00,50.172
1048.00,50.172
1049.00,50.184
1050.00,50.183
1051.00,50.203
1052.00,50.218
1053.00,50.237
1054.00,50.232
1055.00,50.252
1056.00,50.263
1057.00,50.266
1058.00,50.254
1059.00,50.239
1060.00,50.241
1061.00,50.236
1062.00,50.218
1063.00,50.235
1064.00,50.211
1065.00,50.193
1066.00,50.197
1067.00,50.175
1068.00,50.197
1069.00,50.170
1070.00,50.162
1071.00,50.126
1072.00,50.143
1073.00,50.113
1074.00,50.104
1075.00,50.095
1076.00,50.090
1077.00,50.096
1078.00,50.066
1079.00,50.056
1080.00,50.075
1081.00,50.049
1082.00,50.049
1083.00,50.050
1084.00,50.041
1085.00,50.024
1086.00,50.020
1087.00,50.024
1088.00,49.997
1089.00,49.982
1090.00,49.974
1091.00,49.976
1092.00,49.951
1093.00,49.925
1094.00,49.927
1095.00,49.915
1096.00,49.911
1097.00,49.899
1098.00,49.896
1099.00,49.888
1100.00,49.881
1101.00,49.869
1102.00,49.853
1103.00,49.849
1104.00,49.839
1105.00,49.825
1106.00,49.803
1107.00,49.794
1108.00,49.797
1109.00,49.786
1110.00,49.800
1111.00,49.786
1112.00,49.773
1113.00,49.761
1114.00,49.753
1115.00,49.760
1116.00,49.752
1117.00,49.724
1118.00,49.722
1119.00,49.714
1120.00,49.709
1121.00,49.693
1122.00,49.682
1123.00,49.687
1124.00,49.682
1125.00,49.667
1126.00,49.669
1127.00,49.664
1128.00,49.652
1129.00,49.641
1130.00,49.648
1131.00,49.636
1132.00,49.608
1133.00,49.593
1134.00,49.597
1135.00,49.587
1136.00,49.579
1137.00,49.582
1138.00,49.589
1139.00,49.583
1140.00,49.577
1141.00,49.572
1142.00,49.567
1143.00,49.575
1144.00,49.530
1145.00,49.539
1146.00,49.531
1147.00,49.532
1148.00,49.534
1149.00,49.547
1150.00,49.535
1151.00,49.532
1152.00,49.538
1153.00,49.531
1154.00,49.514
1155.00,49.523
1156.00,49.495
1157.00,49.501
1158.00,49.496
1159.00,49.485
1160.00,49.481
1161.00,49.481
1162.00,49.479
1163.00,49.474
1164.00,49.475
1165.00,49.468
1166.00,49.473
1167.00,49.471
1168.00,49.480
1169.00,49.475
1170.00,49.471
1171.00,49.459
1172.00,49.463
1173.00,49.444
1174.00,49.453
1175.00,49.446
1176.00,49.458
1177.00,49.448
1178.00,49.440
1179.00,49.453
1180.00,49.432
1181.00,49.443
1182.00,49.444
1183.00,49.427
1184.00,49.411
1185.00,49.440
1186.00,49.423
1187.00,49.436
1188.00,49.425
1189.00,49.413
1190.00,49.419
1191.00,49.400
1192.00,49.418
1193.00,49.410
1194.00,49.416
1195.00,49.399
1196.00,49.426
1197.00,49.421
1198.00,49.415
1199.00,49.404
1200.00,49.401
1201.00,49.408
1202.00,49.395
1203.00,49.391
1204.00,49.393
1205.00,49.385
1206.00,49.388
1207.00,49.392
1208.00,49.378
1209.00,49.379
1210.00,49.382
1211.00,49.388
1212.00,49.403
1213.00,49.375
1214.00,49.399
1215.00,49.391
1216.00,49.386
1217.00,49.388
1218.00,49.382
1219.00,49.391
1220.00,49.382
1221.00,49.379
1222.00,49.375
1223.00,49.385
1224.00,49.377
1225.00,49.365
1226.00,49.379
1227.00,49.367
1228.00,49.385
1229.00,49.380
1230.00,49.418
1231.00,49.408
1232.00,49.418
1233.00,49.406
1234.00,49.421
1235.00,49.408
1236.00,49.404
1237.00,49.413
1238.00,49.407
1239.00,49.417
1240.00,49.409
1241.00,49.414
1242.00,49.423
1243.00,49.435
1244.00,49.425
1245.00,49.439
1246.00,49.438
1247.00,49.436
1248.00,49.435
1249.00,49.439
1250.00,49.428
1251.00,49.439
1252.00,49.443
1253.00,49.441
1254.00,49.462
1255.00,49.458
1256.00,49.436
1257.00,49.417
1258.00,49.471
1259.00,49.468
1260.00,49.478
1261.00,49.473
1262.00,49.461
1263.00,49.472
1264.00,49.462
1265.00,49.461
1266.00,49.473
1267.00,49.493
1268.00,49.503
1269.00,49.488
1270.00,49.502
1271.00,49.501
1272.00,49.509
1273.00,49.524
1274.00,49.516
1275.00,49.513
1276.00,49.521
1277.00,49.523
1278.00,49.529
1279.00,49.530
1280.00,49.538
1281.00,49.552
1282.00,49.554
1283.00,49.542
1284.00,49.556
1285.00,49.536
1286.00,49.549
1287.00,49.550
1288.00,49.550
1289.00,49.546
1290.00,49.559
1291.00,49.567
1292.00,49.569
1293.00,49.560
1294.00,49.576
1295.00,49.593
1296.00,49.579
1297.00,49.590
1298.00,49.639
1299.00,49.603
1300.00,49.614
1301.00,49.623
1302.00,49.624
1303.00,49.648
1304.00,49.621
1305.00,49.651
1306.00,49.655
1307.00,49.665
1308.00,49.661
1309.00,49.666
1310.00,49.672
1311.00,49.673
1312.00,49.669
1313.00,49.652
1314.00,49.678
1315.00,49.677
1316.00,49.681
1317.00,49.705
1318.00,49.692
1319.00,49.707
1320.00,49.727
1321.00,49.863
1322.00,49.884
1323.00,49.872
1324.00,49.887
1325.00,49.851
1326.00,49.890
1327.00,49.860
1328.00,49.854
1329.00,49.867
1330.00,49.861
1331.00,49.872
1332.00,49.878
1333.00,49.864
1334.00,49.912
1335.00,49.936
1336.00,49.934
1337.00,49.962
1338.00,50.035
1339.00,50.067
1340.00,50.119
1341.00,50.191
1342.00,50.258
1343.00,50.362
1344.00,50.365
1345.00,50.416
1346.00,50.447
1347.00,50.458
1348.00,50.506
1349.00,50.523
1350.00,50.528
1351.00,50.557
1352.00,50.557
1353.00,50.579
1354.00,50.567
1355.00,50.523
1356.00,50.575
1357.00,50.565
1358.00,50.558
1359.00,50.591
1360.00,50.592
1361.00,50.644
1362.00,50.549
1363.00,50.635
1364.00,50.655
1365.00,50.569
1366.00,50.618
1367.00,50.617
1368.00,50.535
1369.00,50.538
1370.00,50.583
1371.00,50.581
1372.00,50.543
1373.00,50.540
1374.00,50.567
1375.00,50.537
1376.00,50.554
1377.00,50.515
1378.00,50.548
1379.00,50.542
1380.00,50.530
1381.00,50.584
1382.00,50.523
1383.00,50.556
1384.00,50.536
1385.00,50.493
1386.00,50.548
1387.00,50.567
1388.00,50.484
1389.00,50.406
1390.00,50.550
1391.00,50.569
1392.00,50.519
1393.00,50.500
1394.00,50.521
1395.00,50.592
1396.00,50.490
1397.00,50.469
1398.00,50.530
1399.00,50.541
1400.00,50.522
1401.00,50.507
1402.00,50.494
1403.00,50.573
1404.00,50.564
1405.00,50.559
1406.00,50.556
1407.00,50.575
1408.00,50.624
1409.00,50.574
1410.00,50.588
1411.00,50.543
1412.00,50.609
1413.00,50.637
1414.00,50.628
1415.00,50.620
1416.00,50.633
1417.00,50.653
1418.00,50.675
1419.00,50.668
1420.00,50.678
1421.00,50.695
1422.00,50.705
1423.00,50.722
1424.00,50.717
1425.00,50.735
1426.00,50.742
1427.00,50.764
1428.00,50.776
1429.00,50.781
1430.00,50.801
1431.00,50.828
1432.00,50.828
1433.00,50.857
1434.00,50.855
1435.00,50.878
1436.00,50.880
1437.00,50.884
1438.00,50.897
1439.00,50.934
1440.00,50.947
1441.00,50.944
1442.00,50.957
1443.00,50.971
1444.00,51.012
1445.00,51.011
1446.00,51.023
1447.00,51.046
1448.00,51.057
1449.00,51.071
1450.00,51.077
1451.00,51.081
1452.00,51.097
1453.00,51.121
1454.00,51.138
1455.00,51.145
1456.00,51.171
1457.00,51.152
1458.00,51.192
1459.00,51.211
1460.00,51.216
1461.00,51.236
1462.00,51.251
1463.00,51.272
1464.00,51.277
1465.00,51.285
1466.00,51.285
1467.00,51.321
1468.00,51.346
1469.00,51.347
1470.00,51.360
1471.00,51.357
1472.00,51.381
1473.00,51.384
1474.00,51.413
1475.00,51.422
1476.00,51.409
1477.00,51.432
1478.00,51.453
1479.00,51.454
1480.00,51.464
1481.00,51.479
1482.00,51.512
1483.00,51.515
1484.00,51.525
1485.00,51.540
1486.00,51.539
1487.00,51.559
1488.00,51.575
1489.00,51.583
1490.00,51.576
1491.00,51.593
1492.00,51.610
1493.00,51.611
1494.00,51.630
1495.00,51.629
1496.00,51.629
1497.00,51.643
1498.00,51.643
1499.00,51.657
1500.00,51.692
1501.00, 
1502.00, 
1503.00, 
1504.00, 
1505.00, 
1506.00, 
1507.00, 
1508.00, 
1509.00, 
1510.00, 
1511.00, 
1512.00, 
1513.00, 
1514.00, 
1515.00, 
1516.00, 
1517.00, 
1518.00, 
1519.00, 
1520.00, 
1521.00, 
1522.00, 
1523.00, 
1524.00, 
1525.00, 
1526.00, 
1527.00, 
1528.00, 
1529.00, 
1530.00, 
1531.00, 
1532.00, 
1533.00, 
1534.00, 
1535.00, 
1536.00, 
1537.00, 
1538.00, 
1539.00, 
1540.00, 
1541.00, 
1542.00, 
1543.00, 
1544.00, 
1545.00, 
1546.00, 
1547.00, 
1548.00, 
1549.00, 
1550.00, 
1551.00, 
1552.00, 
1553.00, 
1554.00, 
1555.00, 
1556.00, 
1557.00, 
1558.00, 
1559.00, 
1560.00, 
1561.00, 
1562.00, 
1563.00, 
1564.00, 
1565.00, 
1566.00, 
1567.00, 
1568.00, 
1569.00, 
1570.00, 
1571.00, 
1572.00, 
1573.00, 
1574.00, 
1575.00, 
1576.00, 
1577.00, 
1578.00, 
1579.00, 
1580.00, 
1581.00, 
1582.00, 
1583.00, 
1584.00, 
1585.00, 
1586.00, 
1587.00, 
1588.00, 
1589.00, 
1590.00, 
1591.00, 
1592.00, 
1593.00, 
1594.00, 
1595.00, 
1596.00, 
1597.00, 
1598.00, 
1599.00, 
1600.00, 
1601.00, 
1602.00, 
1603.00, 
1604.00, 
1605.00, 
1606.00, 
1607.00, 
1608.00, 
1609.00, 
1610.00, 
1611.00, 
1612.00, 
1613.00, 
1614.00, 
1615.00, 
1616.00, 
1617.00, 
1618.00, 
1619.00, 
1620.00, 
1621.00, 
1622.00, 
1623.00, 
1624.00, 
1625.00, 
1626.00, 
1627.00, 
1628.00, 
1629.00, 
1630.00, 
1631.00, 
1632.00, 
1633.00, 
1634.00, 
1635.00, 
1636.00, 
1637.00, 
1638.00, 
1639.00, 
1640.00, 
1641.00, 
1642.00, 
1643.00, 
1644.00, 
1645.00, 
1646.00, 
1647.00, 
1648.00, 
1649.00, 
1650.00, 
1651.00, 
1652.00, 
1653.00, 
1654.00, 
1655.00, 
1656.00, 
1657.00, 
1658.00, 
1659.00, 
1660.00, 
1661.00, 
1662.00, 
1663.00, 
1664.00, 
1665.00, 
1666.00, 
1667.00, 
1668.00, 
1669.00, 
1670.00, 
1671.00, 
1672.00, 
1673.00, 
1674.00, 
1675.00, 
1676.00, 
1677.00, 
1678.00, 
1679.00, 
1680.00, 
1681.00, 
1682.00, 
1683.00, 
1684.00, 
1685.00, 
1686.00, 
1687.00, 
1688.00, 
1689.00, 
1690.00, 
1691.00, 
1692.00, 
1693.00, 
1694.00, 
1695.00, 
1696.00, 
1697.00, 
1698.00, 
1699.00, 
1700.00, 
1701.00, 
1702.00, 
1703.00, 
1704.00, 
1705.00, 
1706.00, 
1707.00, 
1708.00, 
1709.00, 
1710.00, 
1711.00, 
1712.00, 
1713.00, 
1714.00, 
1715.00, 
1716.00, 
1717.00, 
1718.00, 
1719.00, 
1720.00, 
1721.00, 
1722.00, 
1723.00, 
1724.00, 
1725.00, 
1726.00, 
1727.00, 
1728.00, 
1729.00, 
1730.00, 
1731.00, 
1732.00, 
1733.00, 
1734.00, 
1735.00, 
1736.00, 
1737.00, 
1738.00, 
1739.00, 
1740.00, 
1741.00, 
1742.00, 
1743.00, 
1744.00, 
1745.00, 
1746.00, 
1747.00, 
1748.00, 
1749.00, 
1750.00, 
1751.00, 
1752.00, 
1753.00, 
1754.00, 
1755.00, 
1756.00, 
1757.00, 
1758.00, 
1759.00, 
1760.00, 
1761.00, 
1762.00, 
1763.00, 
1764.00, 
1765.00, 
1766.00, 
1767.00, 
1768.00, 
1769.00, 
1770.00, 
1771.00, 
1772.00, 
1773.00, 
1774.00, 
1775.00, 
1776.00, 
1777.00, 
1778.00, 
1779.00, 
1780.00, 
1781.00, 
1782.00, 
1783.00, 
1784.00, 
1785.00, 
1786.00, 
1787.00, 
1788.00, 
1789.00, 
1790.00, 
1791.00, 
1792.00, 
1793.00, 
1794.00, 
1795.00, 
1796.00, 
1797.00, 
1798.00, 
1799.00, 
1800.00, 
1801.00, 
1802.00, 
1803.00, 
1804.00, 
1805.00, 
1806.00, 
1807.00, 
1808.00, 
1809.00, 
1810.00, 
1811.00, 
1812.00, 
1813.00, 
1814.00, 
1815.00, 
1816.00, 
1817.00, 
1818.00, 
1819.00, 
1820.00, 
1821.00, 
1822.00, 
1823.00, 
1824.00, 
1825.00, 
1826.00, 
1827.00, 
1828.00, 
1829.00, 
1830.00, 
1831.00, 
1832.00, 
1833.00, 
1834.00, 
1835.00, 
1836.00, 
1837.00, 
1838.00, 
1839.00, 
1840.00, 
1841.00, 
1842.00, 
1843.00, 
1844.00, 
1845.00, 
1846.00, 
1847.00, 
1848.00, 
1849.00, 
1850.00, 
1851.00, 
1852.00, 
1853.00, 
1854.00, 
1855.00, 
1856.00, 
1857.00, 
1858.00, 
1859.00, 
1860.00, 
1861.00, 
1862.00, 
1863.00, 
1864.00, 
1865.00, 
1866.00, 
1867.00, 
1868.00, 
1869.00, 
1870.00, 
1871.00, 
1872.00, 
1873.00, 
1874.00, 
1875.00, 
1876.00, 
1877.00, 
1878.00, 
1879.00, 
1880.00, 
1881.00, 
1882.00, 
1883.00, 
1884.00, 
1885.00, 
1886.00, 
1887.00, 
1888.00, 
1889.00, 
1890.00, 
1891.00, 
1892.00, 
1893.00, 
1894.00, 
1895.00, 
1896.00, 
1897.00, 
1898.00, 
1899.00, 
1900.00, 
1901.00, 
1902.00, 
1903.00, 
1904.00, 
1905.00, 
1906.00, 
1907.00, 
1908.00, 
1909.00, 
1910.00, 
1911.00, 
1912.00, 
1913.00, 
1914.00, 
1915.00, 
1916.00, 
1917.00, 
1918.00, 
1919.00, 
1920.00, 
1921.00, 
1922.00, 
1923.00, 
1924.00, 
1925.00, 
1926.00, 
1927.00, 
1928.00, 
1929.00, 
1930.00, 
1931.00, 
1932.00, 
1933.00, 
1934.00, 
1935.00, 
1936.00, 
1937.00, 
1938.00, 
1939.00, 
1940.00, 
1941.00, 
1942.00, 
1943.00, 
1944.00, 
1945.00, 
1946.00, 
1947.00, 
1948.00, 
1949.00, 
1950.00, 
1951.00, 
1952.00, 
1953.00, 
1954.00, 
1955.00, 
1956.00, 
1957.00, 
1958.00, 
1959.00, 
1960.00, 
1961.00, 
1962.00, 
1963.00, 
1964.00, 
1965.00, 
1966.00, 
1967.00, 
1968.00, 
1969.00, 
1970.00, 
1971.00, 
1972.00, 
1973.00, 
1974.00, 
1975.00, 
1976.00, 
1977.00, 
1978.00, 
1979.00, 
1980.00, 
1981.00, 
1982.00, 
1983.00, 
1984.00, 
1985.00, 
1986.00, 
1987.00, 
1988.00, 
1989.00, 
1990.00, 
1991.00, 
1992.00, 
1993.00, 
1994.00, 
1995.00, 
1996.00, 
1997.00, 
1998.00, 
1999.00, 
2000.00, 
2001.00, 
2002.00, 
2003.00, 
2004.00, 
2005.00, 
2006.00, 
2007.00, 
2008.00, 
2009.00, 
2010.00, 
2011.00, 
2012.00, 
2013.00, 
2014.00, 
2015.00, 
2016.00, 
2017.00, 
2018.00, 
2019.00, 
2020.00, 
2021.00, 
2022.00, 
2023.00, 
2024.00, 
2025.00, 
2026.00, 
2027.00, 
2028.00, 
2029.00, 
2030.00, 
2031.00, 
2032.00, 
2033.00, 
2034.00, 
2035.00, 
2036.00, 
2037.00, 
2038.00, 
2039.00, 
2040.00, 
2041.00, 
2042.00, 
2043.00, 
2044.00, 
2045.00, 
2046.00, 
2047.00, 
2048.00, 
2049.00, 
2050.00, 
2051.00, 
2052.00, 
2053.00, 
2054.00, 
2055.00, 
2056.00, 
2057.00, 
2058.00, 
2059.00, 
2060.00, 
2061.00, 
2062.00, 
2063.00, 
2064.00, 
2065.00, 
2066.00, 
2067.00, 
2068.00, 
2069.00, 
2070.00, 
2071.00, 
2072.00, 
2073.00, 
2074.00, 
2075.00, 
2076.00, 
2077.00, 
2078.00, 
2079.00, 
2080.00, 
2081.00, 
2082.00, 
2083.00, 
2084.00, 
2085.00, 
2086.00, 
2087.00, 
2088.00, 
2089.00, 
2090.00, 
2091.00, 
2092.00, 
2093.00, 
2094.00, 
2095.00, 
2096.00, 
2097.00, 
2098.00, 
2099.00, 
2100.00, 
2101.00, 
2102.00, 
2103.00, 
2104.00, 
2105.00, 
2106.00, 
2107.00, 
2108.00, 
2109.00, 
2110.00, 
2111.00, 
2112.00, 
2113.00, 
2114.00, 
2115.00, 
2116.00, 
2117.00, 
2118.00, 
2119.00, 
2120.00, 
2121.00, 
2122.00, 
2123.00, 
2124.00, 
2125.00, 
2126.00, 
2127.00, 
2128.00, 
2129.00, 
2130.00, 
2131.00, 
2132.00, 
2133.00, 
2134.00, 
2135.00, 
2136.00, 
2137.00, 
2138.00, 
2139.00, 
2140.00, 
2141.00, 
2142.00, 
2143.00, 
2144.00, 
2145.00, 
2146.00, 
2147.00, 
2148.00, 
2149.00, 
2150.00, 
2151.00, 
2152.00, 
2153.00, 
2154.00, 
2155.00, 
2156.00, 
2157.00, 
2158.00, 
2159.00, 
2160.00, 
2161.00, 
2162.00, 
2163.00, 
2164.00, 
2165.00, 
2166.00, 
2167.00, 
2168.00, 
2169.00, 
2170.00, 
2171.00, 
2172.00, 
2173.00, 
2174.00, 
2175.00, 
2176.00, 
2177.00, 
2178.00, 
2179.00, 
2180.00, 
2181.00, 
2182.00, 
2183.00, 
2184.00, 
2185.00, 
2186.00, 
2187.00, 
2188.00, 
2189.00, 
2190.00, 
2191.00, 
2192.00, 
2193.00, 
2194.00, 
2195.00, 
2196.00, 
2197.00, 
2198.00, 
2199.00, 
2200.00, 
2201.00, 
2202.00, 
2203.00, 
2204.00, 
2205.00, 
2206.00, 
2207.00, 
2208.00, 
2209.00, 
2210.00, 
2211.00, 
2212.00, 
2213.00, 
2214.00, 
2215.00, 
2216.00, 
2217.00, 
2218.00, 
2219.00, 
2220.00, 
2221.00, 
2222.00, 
2223.00, 
2224.00, 
2225.00, 
2226.00, 
2227.00, 
2228.00, 
2229.00, 
2230.00, 
2231.00, 
2232.00, 
2233.00, 
2234.00, 
2235.00, 
2236.00, 
2237.00, 
2238.00, 
2239.00, 
2240.00, 
2241.00, 
2242.00, 
2243.00, 
2244.00, 
2245.00, 
2246.00, 
2247.00, 
2248.00, 
2249.00, 
2250.00, 
2251.00, 
2252.00, 
2253.00, 
2254.00, 
2255.00, 
2256.00, 
2257.00, 
2258.00, 
2259.00, 
2260.00, 
2261.00, 
2262.00, 
2263.00, 
2264.00, 
2265.00, 
2266.00, 
2267.00, 
2268.00, 
2269.00, 
2270.00, 
2271.00, 
2272.00, 
2273.00, 
2274.00, 
2275.00, 
2276.00, 
2277.00, 
2278.00, 
2279.00, 
2280.00, 
2281.00, 
2282.00, 
2283.00, 
2284.00, 
2285.00, 
2286.00, 
2287.00, 
2288.00, 
2289.00, 
2290.00, 
2291.00, 
2292.00, 
2293.00, 
2294.00, 
2295.00, 
2296.00, 
2297.00, 
2298.00, 
2299.00, 
2300.00, 
2301.00, 
2302.00, 
2303.00, 
2304.00, 
2305.00, 
2306.00, 
2307.00, 
2308.00, 
2309.00, 
2310.00, 
2311.00, 
2312.00, 
2313.00, 
2314.00, 
2315.00, 
2316.00, 
2317.00, 
2318.00, 
2319.00, 
2320.00, 
2321.00, 
2322.00, 
2323.00, 
2324.00, 
2325.00, 
2326.00, 
2327.00, 
2328.00, 
2329.00, 
2330.00, 
2331.00, 
2332.00, 
2333.00, 
2334.00, 
2335.00, 
2336.00, 
2337.00, 
2338.00, 
2339.00, 
2340.00, 
2341.00, 
2342.00, 
2343.00, 
2344.00, 
2345.00, 
2346.00, 
2347.00, 
2348.00, 
2349.00, 
2350.00, 
2351.00, 
2352.00, 
2353.00, 
2354.00, 
2355.00, 
2356.00, 
2357.00, 
2358.00, 
2359.00, 
2360.00, 
2361.00, 
2362.00, 
2363.00, 
2364.00, 
2365.00, 
2366.00, 
2367.00, 
2368.00, 
2369.00, 
2370.00, 
2371.00, 
2372.00, 
2373.00, 
2374.00, 
2375.00, 
2376.00, 
2377.00, 
2378.00, 
2379.00, 
2380.00, 
2381.00, 
2382.00, 
2383.00, 
2384.00, 
2385.00, 
2386.00, 
2387.00, 
2388.00, 
2389.00, 
2390.00, 
2391.00, 
2392.00, 
2393.00, 
2394.00, 
2395.00, 
2396.00, 
2397.00, 
2398.00, 
2399.00, 
2400.00, 
2401.00, 
2402.00, 
2403.00, 
2404.00, 
2405.00, 
2406.00, 
2407.00, 
2408.00, 
2409.00, 
2410.00, 
2411.00, 
2412.00, 
2413.00, 
2414.00, 
2415.00, 
2416.00, 
2417.00, 
2418.00, 
2419.00, 
2420.00, 
2421.00, 
2422.00, 
2423.00, 
2424.00, 
2425.00, 
2426.00, 
2427.00, 
2428.00, 
2429.00, 
2430.00, 
2431.00, 
2432.00, 
2433.00, 
2434.00, 
2435.00, 
2436.00, 
2437.00, 
2438.00, 
2439.00, 
2440.00, 
2441.00, 
2442.00, 
2443.00, 
2444.00, 
2445.00, 
2446.00, 
2447.00, 
2448.00, 
2449.00, 
2450.00, 
2451.00, 
2452.00, 
2453.00, 
2454.00, 
2455.00, 
2456.00, 
2457.00, 
2458.00, 
2459.00, 
2460.00, 
2461.00, 
2462.00, 
2463.00, 
2464.00, 
2465.00, 
2466.00, 
2467.00, 
2468.00, 
2469.00, 
2470.00, 
2471.00, 
2472.00, 
2473.00, 
2474.00, 
2475.00, 
2476.00, 
2477.00, 
2478.00, 
2479.00, 
2480.00, 
2481.00, 
2482.00, 
2483.00, 
2484.00, 
2485.00, 
2486.00, 
2487.00, 
2488.00, 
2489.00, 
2490.00, 
2491.00, 
2492.00, 
2493.00, 
2494.00, 
2495.00, 
2496.00, 
2497.00, 
2498.00, 
2499.00, 
2500.00, 
2501.00, 
2502.00, 
2503.00, 
2504.00, 
2505.00, 
2506.00, 
2507.00, 
2508.00, 
2509.00, 
2510.00, 
2511.00, 
2512.00, 
2513.00, 
2514.00, 
2515.00, 
2516.00, 
2517.00, 
2518.00, 
2519.00, 
2520.00, 
2521.00, 
2522.00, 
2523.00, 
2524.00, 
2525.00, 
2526.00, 
2527.00, 
2528.00, 
2529.00, 
2530.00, 
2531.00, 
2532.00, 
2533.00, 
2534.00, 
2535.00, 
2536.00, 
2537.00, 
2538.00, 
2539.00, 
2540.00, 
2541.00, 
2542.00, 
2543.00, 
2544.00, 
2545.00, 
2546.00, 
2547.00, 
2548.00, 
2549.00, 
2550.00, 
2551.00, 
2552.00, 
2553.00, 
2554.00, 
2555.00, 
2556.00, 
2557.00, 
2558.00, 
2559.00, 
2560.00, 
2561.00, 
2562.00, 
2563.00, 
2564.00, 
2565.00, 
2566.00, 
2567.00, 
2568.00, 
2569.00, 
2570.00, 
2571.00, 
2572.00, 
2573.00, 
2574.00, 
2575.00, 
2576.00, 
2577.00, 
2578.00, 
2579.00, 
2580.00, 
2581.00, 
2582.00, 
2583.00, 
2584.00, 
2585.00, 
2586.00, 
2587.00, 
2588.00, 
2589.00, 
2590.00, 
2591.00, 
2592.00, 
2593.00, 
2594.00, 
2595.00, 
2596.00, 
2597.00, 
2598.00, 
2599.00, 
2600.00, 
