"2cP3 - RawData"
"Wavelength nm.","T%"
200.00,-0.004
201.00,-0.000
202.00,0.001
203.00,0.004
204.00,-0.000
205.00,0.001
206.00,0.001
207.00,0.001
208.00,0.003
209.00,0.004
210.00,0.000
211.00,0.002
212.00,0.001
213.00,-0.000
214.00,0.001
215.00,0.001
216.00,-0.001
217.00,0.003
218.00,0.001
219.00,0.002
220.00,0.000
221.00,-0.001
222.00,0.003
223.00,0.001
224.00,0.001
225.00,0.002
226.00,-0.000
227.00,0.000
228.00,-0.001
229.00,0.001
230.00,0.000
231.00,0.002
232.00,0.003
233.00,-0.001
234.00,0.001
235.00,0.003
236.00,0.000
237.00,0.001
238.00,0.000
239.00,0.001
240.00,-0.003
241.00,-0.001
242.00,-0.000
243.00,0.002
244.00,-0.001
245.00,0.001
246.00,0.000
247.00,-0.001
248.00,0.001
249.00,-0.000
250.00,0.000
251.00,-0.001
252.00,0.002
253.00,-0.001
254.00,0.002
255.00,-0.000
256.00,0.003
257.00,-0.001
258.00,-0.001
259.00,0.001
260.00,-0.001
261.00,0.000
262.00,0.000
263.00,0.000
264.00,-0.002
265.00,0.000
266.00,0.002
267.00,-0.001
268.00,0.001
269.00,0.000
270.00,0.000
271.00,0.000
272.00,0.002
273.00,0.000
274.00,0.001
275.00,-0.000
276.00,-0.000
277.00,0.001
278.00,0.001
279.00,-0.001
280.00,-0.000
281.00,0.001
282.00,0.001
283.00,0.001
284.00,-0.000
285.00,0.001
286.00,0.002
287.00,0.000
288.00,0.001
289.00,0.000
290.00,0.000
291.00,-0.000
292.00,-0.001
293.00,0.001
294.00,0.001
295.00,0.001
296.00,0.000
297.00,-0.001
298.00,0.002
299.00,0.000
300.00,0.000
301.00,0.004
302.00,0.004
303.00,0.007
304.00,0.009
305.00,0.016
306.00,0.026
307.00,0.039
308.00,0.062
309.00,0.098
310.00,0.136
311.00,0.186
312.00,0.256
313.00,0.345
314.00,0.460
315.00,0.594
316.00,0.751
317.00,0.951
318.00,1.177
319.00,1.464
320.00,1.724
321.00,2.120
322.00,2.516
323.00,2.958
324.00,3.415
325.00,3.889
326.00,4.380
327.00,4.974
328.00,5.550
329.00,6.140
330.00,6.768
331.00,7.383
332.00,8.054
333.00,8.707
334.00,9.363
335.00,9.946
336.00,10.654
337.00,11.364
338.00,11.985
339.00,12.595
340.00,13.196
341.00,13.821
342.00,14.367
343.00,14.949
344.00,15.469
345.00,15.896
346.00,16.410
347.00,16.856
348.00,17.354
349.00,17.678
350.00,18.070
351.00,18.421
352.00,18.721
353.00,19.096
354.00,19.329
355.00,19.670
356.00,19.889
357.00,20.165
358.00,20.360
359.00,20.537
360.00,20.811
361.00,20.920
362.00,21.109
363.00,21.179
364.00,21.428
365.00,21.560
366.00,21.636
367.00,21.710
368.00,21.801
369.00,21.865
370.00,21.940
371.00,22.021
372.00,21.950
373.00,21.958
374.00,21.954
375.00,21.967
376.00,21.915
377.00,21.906
378.00,21.813
379.00,21.832
380.00,21.820
381.00,21.767
382.00,21.754
383.00,21.756
384.00,21.822
385.00,21.843
386.00,21.856
387.00,21.908
388.00,21.939
389.00,21.979
390.00,21.999
391.00,22.030
392.00,22.045
393.00,22.075
394.00,22.090
395.00,22.104
396.00,22.122
397.00,22.086
398.00,22.133
399.00,22.139
400.00,22.129
401.00,22.119
402.00,22.130
403.00,22.103
404.00,22.065
405.00,22.063
406.00,22.056
407.00,22.042
408.00,22.022
409.00,21.971
410.00,21.954
411.00,21.935
412.00,21.901
413.00,21.924
414.00,21.937
415.00,21.934
416.00,21.971
417.00,21.962
418.00,22.011
419.00,22.018
420.00,22.021
421.00,22.101
422.00,22.118
423.00,22.138
424.00,22.152
425.00,22.201
426.00,22.220
427.00,22.275
428.00,22.310
429.00,22.348
430.00,22.399
431.00,22.439
432.00,22.521
433.00,22.464
434.00,22.578
435.00,22.627
436.00,22.655
437.00,22.754
438.00,22.794
439.00,22.864
440.00,22.918
441.00,22.977
442.00,23.061
443.00,23.175
444.00,23.240
445.00,23.287
446.00,23.391
447.00,23.475
448.00,23.569
449.00,23.642
450.00,23.754
451.00,23.857
452.00,23.954
453.00,24.046
454.00,24.133
455.00,24.255
456.00,24.360
457.00,24.450
458.00,24.553
459.00,24.662
460.00,24.802
461.00,24.874
462.00,25.042
463.00,25.129
464.00,25.258
465.00,25.404
466.00,25.504
467.00,25.625
468.00,25.745
469.00,25.850
470.00,25.948
471.00,26.037
472.00,26.152
473.00,26.226
474.00,26.320
475.00,26.459
476.00,26.567
477.00,26.635
478.00,26.790
479.00,26.899
480.00,27.116
481.00,27.214
482.00,27.357
483.00,27.490
484.00,27.651
485.00,27.795
486.00,27.937
487.00,28.071
488.00,28.206
489.00,28.378
490.00,28.523
491.00,28.685
492.00,28.786
493.00,28.973
494.00,29.085
495.00,29.105
496.00,29.264
497.00,29.339
498.00,29.524
499.00,29.653
500.00,29.781
501.00,29.887
502.00,30.023
503.00,30.151
504.00,30.239
505.00,30.373
506.00,30.510
507.00,30.642
508.00,30.724
509.00,30.876
510.00,30.970
511.00,31.089
512.00,31.169
513.00,31.330
514.00,31.503
515.00,31.514
516.00,31.686
517.00,31.836
518.00,31.845
519.00,31.954
520.00,32.023
521.00,32.167
522.00,32.324
523.00,32.437
524.00,32.520
525.00,32.653
526.00,32.753
527.00,32.857
528.00,32.910
529.00,33.020
530.00,33.131
531.00,33.180
532.00,33.382
533.00,33.447
534.00,33.586
535.00,33.668
536.00,33.762
537.00,33.815
538.00,33.968
539.00,33.991
540.00,34.055
541.00,34.163
542.00,34.210
543.00,34.289
544.00,34.363
545.00,34.443
546.00,34.515
547.00,34.602
548.00,34.685
549.00,34.762
550.00,34.798
551.00,34.885
552.00,35.009
553.00,34.980
554.00,35.180
555.00,35.198
556.00,35.250
557.00,35.416
558.00,35.476
559.00,35.505
560.00,35.623
561.00,35.645
562.00,35.798
563.00,35.754
564.00,35.840
565.00,35.910
566.00,35.885
567.00,35.973
568.00,36.003
569.00,36.059
570.00,36.090
571.00,36.140
572.00,36.196
573.00,36.233
574.00,36.292
575.00,36.312
576.00,36.376
577.00,36.342
578.00,36.494
579.00,36.597
580.00,36.655
581.00,36.794
582.00,36.859
583.00,36.942
584.00,37.042
585.00,37.094
586.00,37.103
587.00,37.198
588.00,37.277
589.00,37.313
590.00,37.378
591.00,37.382
592.00,37.412
593.00,37.438
594.00,37.450
595.00,37.520
596.00,37.605
597.00,37.638
598.00,37.731
599.00,37.780
600.00,37.762
601.00,37.852
602.00,37.915
603.00,38.005
604.00,37.972
605.00,37.885
606.00,38.072
607.00,38.166
608.00,38.325
609.00,38.344
610.00,38.320
611.00,38.415
612.00,38.467
613.00,38.491
614.00,38.515
615.00,38.580
616.00,38.700
617.00,38.690
618.00,38.778
619.00,38.872
620.00,38.857
621.00,38.901
622.00,38.999
623.00,39.078
624.00,39.097
625.00,39.221
626.00,39.250
627.00,39.343
628.00,39.348
629.00,39.431
630.00,39.512
631.00,39.532
632.00,39.652
633.00,39.707
634.00,39.685
635.00,39.881
636.00,39.951
637.00,40.065
638.00,40.081
639.00,40.159
640.00,40.214
641.00,40.248
642.00,40.368
643.00,40.349
644.00,40.486
645.00,40.573
646.00,40.683
647.00,40.785
648.00,40.699
649.00,40.793
650.00,40.934
651.00,41.067
652.00,41.128
653.00,41.191
654.00,41.293
655.00,41.382
656.00,41.441
657.00,41.583
658.00,41.709
659.00,41.862
660.00,41.939
661.00,41.931
662.00,42.119
663.00,42.094
664.00,42.222
665.00,42.307
666.00,42.371
667.00,42.604
668.00,42.573
669.00,42.691
670.00,42.795
671.00,42.750
672.00,42.922
673.00,42.979
674.00,42.998
675.00,43.154
676.00,43.271
677.00,43.221
678.00,43.219
679.00,43.557
680.00,43.536
681.00,43.609
682.00,43.676
683.00,43.834
684.00,44.023
685.00,44.021
686.00,44.019
687.00,44.162
688.00,44.265
689.00,44.263
690.00,44.270
691.00,44.516
692.00,44.487
693.00,44.558
694.00,44.594
695.00,44.761
696.00,44.831
697.00,44.914
698.00,45.062
699.00,45.275
700.00,45.248
701.00,45.270
702.00,45.409
703.00,45.541
704.00,45.521
705.00,45.577
706.00,45.833
707.00,45.857
708.00,45.785
709.00,45.897
710.00,46.162
711.00,45.915
712.00,46.070
713.00,46.162
714.00,46.186
715.00,46.352
716.00,46.498
717.00,46.492
718.00,46.508
719.00,46.518
720.00,46.652
721.00,50.771
722.00,50.755
723.00,50.842
724.00,50.739
725.00,50.709
726.00,50.828
727.00,50.821
728.00,50.832
729.00,50.954
730.00,50.870
731.00,50.888
732.00,50.972
733.00,51.021
734.00,50.988
735.00,51.061
736.00,51.162
737.00,51.030
738.00,51.238
739.00,51.195
740.00,51.256
741.00,51.284
742.00,51.305
743.00,51.360
744.00,51.234
745.00,51.406
746.00,51.347
747.00,51.322
748.00,51.364
749.00,51.327
750.00,51.391
751.00,51.392
752.00,51.337
753.00,51.302
754.00,51.369
755.00,51.346
756.00,51.366
757.00,51.383
758.00,51.383
759.00,51.496
760.00,51.340
761.00,51.536
762.00,51.405
763.00,51.520
764.00,51.514
765.00,51.504
766.00,51.504
767.00,51.519
768.00,51.605
769.00,51.505
770.00,51.533
771.00,51.562
772.00,51.573
773.00,51.561
774.00,51.610
775.00,51.689
776.00,51.687
777.00,51.611
778.00,51.716
779.00,51.699
780.00,51.606
781.00,51.670
782.00,51.600
783.00,51.620
784.00,51.592
785.00,51.650
786.00,51.610
787.00,51.627
788.00,51.558
789.00,51.614
790.00,51.604
791.00,51.611
792.00,51.619
793.00,51.566
794.00,51.631
795.00,51.526
796.00,51.577
797.00,51.550
798.00,51.486
799.00,51.515
800.00,51.494
801.00,51.519
802.00,51.475
803.00,51.574
804.00,51.505
805.00,51.435
806.00,51.467
807.00,51.389
808.00,51.463
809.00,51.341
810.00,51.334
811.00,51.390
812.00,51.406
813.00,51.365
814.00,51.273
815.00,51.397
816.00,51.356
817.00,51.244
818.00,51.225
819.00,51.294
820.00,51.287
821.00,51.223
822.00,51.290
823.00,51.109
824.00,51.240
825.00,51.140
826.00,51.228
827.00,51.317
828.00,51.197
829.00,51.252
830.00,51.113
831.00,53.800
832.00,53.759
833.00,53.727
834.00,53.714
835.00,53.723
836.00,53.724
837.00,53.689
838.00,53.669
839.00,53.686
840.00,53.599
841.00,53.607
842.00,53.593
843.00,53.558
844.00,53.541
845.00,53.529
846.00,53.559
847.00,53.484
848.00,53.479
849.00,53.438
850.00,53.401
851.00,53.329
852.00,53.304
853.00,53.314
854.00,53.265
855.00,53.279
856.00,53.230
857.00,53.203
858.00,53.205
859.00,53.192
860.00,53.182
861.00,53.163
862.00,53.099
863.00,53.109
864.00,53.057
865.00,53.078
866.00,53.053
867.00,53.049
868.00,53.038
869.00,53.022
870.00,53.013
871.00,53.007
872.00,53.004
873.00,52.982
874.00,52.979
875.00,52.965
876.00,52.965
877.00,52.942
878.00,52.932
879.00,52.898
880.00,52.872
881.00,52.866
882.00,52.838
883.00,52.817
884.00,52.768
885.00,52.760
886.00,52.772
887.00,52.747
888.00,52.731
889.00,52.721
890.00,52.730
891.00,52.720
892.00,52.645
893.00,52.788
894.00,52.655
895.00,52.620
896.00,52.602
897.00,52.582
898.00,52.542
899.00,52.567
900.00,52.542
901.00,52.555
902.00,52.530
903.00,52.497
904.00,52.502
905.00,52.491
906.00,52.448
907.00,52.526
908.00,52.418
909.00,52.388
910.00,52.368
911.00,52.357
912.00,52.362
913.00,52.312
914.00,52.301
915.00,52.285
916.00,52.257
917.00,52.205
918.00,52.159
919.00,52.280
920.00,52.182
921.00,52.134
922.00,52.141
923.00,52.113
924.00,52.111
925.00,52.084
926.00,52.097
927.00,52.053
928.00,52.040
929.00,52.013
930.00,51.993
931.00,52.009
932.00,51.931
933.00,51.921
934.00,52.095
935.00,51.904
936.00,51.878
937.00,51.864
938.00,51.832
939.00,51.858
940.00,51.810
941.00,51.800
942.00,51.790
943.00,51.754
944.00,51.728
945.00,51.734
946.00,51.721
947.00,51.683
948.00,51.665
949.00,51.631
950.00,51.614
951.00,51.595
952.00,51.557
953.00,51.547
954.00,51.510
955.00,51.480
956.00,51.472
957.00,51.445
958.00,51.449
959.00,51.404
960.00,51.397
961.00,51.384
962.00,51.380
963.00,51.331
964.00,51.329
965.00,51.299
966.00,51.301
967.00,51.311
968.00,51.271
969.00,51.308
970.00,51.290
971.00,51.271
972.00,51.265
973.00,51.293
974.00,51.302
975.00,51.300
976.00,51.280
977.00,51.286
978.00,51.390
979.00,51.349
980.00,51.282
981.00,51.293
982.00,51.253
983.00,51.273
984.00,51.271
985.00,51.267
986.00,51.223
987.00,51.230
988.00,51.195
989.00,51.185
990.00,51.171
991.00,51.155
992.00,51.173
993.00,51.138
994.00,51.132
995.00,51.126
996.00,51.108
997.00,51.106
998.00,51.071
999.00,51.079
1000.00,51.035
1001.00,51.025
1002.00,51.021
1003.00,51.026
1004.00,50.990
1005.00,50.974
1006.00,51.005
1007.00,50.970
1008.00,50.959
1009.00,50.938
1010.00,50.936
1011.00,50.929
1012.00,50.874
1013.00,50.894
1014.00,50.864
1015.00,50.864
1016.00,50.830
1017.00,50.827
1018.00,50.805
1019.00,50.780
1020.00,50.782
1021.00,50.764
1022.00,50.757
1023.00,50.712
1024.00,50.726
1025.00,50.716
1026.00,50.686
1027.00,50.672
1028.00,50.662
1029.00,50.643
1030.00,50.622
1031.00,50.621
1032.00,50.581
1033.00,50.587
1034.00,50.529
1035.00,50.522
1036.00,50.509
1037.00,50.469
1038.00,50.467
1039.00,50.428
1040.00,50.424
1041.00,50.388
1042.00,50.399
1043.00,50.351
1044.00,50.389
1045.00,50.347
1046.00,50.349
1047.00,50.364
1048.00,50.364
1049.00,50.392
1050.00,50.397
1051.00,50.421
1052.00,50.444
1053.00,50.450
1054.00,50.438
1055.00,50.455
1056.00,50.448
1057.00,50.465
1058.00,50.453
1059.00,50.424
1060.00,50.443
1061.00,50.437
1062.00,50.417
1063.00,50.443
1064.00,50.421
1065.00,50.403
1066.00,50.404
1067.00,50.386
1068.00,50.405
1069.00,50.367
1070.00,50.346
1071.00,50.342
1072.00,50.357
1073.00,50.324
1074.00,50.335
1075.00,50.320
1076.00,50.315
1077.00,50.314
1078.00,50.282
1079.00,50.276
1080.00,50.287
1081.00,50.252
1082.00,50.261
1083.00,50.258
1084.00,50.251
1085.00,50.249
1086.00,50.231
1087.00,50.219
1088.00,50.201
1089.00,50.186
1090.00,50.189
1091.00,50.184
1092.00,50.163
1093.00,50.144
1094.00,50.141
1095.00,50.139
1096.00,50.138
1097.00,50.121
1098.00,50.116
1099.00,50.104
1100.00,50.086
1101.00,50.077
1102.00,50.068
1103.00,50.061
1104.00,50.058
1105.00,50.042
1106.00,50.023
1107.00,50.023
1108.00,50.011
1109.00,50.000
1110.00,50.010
1111.00,49.986
1112.00,49.981
1113.00,49.968
1114.00,49.963
1115.00,49.973
1116.00,49.972
1117.00,49.972
1118.00,49.952
1119.00,49.927
1120.00,49.923
1121.00,49.917
1122.00,49.905
1123.00,49.906
1124.00,49.916
1125.00,49.891
1126.00,49.891
1127.00,49.890
1128.00,49.868
1129.00,49.854
1130.00,49.843
1131.00,49.837
1132.00,49.829
1133.00,49.816
1134.00,49.830
1135.00,49.823
1136.00,49.800
1137.00,49.801
1138.00,49.805
1139.00,49.802
1140.00,49.798
1141.00,49.775
1142.00,49.772
1143.00,49.792
1144.00,49.744
1145.00,49.752
1146.00,49.749
1147.00,49.741
1148.00,49.744
1149.00,49.746
1150.00,49.729
1151.00,49.724
1152.00,49.702
1153.00,49.698
1154.00,49.695
1155.00,49.698
1156.00,49.687
1157.00,49.699
1158.00,49.678
1159.00,49.678
1160.00,49.678
1161.00,49.687
1162.00,49.688
1163.00,49.684
1164.00,49.675
1165.00,49.668
1166.00,49.672
1167.00,49.670
1168.00,49.692
1169.00,49.670
1170.00,49.676
1171.00,49.664
1172.00,49.666
1173.00,49.671
1174.00,49.668
1175.00,49.674
1176.00,49.671
1177.00,49.655
1178.00,49.661
1179.00,49.661
1180.00,49.634
1181.00,49.659
1182.00,49.654
1183.00,49.636
1184.00,49.630
1185.00,49.642
1186.00,49.635
1187.00,49.651
1188.00,49.616
1189.00,49.624
1190.00,49.621
1191.00,49.612
1192.00,49.645
1193.00,49.635
1194.00,49.623
1195.00,49.616
1196.00,49.636
1197.00,49.629
1198.00,49.623
1199.00,49.603
1200.00,49.618
1201.00,49.630
1202.00,49.598
1203.00,49.603
1204.00,49.601
1205.00,49.609
1206.00,49.613
1207.00,49.605
1208.00,49.594
1209.00,49.591
1210.00,49.592
1211.00,49.595
1212.00,49.616
1213.00,49.566
1214.00,49.600
1215.00,49.598
1216.00,49.590
1217.00,49.596
1218.00,49.574
1219.00,49.586
1220.00,49.588
1221.00,49.582
1222.00,49.576
1223.00,49.592
1224.00,49.572
1225.00,49.570
1226.00,49.578
1227.00,49.567
1228.00,49.588
1229.00,49.577
1230.00,49.612
1231.00,49.612
1232.00,49.605
1233.00,49.614
1234.00,49.633
1235.00,49.609
1236.00,49.614
1237.00,49.612
1238.00,49.601
1239.00,49.628
1240.00,49.608
1241.00,49.619
1242.00,49.617
1243.00,49.627
1244.00,49.619
1245.00,49.649
1246.00,49.639
1247.00,49.639
1248.00,49.649
1249.00,49.648
1250.00,49.651
1251.00,49.641
1252.00,49.660
1253.00,49.657
1254.00,49.672
1255.00,49.665
1256.00,49.648
1257.00,49.615
1258.00,49.678
1259.00,49.669
1260.00,49.684
1261.00,49.686
1262.00,49.671
1263.00,49.681
1264.00,49.692
1265.00,49.679
1266.00,49.692
1267.00,49.707
1268.00,49.709
1269.00,49.711
1270.00,49.709
1271.00,49.709
1272.00,49.722
1273.00,49.723
1274.00,49.724
1275.00,49.724
1276.00,49.717
1277.00,49.730
1278.00,49.745
1279.00,49.729
1280.00,49.746
1281.00,49.759
1282.00,49.758
1283.00,49.755
1284.00,49.775
1285.00,49.749
1286.00,49.772
1287.00,49.752
1288.00,49.778
1289.00,49.779
1290.00,49.779
1291.00,49.791
1292.00,49.795
1293.00,49.783
1294.00,49.816
1295.00,49.812
1296.00,49.807
1297.00,49.822
1298.00,49.838
1299.00,49.835
1300.00,49.847
1301.00,49.834
1302.00,49.842
1303.00,49.858
1304.00,49.826
1305.00,49.860
1306.00,49.862
1307.00,49.864
1308.00,49.876
1309.00,49.866
1310.00,49.875
1311.00,49.874
1312.00,49.862
1313.00,49.877
1314.00,49.889
1315.00,49.885
1316.00,49.896
1317.00,49.918
1318.00,49.904
1319.00,49.927
1320.00,49.929
1321.00,50.086
1322.00,50.101
1323.00,50.077
1324.00,50.096
1325.00,50.069
1326.00,50.102
1327.00,50.078
1328.00,50.076
1329.00,50.083
1330.00,50.102
1331.00,50.082
1332.00,50.107
1333.00,50.105
1334.00,50.132
1335.00,50.171
1336.00,50.172
1337.00,50.203
1338.00,50.275
1339.00,50.302
1340.00,50.342
1341.00,50.411
1342.00,50.464
1343.00,50.524
1344.00,50.571
1345.00,50.614
1346.00,50.677
1347.00,50.682
1348.00,50.707
1349.00,50.758
1350.00,50.765
1351.00,50.778
1352.00,50.784
1353.00,50.812
1354.00,50.801
1355.00,50.754
1356.00,50.792
1357.00,50.806
1358.00,50.816
1359.00,50.820
1360.00,50.863
1361.00,50.812
1362.00,50.768
1363.00,50.905
1364.00,50.813
1365.00,50.819
1366.00,50.884
1367.00,50.813
1368.00,50.799
1369.00,50.817
1370.00,50.803
1371.00,50.827
1372.00,50.808
1373.00,50.797
1374.00,50.841
1375.00,50.787
1376.00,50.811
1377.00,50.792
1378.00,50.834
1379.00,50.787
1380.00,50.803
1381.00,50.788
1382.00,50.762
1383.00,50.786
1384.00,50.764
1385.00,50.790
1386.00,50.794
1387.00,50.743
1388.00,50.741
1389.00,50.756
1390.00,50.816
1391.00,50.753
1392.00,50.765
1393.00,50.829
1394.00,50.755
1395.00,50.757
1396.00,50.727
1397.00,50.759
1398.00,50.798
1399.00,50.775
1400.00,50.696
1401.00,50.773
1402.00,50.853
1403.00,50.809
1404.00,50.793
1405.00,50.819
1406.00,50.825
1407.00,50.851
1408.00,50.825
1409.00,50.824
1410.00,50.861
1411.00,50.862
1412.00,50.909
1413.00,50.866
1414.00,50.868
1415.00,50.923
1416.00,50.921
1417.00,50.927
1418.00,50.937
1419.00,50.912
1420.00,50.945
1421.00,50.983
1422.00,50.971
1423.00,50.978
1424.00,50.995
1425.00,50.993
1426.00,51.020
1427.00,51.019
1428.00,51.045
1429.00,51.080
1430.00,51.071
1431.00,51.112
1432.00,51.099
1433.00,51.114
1434.00,51.118
1435.00,51.154
1436.00,51.146
1437.00,51.147
1438.00,51.161
1439.00,51.198
1440.00,51.212
1441.00,51.213
1442.00,51.240
1443.00,51.262
1444.00,51.273
1445.00,51.292
1446.00,51.293
1447.00,51.322
1448.00,51.344
1449.00,51.350
1450.00,51.351
1451.00,51.374
1452.00,51.374
1453.00,51.404
1454.00,51.409
1455.00,51.426
1456.00,51.462
1457.00,51.443
1458.00,51.464
1459.00,51.498
1460.00,51.508
1461.00,51.518
1462.00,51.545
1463.00,51.546
1464.00,51.546
1465.00,51.560
1466.00,51.559
1467.00,51.594
1468.00,51.626
1469.00,51.606
1470.00,51.636
1471.00,51.641
1472.00,51.659
1473.00,51.675
1474.00,51.688
1475.00,51.701
1476.00,51.730
1477.00,51.718
1478.00,51.745
1479.00,51.752
1480.00,51.748
1481.00,51.769
1482.00,51.797
1483.00,51.805
1484.00,51.826
1485.00,51.823
1486.00,51.828
1487.00,51.857
1488.00,51.857
1489.00,51.877
1490.00,51.886
1491.00,51.888
1492.00,51.919
1493.00,51.899
1494.00,51.924
1495.00,51.942
1496.00,51.931
1497.00,51.951
1498.00,51.958
1499.00,51.972
1500.00,52.001
1501.00, 
1502.00, 
1503.00, 
1504.00, 
1505.00, 
1506.00, 
1507.00, 
1508.00, 
1509.00, 
1510.00, 
1511.00, 
1512.00, 
1513.00, 
1514.00, 
1515.00, 
1516.00, 
1517.00, 
1518.00, 
1519.00, 
1520.00, 
1521.00, 
1522.00, 
1523.00, 
1524.00, 
1525.00, 
1526.00, 
1527.00, 
1528.00, 
1529.00, 
1530.00, 
1531.00, 
1532.00, 
1533.00, 
1534.00, 
1535.00, 
1536.00, 
1537.00, 
1538.00, 
1539.00, 
1540.00, 
1541.00, 
1542.00, 
1543.00, 
1544.00, 
1545.00, 
1546.00, 
1547.00, 
1548.00, 
1549.00, 
1550.00, 
1551.00, 
1552.00, 
1553.00, 
1554.00, 
1555.00, 
1556.00, 
1557.00, 
1558.00, 
1559.00, 
1560.00, 
1561.00, 
1562.00, 
1563.00, 
1564.00, 
1565.00, 
1566.00, 
1567.00, 
1568.00, 
1569.00, 
1570.00, 
1571.00, 
1572.00, 
1573.00, 
1574.00, 
1575.00, 
1576.00, 
1577.00, 
1578.00, 
1579.00, 
1580.00, 
1581.00, 
1582.00, 
1583.00, 
1584.00, 
1585.00, 
1586.00, 
1587.00, 
1588.00, 
1589.00, 
1590.00, 
1591.00, 
1592.00, 
1593.00, 
1594.00, 
1595.00, 
1596.00, 
1597.00, 
1598.00, 
1599.00, 
1600.00, 
1601.00, 
1602.00, 
1603.00, 
1604.00, 
1605.00, 
1606.00, 
1607.00, 
1608.00, 
1609.00, 
1610.00, 
1611.00, 
1612.00, 
1613.00, 
1614.00, 
1615.00, 
1616.00, 
1617.00, 
1618.00, 
1619.00, 
1620.00, 
1621.00, 
1622.00, 
1623.00, 
1624.00, 
1625.00, 
1626.00, 
1627.00, 
1628.00, 
1629.00, 
1630.00, 
1631.00, 
1632.00, 
1633.00, 
1634.00, 
1635.00, 
1636.00, 
1637.00, 
1638.00, 
1639.00, 
1640.00, 
1641.00, 
1642.00, 
1643.00, 
1644.00, 
1645.00, 
1646.00, 
1647.00, 
1648.00, 
1649.00, 
1650.00, 
1651.00, 
1652.00, 
1653.00, 
1654.00, 
1655.00, 
1656.00, 
1657.00, 
1658.00, 
1659.00, 
1660.00, 
1661.00, 
1662.00, 
1663.00, 
1664.00, 
1665.00, 
1666.00, 
1667.00, 
1668.00, 
1669.00, 
1670.00, 
1671.00, 
1672.00, 
1673.00, 
1674.00, 
1675.00, 
1676.00, 
1677.00, 
1678.00, 
1679.00, 
1680.00, 
1681.00, 
1682.00, 
1683.00, 
1684.00, 
1685.00, 
1686.00, 
1687.00, 
1688.00, 
1689.00, 
1690.00, 
1691.00, 
1692.00, 
1693.00, 
1694.00, 
1695.00, 
1696.00, 
1697.00, 
1698.00, 
1699.00, 
1700.00, 
1701.00, 
1702.00, 
1703.00, 
1704.00, 
1705.00, 
1706.00, 
1707.00, 
1708.00, 
1709.00, 
1710.00, 
1711.00, 
1712.00, 
1713.00, 
1714.00, 
1715.00, 
1716.00, 
1717.00, 
1718.00, 
1719.00, 
1720.00, 
1721.00, 
1722.00, 
1723.00, 
1724.00, 
1725.00, 
1726.00, 
1727.00, 
1728.00, 
1729.00, 
1730.00, 
1731.00, 
1732.00, 
1733.00, 
1734.00, 
1735.00, 
1736.00, 
1737.00, 
1738.00, 
1739.00, 
1740.00, 
1741.00, 
1742.00, 
1743.00, 
1744.00, 
1745.00, 
1746.00, 
1747.00, 
1748.00, 
1749.00, 
1750.00, 
1751.00, 
1752.00, 
1753.00, 
1754.00, 
1755.00, 
1756.00, 
1757.00, 
1758.00, 
1759.00, 
1760.00, 
1761.00, 
1762.00, 
1763.00, 
1764.00, 
1765.00, 
1766.00, 
1767.00, 
1768.00, 
1769.00, 
1770.00, 
1771.00, 
1772.00, 
1773.00, 
1774.00, 
1775.00, 
1776.00, 
1777.00, 
1778.00, 
1779.00, 
1780.00, 
1781.00, 
1782.00, 
1783.00, 
1784.00, 
1785.00, 
1786.00, 
1787.00, 
1788.00, 
1789.00, 
1790.00, 
1791.00, 
1792.00, 
1793.00, 
1794.00, 
1795.00, 
1796.00, 
1797.00, 
1798.00, 
1799.00, 
1800.00, 
1801.00, 
1802.00, 
1803.00, 
1804.00, 
1805.00, 
1806.00, 
1807.00, 
1808.00, 
1809.00, 
1810.00, 
1811.00, 
1812.00, 
1813.00, 
1814.00, 
1815.00, 
1816.00, 
1817.00, 
1818.00, 
1819.00, 
1820.00, 
1821.00, 
1822.00, 
1823.00, 
1824.00, 
1825.00, 
1826.00, 
1827.00, 
1828.00, 
1829.00, 
1830.00, 
1831.00, 
1832.00, 
1833.00, 
1834.00, 
1835.00, 
1836.00, 
1837.00, 
1838.00, 
1839.00, 
1840.00, 
1841.00, 
1842.00, 
1843.00, 
1844.00, 
1845.00, 
1846.00, 
1847.00, 
1848.00, 
1849.00, 
1850.00, 
1851.00, 
1852.00, 
1853.00, 
1854.00, 
1855.00, 
1856.00, 
1857.00, 
1858.00, 
1859.00, 
1860.00, 
1861.00, 
1862.00, 
1863.00, 
1864.00, 
1865.00, 
1866.00, 
1867.00, 
1868.00, 
1869.00, 
1870.00, 
1871.00, 
1872.00, 
1873.00, 
1874.00, 
1875.00, 
1876.00, 
1877.00, 
1878.00, 
1879.00, 
1880.00, 
1881.00, 
1882.00, 
1883.00, 
1884.00, 
1885.00, 
1886.00, 
1887.00, 
1888.00, 
1889.00, 
1890.00, 
1891.00, 
1892.00, 
1893.00, 
1894.00, 
1895.00, 
1896.00, 
1897.00, 
1898.00, 
1899.00, 
1900.00, 
1901.00, 
1902.00, 
1903.00, 
1904.00, 
1905.00, 
1906.00, 
1907.00, 
1908.00, 
1909.00, 
1910.00, 
1911.00, 
1912.00, 
1913.00, 
1914.00, 
1915.00, 
1916.00, 
1917.00, 
1918.00, 
1919.00, 
1920.00, 
1921.00, 
1922.00, 
1923.00, 
1924.00, 
1925.00, 
1926.00, 
1927.00, 
1928.00, 
1929.00, 
1930.00, 
1931.00, 
1932.00, 
1933.00, 
1934.00, 
1935.00, 
1936.00, 
1937.00, 
1938.00, 
1939.00, 
1940.00, 
1941.00, 
1942.00, 
1943.00, 
1944.00, 
1945.00, 
1946.00, 
1947.00, 
1948.00, 
1949.00, 
1950.00, 
1951.00, 
1952.00, 
1953.00, 
1954.00, 
1955.00, 
1956.00, 
1957.00, 
1958.00, 
1959.00, 
1960.00, 
1961.00, 
1962.00, 
1963.00, 
1964.00, 
1965.00, 
1966.00, 
1967.00, 
1968.00, 
1969.00, 
1970.00, 
1971.00, 
1972.00, 
1973.00, 
1974.00, 
1975.00, 
1976.00, 
1977.00, 
1978.00, 
1979.00, 
1980.00, 
1981.00, 
1982.00, 
1983.00, 
1984.00, 
1985.00, 
1986.00, 
1987.00, 
1988.00, 
1989.00, 
1990.00, 
1991.00, 
1992.00, 
1993.00, 
1994.00, 
1995.00, 
1996.00, 
1997.00, 
1998.00, 
1999.00, 
2000.00, 
2001.00, 
2002.00, 
2003.00, 
2004.00, 
2005.00, 
2006.00, 
2007.00, 
2008.00, 
2009.00, 
2010.00, 
2011.00, 
2012.00, 
2013.00, 
2014.00, 
2015.00, 
2016.00, 
2017.00, 
2018.00, 
2019.00, 
2020.00, 
2021.00, 
2022.00, 
2023.00, 
2024.00, 
2025.00, 
2026.00, 
2027.00, 
2028.00, 
2029.00, 
2030.00, 
2031.00, 
2032.00, 
2033.00, 
2034.00, 
2035.00, 
2036.00, 
2037.00, 
2038.00, 
2039.00, 
2040.00, 
2041.00, 
2042.00, 
2043.00, 
2044.00, 
2045.00, 
2046.00, 
2047.00, 
2048.00, 
2049.00, 
2050.00, 
2051.00, 
2052.00, 
2053.00, 
2054.00, 
2055.00, 
2056.00, 
2057.00, 
2058.00, 
2059.00, 
2060.00, 
2061.00, 
2062.00, 
2063.00, 
2064.00, 
2065.00, 
2066.00, 
2067.00, 
2068.00, 
2069.00, 
2070.00, 
2071.00, 
2072.00, 
2073.00, 
2074.00, 
2075.00, 
2076.00, 
2077.00, 
2078.00, 
2079.00, 
2080.00, 
2081.00, 
2082.00, 
2083.00, 
2084.00, 
2085.00, 
2086.00, 
2087.00, 
2088.00, 
2089.00, 
2090.00, 
2091.00, 
2092.00, 
2093.00, 
2094.00, 
2095.00, 
2096.00, 
2097.00, 
2098.00, 
2099.00, 
2100.00, 
2101.00, 
2102.00, 
2103.00, 
2104.00, 
2105.00, 
2106.00, 
2107.00, 
2108.00, 
2109.00, 
2110.00, 
2111.00, 
2112.00, 
2113.00, 
2114.00, 
2115.00, 
2116.00, 
2117.00, 
2118.00, 
2119.00, 
2120.00, 
2121.00, 
2122.00, 
2123.00, 
2124.00, 
2125.00, 
2126.00, 
2127.00, 
2128.00, 
2129.00, 
2130.00, 
2131.00, 
2132.00, 
2133.00, 
2134.00, 
2135.00, 
2136.00, 
2137.00, 
2138.00, 
2139.00, 
2140.00, 
2141.00, 
2142.00, 
2143.00, 
2144.00, 
2145.00, 
2146.00, 
2147.00, 
2148.00, 
2149.00, 
2150.00, 
2151.00, 
2152.00, 
2153.00, 
2154.00, 
2155.00, 
2156.00, 
2157.00, 
2158.00, 
2159.00, 
2160.00, 
2161.00, 
2162.00, 
2163.00, 
2164.00, 
2165.00, 
2166.00, 
2167.00, 
2168.00, 
2169.00, 
2170.00, 
2171.00, 
2172.00, 
2173.00, 
2174.00, 
2175.00, 
2176.00, 
2177.00, 
2178.00, 
2179.00, 
2180.00, 
2181.00, 
2182.00, 
2183.00, 
2184.00, 
2185.00, 
2186.00, 
2187.00, 
2188.00, 
2189.00, 
2190.00, 
2191.00, 
2192.00, 
2193.00, 
2194.00, 
2195.00, 
2196.00, 
2197.00, 
2198.00, 
2199.00, 
2200.00, 
2201.00, 
2202.00, 
2203.00, 
2204.00, 
2205.00, 
2206.00, 
2207.00, 
2208.00, 
2209.00, 
2210.00, 
2211.00, 
2212.00, 
2213.00, 
2214.00, 
2215.00, 
2216.00, 
2217.00, 
2218.00, 
2219.00, 
2220.00, 
2221.00, 
2222.00, 
2223.00, 
2224.00, 
2225.00, 
2226.00, 
2227.00, 
2228.00, 
2229.00, 
2230.00, 
2231.00, 
2232.00, 
2233.00, 
2234.00, 
2235.00, 
2236.00, 
2237.00, 
2238.00, 
2239.00, 
2240.00, 
2241.00, 
2242.00, 
2243.00, 
2244.00, 
2245.00, 
2246.00, 
2247.00, 
2248.00, 
2249.00, 
2250.00, 
2251.00, 
2252.00, 
2253.00, 
2254.00, 
2255.00, 
2256.00, 
2257.00, 
2258.00, 
2259.00, 
2260.00, 
2261.00, 
2262.00, 
2263.00, 
2264.00, 
2265.00, 
2266.00, 
2267.00, 
2268.00, 
2269.00, 
2270.00, 
2271.00, 
2272.00, 
2273.00, 
2274.00, 
2275.00, 
2276.00, 
2277.00, 
2278.00, 
2279.00, 
2280.00, 
2281.00, 
2282.00, 
2283.00, 
2284.00, 
2285.00, 
2286.00, 
2287.00, 
2288.00, 
2289.00, 
2290.00, 
2291.00, 
2292.00, 
2293.00, 
2294.00, 
2295.00, 
2296.00, 
2297.00, 
2298.00, 
2299.00, 
2300.00, 
2301.00, 
2302.00, 
2303.00, 
2304.00, 
2305.00, 
2306.00, 
2307.00, 
2308.00, 
2309.00, 
2310.00, 
2311.00, 
2312.00, 
2313.00, 
2314.00, 
2315.00, 
2316.00, 
2317.00, 
2318.00, 
2319.00, 
2320.00, 
2321.00, 
2322.00, 
2323.00, 
2324.00, 
2325.00, 
2326.00, 
2327.00, 
2328.00, 
2329.00, 
2330.00, 
2331.00, 
2332.00, 
2333.00, 
2334.00, 
2335.00, 
2336.00, 
2337.00, 
2338.00, 
2339.00, 
2340.00, 
2341.00, 
2342.00, 
2343.00, 
2344.00, 
2345.00, 
2346.00, 
2347.00, 
2348.00, 
2349.00, 
2350.00, 
2351.00, 
2352.00, 
2353.00, 
2354.00, 
2355.00, 
2356.00, 
2357.00, 
2358.00, 
2359.00, 
2360.00, 
2361.00, 
2362.00, 
2363.00, 
2364.00, 
2365.00, 
2366.00, 
2367.00, 
2368.00, 
2369.00, 
2370.00, 
2371.00, 
2372.00, 
2373.00, 
2374.00, 
2375.00, 
2376.00, 
2377.00, 
2378.00, 
2379.00, 
2380.00, 
2381.00, 
2382.00, 
2383.00, 
2384.00, 
2385.00, 
2386.00, 
2387.00, 
2388.00, 
2389.00, 
2390.00, 
2391.00, 
2392.00, 
2393.00, 
2394.00, 
2395.00, 
2396.00, 
2397.00, 
2398.00, 
2399.00, 
2400.00, 
2401.00, 
2402.00, 
2403.00, 
2404.00, 
2405.00, 
2406.00, 
2407.00, 
2408.00, 
2409.00, 
2410.00, 
2411.00, 
2412.00, 
2413.00, 
2414.00, 
2415.00, 
2416.00, 
2417.00, 
2418.00, 
2419.00, 
2420.00, 
2421.00, 
2422.00, 
2423.00, 
2424.00, 
2425.00, 
2426.00, 
2427.00, 
2428.00, 
2429.00, 
2430.00, 
2431.00, 
2432.00, 
2433.00, 
2434.00, 
2435.00, 
2436.00, 
2437.00, 
2438.00, 
2439.00, 
2440.00, 
2441.00, 
2442.00, 
2443.00, 
2444.00, 
2445.00, 
2446.00, 
2447.00, 
2448.00, 
2449.00, 
2450.00, 
2451.00, 
2452.00, 
2453.00, 
2454.00, 
2455.00, 
2456.00, 
2457.00, 
2458.00, 
2459.00, 
2460.00, 
2461.00, 
2462.00, 
2463.00, 
2464.00, 
2465.00, 
2466.00, 
2467.00, 
2468.00, 
2469.00, 
2470.00, 
2471.00, 
2472.00, 
2473.00, 
2474.00, 
2475.00, 
2476.00, 
2477.00, 
2478.00, 
2479.00, 
2480.00, 
2481.00, 
2482.00, 
2483.00, 
2484.00, 
2485.00, 
2486.00, 
2487.00, 
2488.00, 
2489.00, 
2490.00, 
2491.00, 
2492.00, 
2493.00, 
2494.00, 
2495.00, 
2496.00, 
2497.00, 
2498.00, 
2499.00, 
2500.00, 
2501.00, 
2502.00, 
2503.00, 
2504.00, 
2505.00, 
2506.00, 
2507.00, 
2508.00, 
2509.00, 
2510.00, 
2511.00, 
2512.00, 
2513.00, 
2514.00, 
2515.00, 
2516.00, 
2517.00, 
2518.00, 
2519.00, 
2520.00, 
2521.00, 
2522.00, 
2523.00, 
2524.00, 
2525.00, 
2526.00, 
2527.00, 
2528.00, 
2529.00, 
2530.00, 
2531.00, 
2532.00, 
2533.00, 
2534.00, 
2535.00, 
2536.00, 
2537.00, 
2538.00, 
2539.00, 
2540.00, 
2541.00, 
2542.00, 
2543.00, 
2544.00, 
2545.00, 
2546.00, 
2547.00, 
2548.00, 
2549.00, 
2550.00, 
2551.00, 
2552.00, 
2553.00, 
2554.00, 
2555.00, 
2556.00, 
2557.00, 
2558.00, 
2559.00, 
2560.00, 
2561.00, 
2562.00, 
2563.00, 
2564.00, 
2565.00, 
2566.00, 
2567.00, 
2568.00, 
2569.00, 
2570.00, 
2571.00, 
2572.00, 
2573.00, 
2574.00, 
2575.00, 
2576.00, 
2577.00, 
2578.00, 
2579.00, 
2580.00, 
2581.00, 
2582.00, 
2583.00, 
2584.00, 
2585.00, 
2586.00, 
2587.00, 
2588.00, 
2589.00, 
2590.00, 
2591.00, 
2592.00, 
2593.00, 
2594.00, 
2595.00, 
2596.00, 
2597.00, 
2598.00, 
2599.00, 
2600.00, 
