"2cP4 - RawData"
"Wavelength nm.","T%"
200.00,-0.001
201.00,-0.001
202.00,-0.005
203.00,0.004
204.00,0.002
205.00,0.002
206.00,0.001
207.00,0.002
208.00,0.002
209.00,0.002
210.00,0.001
211.00,-0.001
212.00,0.001
213.00,0.001
214.00,0.001
215.00,-0.000
216.00,0.000
217.00,-0.001
218.00,0.003
219.00,-0.001
220.00,-0.002
221.00,-0.001
222.00,0.002
223.00,0.004
224.00,0.001
225.00,0.001
226.00,-0.000
227.00,-0.001
228.00,-0.000
229.00,-0.001
230.00,-0.000
231.00,-0.001
232.00,0.001
233.00,0.000
234.00,0.003
235.00,-0.001
236.00,-0.001
237.00,0.001
238.00,-0.000
239.00,-0.000
240.00,-0.001
241.00,-0.000
242.00,-0.000
243.00,-0.001
244.00,-0.000
245.00,0.001
246.00,0.002
247.00,0.001
248.00,0.001
249.00,0.000
250.00,0.001
251.00,-0.001
252.00,-0.001
253.00,-0.001
254.00,0.001
255.00,0.000
256.00,-0.000
257.00,-0.001
258.00,0.000
259.00,-0.000
260.00,0.003
261.00,0.000
262.00,-0.001
263.00,-0.001
264.00,-0.001
265.00,-0.000
266.00,0.000
267.00,0.001
268.00,-0.000
269.00,0.000
270.00,-0.000
271.00,0.001
272.00,0.000
273.00,-0.001
274.00,-0.001
275.00,-0.001
276.00,0.000
277.00,-0.000
278.00,0.001
279.00,0.001
280.00,0.001
281.00,-0.000
282.00,0.001
283.00,0.001
284.00,0.001
285.00,0.001
286.00,-0.001
287.00,0.001
288.00,-0.001
289.00,0.002
290.00,-0.001
291.00,0.000
292.00,-0.001
293.00,0.001
294.00,0.001
295.00,-0.000
296.00,0.001
297.00,0.001
298.00,0.002
299.00,0.000
300.00,0.001
301.00,0.003
302.00,0.004
303.00,0.005
304.00,0.011
305.00,0.015
306.00,0.021
307.00,0.033
308.00,0.053
309.00,0.083
310.00,0.115
311.00,0.152
312.00,0.212
313.00,0.284
314.00,0.377
315.00,0.493
316.00,0.608
317.00,0.784
318.00,0.957
319.00,1.181
320.00,1.443
321.00,1.715
322.00,2.041
323.00,2.400
324.00,2.788
325.00,3.162
326.00,3.566
327.00,4.035
328.00,4.481
329.00,4.955
330.00,5.442
331.00,5.956
332.00,6.454
333.00,7.009
334.00,7.510
335.00,8.036
336.00,8.547
337.00,9.090
338.00,9.605
339.00,10.056
340.00,10.534
341.00,11.028
342.00,11.479
343.00,11.922
344.00,12.331
345.00,12.684
346.00,13.044
347.00,13.398
348.00,13.722
349.00,14.029
350.00,14.317
351.00,14.574
352.00,14.833
353.00,15.060
354.00,15.299
355.00,15.475
356.00,15.637
357.00,15.850
358.00,16.013
359.00,16.146
360.00,16.301
361.00,16.375
362.00,16.517
363.00,16.619
364.00,16.718
365.00,16.805
366.00,16.856
367.00,16.849
368.00,16.933
369.00,16.961
370.00,17.029
371.00,17.069
372.00,16.999
373.00,16.987
374.00,16.971
375.00,16.965
376.00,16.894
377.00,16.878
378.00,16.800
379.00,16.757
380.00,16.730
381.00,16.712
382.00,16.686
383.00,16.682
384.00,16.673
385.00,16.710
386.00,16.708
387.00,16.726
388.00,16.727
389.00,16.727
390.00,16.747
391.00,16.767
392.00,16.770
393.00,16.772
394.00,16.776
395.00,16.778
396.00,16.749
397.00,16.741
398.00,16.747
399.00,16.771
400.00,16.742
401.00,16.739
402.00,16.733
403.00,16.744
404.00,16.694
405.00,16.710
406.00,16.698
407.00,16.638
408.00,16.641
409.00,16.592
410.00,16.571
411.00,16.590
412.00,16.569
413.00,16.603
414.00,16.614
415.00,16.574
416.00,16.634
417.00,16.638
418.00,16.671
419.00,16.711
420.00,16.734
421.00,16.772
422.00,16.788
423.00,16.821
424.00,16.852
425.00,16.875
426.00,16.911
427.00,16.954
428.00,17.030
429.00,17.044
430.00,17.120
431.00,17.125
432.00,17.235
433.00,17.240
434.00,17.309
435.00,17.385
436.00,17.413
437.00,17.505
438.00,17.558
439.00,17.623
440.00,17.694
441.00,17.759
442.00,17.865
443.00,17.951
444.00,18.040
445.00,18.113
446.00,18.213
447.00,18.331
448.00,18.427
449.00,18.514
450.00,18.626
451.00,18.732
452.00,18.829
453.00,18.947
454.00,19.030
455.00,19.166
456.00,19.278
457.00,19.389
458.00,19.508
459.00,19.597
460.00,19.778
461.00,19.867
462.00,20.007
463.00,20.147
464.00,20.285
465.00,20.416
466.00,20.510
467.00,20.677
468.00,20.796
469.00,20.910
470.00,21.038
471.00,21.128
472.00,21.284
473.00,21.356
474.00,21.480
475.00,21.642
476.00,21.751
477.00,21.864
478.00,22.004
479.00,22.163
480.00,22.319
481.00,22.462
482.00,22.604
483.00,22.763
484.00,22.893
485.00,23.048
486.00,23.190
487.00,23.343
488.00,23.495
489.00,23.612
490.00,23.798
491.00,23.958
492.00,24.167
493.00,24.358
494.00,24.457
495.00,24.525
496.00,24.663
497.00,24.808
498.00,24.965
499.00,25.098
500.00,25.229
501.00,25.359
502.00,25.518
503.00,25.650
504.00,25.765
505.00,25.936
506.00,26.063
507.00,26.157
508.00,26.298
509.00,26.451
510.00,26.561
511.00,26.693
512.00,26.835
513.00,26.955
514.00,27.104
515.00,27.242
516.00,27.335
517.00,27.496
518.00,27.599
519.00,27.679
520.00,27.770
521.00,27.874
522.00,27.986
523.00,28.059
524.00,28.152
525.00,28.265
526.00,28.401
527.00,28.523
528.00,28.591
529.00,28.716
530.00,28.804
531.00,28.964
532.00,29.026
533.00,29.144
534.00,29.267
535.00,29.354
536.00,29.450
537.00,29.511
538.00,29.627
539.00,29.710
540.00,29.767
541.00,29.879
542.00,29.895
543.00,30.003
544.00,30.097
545.00,30.150
546.00,30.207
547.00,30.318
548.00,30.388
549.00,30.467
550.00,30.545
551.00,30.611
552.00,30.713
553.00,30.799
554.00,30.881
555.00,30.923
556.00,30.960
557.00,31.083
558.00,31.157
559.00,31.195
560.00,31.261
561.00,31.331
562.00,31.423
563.00,31.435
564.00,31.512
565.00,31.541
566.00,31.535
567.00,31.622
568.00,31.675
569.00,31.734
570.00,31.757
571.00,31.841
572.00,31.876
573.00,31.921
574.00,31.985
575.00,31.969
576.00,32.031
577.00,32.061
578.00,32.116
579.00,32.207
580.00,32.246
581.00,32.371
582.00,32.435
583.00,32.485
584.00,32.583
585.00,32.617
586.00,32.663
587.00,32.762
588.00,32.814
589.00,32.814
590.00,32.897
591.00,32.918
592.00,32.921
593.00,32.981
594.00,33.068
595.00,33.108
596.00,33.141
597.00,33.226
598.00,33.326
599.00,33.332
600.00,33.412
601.00,33.503
602.00,33.589
603.00,33.605
604.00,33.618
605.00,33.660
606.00,33.779
607.00,33.820
608.00,33.903
609.00,33.962
610.00,33.962
611.00,33.966
612.00,34.078
613.00,34.076
614.00,34.116
615.00,34.188
616.00,34.270
617.00,34.304
618.00,34.229
619.00,34.422
620.00,34.651
621.00,34.594
622.00,34.699
623.00,34.770
624.00,34.860
625.00,34.956
626.00,34.996
627.00,35.114
628.00,35.128
629.00,35.176
630.00,35.261
631.00,35.324
632.00,35.419
633.00,35.543
634.00,35.574
635.00,35.708
636.00,35.838
637.00,35.956
638.00,36.012
639.00,36.099
640.00,36.118
641.00,36.160
642.00,36.310
643.00,36.428
644.00,36.439
645.00,36.586
646.00,36.775
647.00,36.746
648.00,36.849
649.00,36.940
650.00,36.990
651.00,37.209
652.00,37.343
653.00,37.448
654.00,37.580
655.00,37.655
656.00,37.774
657.00,37.956
658.00,38.129
659.00,38.225
660.00,38.264
661.00,38.283
662.00,38.446
663.00,38.622
664.00,38.710
665.00,38.810
666.00,38.924
667.00,39.192
668.00,39.142
669.00,39.359
670.00,39.425
671.00,39.448
672.00,39.597
673.00,39.757
674.00,39.884
675.00,39.936
676.00,40.146
677.00,40.232
678.00,40.110
679.00,40.264
680.00,40.581
681.00,40.629
682.00,40.775
683.00,40.945
684.00,41.110
685.00,41.207
686.00,41.171
687.00,41.423
688.00,41.545
689.00,41.589
690.00,41.702
691.00,41.889
692.00,41.835
693.00,41.993
694.00,42.102
695.00,42.242
696.00,42.437
697.00,42.525
698.00,42.775
699.00,42.940
700.00,42.830
701.00,43.032
702.00,43.201
703.00,43.320
704.00,43.373
705.00,43.453
706.00,43.705
707.00,43.801
708.00,43.723
709.00,43.950
710.00,44.175
711.00,44.038
712.00,44.186
713.00,44.350
714.00,44.384
715.00,44.546
716.00,44.625
717.00,44.723
718.00,44.804
719.00,44.840
720.00,45.004
721.00,48.986
722.00,49.064
723.00,49.132
724.00,49.107
725.00,49.135
726.00,49.296
727.00,49.233
728.00,49.426
729.00,49.489
730.00,49.503
731.00,49.515
732.00,49.579
733.00,49.639
734.00,49.772
735.00,49.837
736.00,49.882
737.00,49.892
738.00,49.980
739.00,50.077
740.00,50.090
741.00,50.209
742.00,50.280
743.00,50.327
744.00,50.307
745.00,50.289
746.00,50.333
747.00,50.330
748.00,50.429
749.00,50.379
750.00,50.498
751.00,50.474
752.00,50.568
753.00,50.502
754.00,50.646
755.00,50.532
756.00,50.616
757.00,50.650
758.00,50.726
759.00,50.770
760.00,50.745
761.00,50.835
762.00,50.818
763.00,50.898
764.00,50.954
765.00,50.898
766.00,50.969
767.00,50.984
768.00,51.051
769.00,51.032
770.00,51.048
771.00,51.064
772.00,51.148
773.00,51.200
774.00,51.233
775.00,51.345
776.00,51.290
777.00,51.333
778.00,51.353
779.00,51.328
780.00,51.345
781.00,51.351
782.00,51.400
783.00,51.337
784.00,51.383
785.00,51.448
786.00,51.417
787.00,51.464
788.00,51.367
789.00,51.429
790.00,51.399
791.00,51.533
792.00,51.471
793.00,51.412
794.00,51.436
795.00,51.465
796.00,51.467
797.00,51.410
798.00,51.423
799.00,51.415
800.00,51.362
801.00,51.448
802.00,51.430
803.00,51.502
804.00,51.442
805.00,51.357
806.00,51.447
807.00,51.414
808.00,51.463
809.00,51.352
810.00,51.399
811.00,51.387
812.00,51.437
813.00,51.303
814.00,51.312
815.00,51.404
816.00,51.459
817.00,51.274
818.00,51.362
819.00,51.340
820.00,51.344
821.00,51.329
822.00,51.392
823.00,51.260
824.00,51.361
825.00,51.261
826.00,51.378
827.00,51.437
828.00,51.245
829.00,51.344
830.00,51.392
831.00,53.507
832.00,53.504
833.00,53.450
834.00,53.445
835.00,53.426
836.00,53.430
837.00,53.445
838.00,53.419
839.00,53.432
840.00,53.368
841.00,53.405
842.00,53.349
843.00,53.337
844.00,53.339
845.00,53.337
846.00,53.341
847.00,53.319
848.00,53.282
849.00,53.260
850.00,53.211
851.00,53.178
852.00,53.148
853.00,53.140
854.00,53.134
855.00,53.124
856.00,53.102
857.00,53.081
858.00,53.056
859.00,53.049
860.00,53.026
861.00,53.060
862.00,52.994
863.00,52.988
864.00,52.931
865.00,52.987
866.00,52.940
867.00,52.942
868.00,52.933
869.00,52.938
870.00,52.935
871.00,52.916
872.00,52.934
873.00,52.901
874.00,52.905
875.00,52.905
876.00,52.901
877.00,52.871
878.00,52.881
879.00,52.849
880.00,52.835
881.00,52.831
882.00,52.847
883.00,52.782
884.00,52.732
885.00,52.843
886.00,52.742
887.00,52.720
888.00,52.694
889.00,52.695
890.00,52.680
891.00,52.663
892.00,52.659
893.00,52.643
894.00,52.588
895.00,52.706
896.00,52.572
897.00,52.548
898.00,52.530
899.00,52.516
900.00,52.517
901.00,52.520
902.00,52.496
903.00,52.485
904.00,52.469
905.00,52.454
906.00,52.472
907.00,52.422
908.00,52.408
909.00,52.406
910.00,52.359
911.00,52.371
912.00,52.369
913.00,52.326
914.00,52.319
915.00,52.284
916.00,52.263
917.00,52.236
918.00,52.182
919.00,52.214
920.00,52.181
921.00,52.162
922.00,52.174
923.00,52.152
924.00,52.143
925.00,52.124
926.00,52.117
927.00,52.088
928.00,52.061
929.00,52.046
930.00,52.021
931.00,52.012
932.00,51.979
933.00,51.982
934.00,51.956
935.00,51.924
936.00,51.927
937.00,51.906
938.00,51.887
939.00,51.885
940.00,51.909
941.00,51.848
942.00,51.824
943.00,51.802
944.00,51.766
945.00,51.783
946.00,51.757
947.00,51.733
948.00,51.725
949.00,51.688
950.00,51.687
951.00,51.676
952.00,51.633
953.00,51.618
954.00,51.576
955.00,51.528
956.00,51.580
957.00,51.511
958.00,51.517
959.00,51.466
960.00,51.452
961.00,51.439
962.00,51.432
963.00,51.406
964.00,51.391
965.00,51.382
966.00,51.368
967.00,51.371
968.00,51.380
969.00,51.387
970.00,51.359
971.00,51.371
972.00,51.351
973.00,51.370
974.00,51.395
975.00,51.360
976.00,51.374
977.00,51.358
978.00,51.397
979.00,51.348
980.00,51.368
981.00,51.383
982.00,51.352
983.00,51.354
984.00,51.366
985.00,51.365
986.00,51.310
987.00,51.338
988.00,51.306
989.00,51.293
990.00,51.290
991.00,51.270
992.00,51.286
993.00,51.242
994.00,51.239
995.00,51.230
996.00,51.216
997.00,51.213
998.00,51.195
999.00,51.203
1000.00,51.150
1001.00,51.145
1002.00,51.154
1003.00,51.156
1004.00,51.115
1005.00,51.094
1006.00,51.125
1007.00,51.089
1008.00,51.073
1009.00,51.061
1010.00,51.043
1011.00,51.032
1012.00,51.015
1013.00,51.005
1014.00,50.992
1015.00,50.988
1016.00,50.949
1017.00,50.928
1018.00,50.927
1019.00,50.892
1020.00,50.884
1021.00,50.868
1022.00,50.863
1023.00,50.814
1024.00,50.824
1025.00,50.814
1026.00,50.795
1027.00,50.782
1028.00,50.779
1029.00,50.755
1030.00,50.733
1031.00,50.737
1032.00,50.696
1033.00,50.700
1034.00,50.658
1035.00,50.637
1036.00,50.622
1037.00,50.598
1038.00,50.596
1039.00,50.561
1040.00,50.563
1041.00,50.522
1042.00,50.529
1043.00,50.488
1044.00,50.520
1045.00,50.500
1046.00,50.488
1047.00,50.497
1048.00,50.506
1049.00,50.521
1050.00,50.528
1051.00,50.557
1052.00,50.563
1053.00,50.567
1054.00,50.566
1055.00,50.590
1056.00,50.596
1057.00,50.605
1058.00,50.579
1059.00,50.567
1060.00,50.569
1061.00,50.549
1062.00,50.545
1063.00,50.553
1064.00,50.541
1065.00,50.524
1066.00,50.526
1067.00,50.518
1068.00,50.528
1069.00,50.493
1070.00,50.496
1071.00,50.478
1072.00,50.488
1073.00,50.468
1074.00,50.465
1075.00,50.440
1076.00,50.433
1077.00,50.437
1078.00,50.419
1079.00,50.410
1080.00,50.424
1081.00,50.399
1082.00,50.394
1083.00,50.384
1084.00,50.378
1085.00,50.369
1086.00,50.365
1087.00,50.361
1088.00,50.343
1089.00,50.327
1090.00,50.318
1091.00,50.328
1092.00,50.307
1093.00,50.289
1094.00,50.275
1095.00,50.283
1096.00,50.259
1097.00,50.251
1098.00,50.248
1099.00,50.237
1100.00,50.228
1101.00,50.220
1102.00,50.220
1103.00,50.212
1104.00,50.201
1105.00,50.188
1106.00,50.176
1107.00,50.171
1108.00,50.164
1109.00,50.150
1110.00,50.145
1111.00,50.138
1112.00,50.134
1113.00,50.113
1114.00,50.116
1115.00,50.126
1116.00,50.115
1117.00,50.103
1118.00,50.088
1119.00,50.079
1120.00,50.067
1121.00,50.040
1122.00,50.043
1123.00,50.035
1124.00,50.034
1125.00,50.020
1126.00,50.015
1127.00,50.012
1128.00,49.994
1129.00,49.977
1130.00,49.970
1131.00,49.971
1132.00,49.960
1133.00,49.950
1134.00,49.950
1135.00,49.935
1136.00,49.938
1137.00,49.935
1138.00,49.938
1139.00,49.957
1140.00,49.937
1141.00,49.914
1142.00,49.916
1143.00,49.936
1144.00,49.894
1145.00,49.905
1146.00,49.906
1147.00,49.911
1148.00,49.894
1149.00,49.897
1150.00,49.892
1151.00,49.888
1152.00,49.873
1153.00,49.873
1154.00,49.853
1155.00,49.870
1156.00,49.861
1157.00,49.867
1158.00,49.853
1159.00,49.849
1160.00,49.839
1161.00,49.843
1162.00,49.838
1163.00,49.837
1164.00,49.837
1165.00,49.824
1166.00,49.833
1167.00,49.829
1168.00,49.837
1169.00,49.828
1170.00,49.831
1171.00,49.818
1172.00,49.829
1173.00,49.807
1174.00,49.813
1175.00,49.805
1176.00,49.805
1177.00,49.796
1178.00,49.802
1179.00,49.812
1180.00,49.798
1181.00,49.811
1182.00,49.794
1183.00,49.781
1184.00,49.764
1185.00,49.785
1186.00,49.771
1187.00,49.789
1188.00,49.773
1189.00,49.766
1190.00,49.773
1191.00,49.766
1192.00,49.784
1193.00,49.772
1194.00,49.780
1195.00,49.755
1196.00,49.777
1197.00,49.775
1198.00,49.768
1199.00,49.752
1200.00,49.761
1201.00,49.775
1202.00,49.743
1203.00,49.755
1204.00,49.748
1205.00,49.762
1206.00,49.749
1207.00,49.763
1208.00,49.743
1209.00,49.741
1210.00,49.745
1211.00,49.740
1212.00,49.758
1213.00,49.717
1214.00,49.745
1215.00,49.734
1216.00,49.720
1217.00,49.725
1218.00,49.727
1219.00,49.748
1220.00,49.741
1221.00,49.752
1222.00,49.733
1223.00,49.741
1224.00,49.726
1225.00,49.720
1226.00,49.726
1227.00,49.713
1228.00,49.736
1229.00,49.726
1230.00,49.767
1231.00,49.753
1232.00,49.753
1233.00,49.748
1234.00,49.765
1235.00,49.760
1236.00,49.761
1237.00,49.758
1238.00,49.759
1239.00,49.764
1240.00,49.765
1241.00,49.780
1242.00,49.772
1243.00,49.793
1244.00,49.775
1245.00,49.804
1246.00,49.806
1247.00,49.800
1248.00,49.801
1249.00,49.808
1250.00,49.800
1251.00,49.791
1252.00,49.806
1253.00,49.806
1254.00,49.830
1255.00,49.804
1256.00,49.787
1257.00,49.783
1258.00,49.837
1259.00,49.824
1260.00,49.838
1261.00,49.830
1262.00,49.822
1263.00,49.819
1264.00,49.814
1265.00,49.819
1266.00,49.830
1267.00,49.831
1268.00,49.840
1269.00,49.842
1270.00,49.848
1271.00,49.851
1272.00,49.859
1273.00,49.880
1274.00,49.875
1275.00,49.880
1276.00,49.891
1277.00,49.882
1278.00,49.891
1279.00,49.890
1280.00,49.890
1281.00,49.897
1282.00,49.909
1283.00,49.903
1284.00,49.906
1285.00,49.887
1286.00,49.890
1287.00,49.889
1288.00,49.899
1289.00,49.894
1290.00,49.915
1291.00,49.922
1292.00,49.918
1293.00,49.917
1294.00,49.938
1295.00,49.940
1296.00,49.941
1297.00,49.937
1298.00,49.973
1299.00,49.954
1300.00,49.967
1301.00,49.968
1302.00,49.982
1303.00,49.994
1304.00,49.974
1305.00,49.996
1306.00,50.006
1307.00,50.006
1308.00,50.007
1309.00,50.007
1310.00,50.015
1311.00,50.020
1312.00,50.021
1313.00,50.032
1314.00,50.038
1315.00,50.033
1316.00,50.048
1317.00,50.065
1318.00,50.035
1319.00,50.054
1320.00,50.070
1321.00,50.219
1322.00,50.232
1323.00,50.231
1324.00,50.247
1325.00,50.199
1326.00,50.233
1327.00,50.220
1328.00,50.196
1329.00,50.212
1330.00,50.213
1331.00,50.219
1332.00,50.235
1333.00,50.210
1334.00,50.250
1335.00,50.304
1336.00,50.308
1337.00,50.324
1338.00,50.392
1339.00,50.424
1340.00,50.478
1341.00,50.532
1342.00,50.589
1343.00,50.650
1344.00,50.704
1345.00,50.746
1346.00,50.794
1347.00,50.798
1348.00,50.835
1349.00,50.873
1350.00,50.879
1351.00,50.903
1352.00,50.880
1353.00,50.909
1354.00,50.910
1355.00,50.865
1356.00,50.913
1357.00,50.918
1358.00,50.937
1359.00,50.946
1360.00,50.962
1361.00,50.891
1362.00,50.910
1363.00,50.979
1364.00,50.913
1365.00,50.914
1366.00,50.975
1367.00,50.932
1368.00,50.893
1369.00,50.917
1370.00,50.907
1371.00,50.898
1372.00,50.878
1373.00,50.886
1374.00,50.923
1375.00,50.879
1376.00,50.894
1377.00,50.864
1378.00,50.934
1379.00,50.905
1380.00,50.873
1381.00,50.898
1382.00,50.884
1383.00,50.886
1384.00,50.873
1385.00,50.848
1386.00,50.880
1387.00,50.842
1388.00,50.852
1389.00,50.849
1390.00,50.924
1391.00,50.859
1392.00,50.874
1393.00,50.960
1394.00,50.869
1395.00,50.901
1396.00,50.836
1397.00,50.889
1398.00,50.897
1399.00,50.884
1400.00,50.841
1401.00,50.860
1402.00,50.908
1403.00,50.871
1404.00,50.877
1405.00,50.905
1406.00,50.921
1407.00,50.932
1408.00,50.911
1409.00,50.923
1410.00,50.942
1411.00,50.946
1412.00,51.048
1413.00,51.136
1414.00,50.943
1415.00,50.991
1416.00,50.994
1417.00,51.032
1418.00,51.011
1419.00,50.994
1420.00,51.039
1421.00,51.076
1422.00,51.069
1423.00,51.074
1424.00,51.072
1425.00,51.092
1426.00,51.102
1427.00,51.100
1428.00,51.121
1429.00,51.134
1430.00,51.139
1431.00,51.177
1432.00,51.181
1433.00,51.210
1434.00,51.200
1435.00,51.234
1436.00,51.249
1437.00,51.244
1438.00,51.251
1439.00,51.286
1440.00,51.285
1441.00,51.283
1442.00,51.304
1443.00,51.313
1444.00,51.361
1445.00,51.348
1446.00,51.351
1447.00,51.389
1448.00,51.431
1449.00,51.412
1450.00,51.415
1451.00,51.418
1452.00,51.452
1453.00,51.445
1454.00,51.468
1455.00,51.498
1456.00,51.518
1457.00,51.505
1458.00,51.546
1459.00,51.565
1460.00,51.571
1461.00,51.591
1462.00,51.620
1463.00,51.624
1464.00,51.632
1465.00,51.646
1466.00,51.660
1467.00,51.693
1468.00,51.714
1469.00,51.711
1470.00,51.730
1471.00,51.723
1472.00,51.741
1473.00,51.761
1474.00,51.773
1475.00,51.783
1476.00,51.788
1477.00,51.799
1478.00,51.828
1479.00,51.819
1480.00,51.833
1481.00,51.846
1482.00,51.865
1483.00,51.885
1484.00,51.893
1485.00,51.890
1486.00,51.904
1487.00,51.923
1488.00,51.927
1489.00,51.932
1490.00,51.937
1491.00,51.948
1492.00,51.973
1493.00,51.947
1494.00,52.001
1495.00,51.981
1496.00,51.982
1497.00,52.004
1498.00,52.029
1499.00,52.027
1500.00,52.047
1501.00, 
1502.00, 
1503.00, 
1504.00, 
1505.00, 
1506.00, 
1507.00, 
1508.00, 
1509.00, 
1510.00, 
1511.00, 
1512.00, 
1513.00, 
1514.00, 
1515.00, 
1516.00, 
1517.00, 
1518.00, 
1519.00, 
1520.00, 
1521.00, 
1522.00, 
1523.00, 
1524.00, 
1525.00, 
1526.00, 
1527.00, 
1528.00, 
1529.00, 
1530.00, 
1531.00, 
1532.00, 
1533.00, 
1534.00, 
1535.00, 
1536.00, 
1537.00, 
1538.00, 
1539.00, 
1540.00, 
1541.00, 
1542.00, 
1543.00, 
1544.00, 
1545.00, 
1546.00, 
1547.00, 
1548.00, 
1549.00, 
1550.00, 
1551.00, 
1552.00, 
1553.00, 
1554.00, 
1555.00, 
1556.00, 
1557.00, 
1558.00, 
1559.00, 
1560.00, 
1561.00, 
1562.00, 
1563.00, 
1564.00, 
1565.00, 
1566.00, 
1567.00, 
1568.00, 
1569.00, 
1570.00, 
1571.00, 
1572.00, 
1573.00, 
1574.00, 
1575.00, 
1576.00, 
1577.00, 
1578.00, 
1579.00, 
1580.00, 
1581.00, 
1582.00, 
1583.00, 
1584.00, 
1585.00, 
1586.00, 
1587.00, 
1588.00, 
1589.00, 
1590.00, 
1591.00, 
1592.00, 
1593.00, 
1594.00, 
1595.00, 
1596.00, 
1597.00, 
1598.00, 
1599.00, 
1600.00, 
1601.00, 
1602.00, 
1603.00, 
1604.00, 
1605.00, 
1606.00, 
1607.00, 
1608.00, 
1609.00, 
1610.00, 
1611.00, 
1612.00, 
1613.00, 
1614.00, 
1615.00, 
1616.00, 
1617.00, 
1618.00, 
1619.00, 
1620.00, 
1621.00, 
1622.00, 
1623.00, 
1624.00, 
1625.00, 
1626.00, 
1627.00, 
1628.00, 
1629.00, 
1630.00, 
1631.00, 
1632.00, 
1633.00, 
1634.00, 
1635.00, 
1636.00, 
1637.00, 
1638.00, 
1639.00, 
1640.00, 
1641.00, 
1642.00, 
1643.00, 
1644.00, 
1645.00, 
1646.00, 
1647.00, 
1648.00, 
1649.00, 
1650.00, 
1651.00, 
1652.00, 
1653.00, 
1654.00, 
1655.00, 
1656.00, 
1657.00, 
1658.00, 
1659.00, 
1660.00, 
1661.00, 
1662.00, 
1663.00, 
1664.00, 
1665.00, 
1666.00, 
1667.00, 
1668.00, 
1669.00, 
1670.00, 
1671.00, 
1672.00, 
1673.00, 
1674.00, 
1675.00, 
1676.00, 
1677.00, 
1678.00, 
1679.00, 
1680.00, 
1681.00, 
1682.00, 
1683.00, 
1684.00, 
1685.00, 
1686.00, 
1687.00, 
1688.00, 
1689.00, 
1690.00, 
1691.00, 
1692.00, 
1693.00, 
1694.00, 
1695.00, 
1696.00, 
1697.00, 
1698.00, 
1699.00, 
1700.00, 
1701.00, 
1702.00, 
1703.00, 
1704.00, 
1705.00, 
1706.00, 
1707.00, 
1708.00, 
1709.00, 
1710.00, 
1711.00, 
1712.00, 
1713.00, 
1714.00, 
1715.00, 
1716.00, 
1717.00, 
1718.00, 
1719.00, 
1720.00, 
1721.00, 
1722.00, 
1723.00, 
1724.00, 
1725.00, 
1726.00, 
1727.00, 
1728.00, 
1729.00, 
1730.00, 
1731.00, 
1732.00, 
1733.00, 
1734.00, 
1735.00, 
1736.00, 
1737.00, 
1738.00, 
1739.00, 
1740.00, 
1741.00, 
1742.00, 
1743.00, 
1744.00, 
1745.00, 
1746.00, 
1747.00, 
1748.00, 
1749.00, 
1750.00, 
1751.00, 
1752.00, 
1753.00, 
1754.00, 
1755.00, 
1756.00, 
1757.00, 
1758.00, 
1759.00, 
1760.00, 
1761.00, 
1762.00, 
1763.00, 
1764.00, 
1765.00, 
1766.00, 
1767.00, 
1768.00, 
1769.00, 
1770.00, 
1771.00, 
1772.00, 
1773.00, 
1774.00, 
1775.00, 
1776.00, 
1777.00, 
1778.00, 
1779.00, 
1780.00, 
1781.00, 
1782.00, 
1783.00, 
1784.00, 
1785.00, 
1786.00, 
1787.00, 
1788.00, 
1789.00, 
1790.00, 
1791.00, 
1792.00, 
1793.00, 
1794.00, 
1795.00, 
1796.00, 
1797.00, 
1798.00, 
1799.00, 
1800.00, 
1801.00, 
1802.00, 
1803.00, 
1804.00, 
1805.00, 
1806.00, 
1807.00, 
1808.00, 
1809.00, 
1810.00, 
1811.00, 
1812.00, 
1813.00, 
1814.00, 
1815.00, 
1816.00, 
1817.00, 
1818.00, 
1819.00, 
1820.00, 
1821.00, 
1822.00, 
1823.00, 
1824.00, 
1825.00, 
1826.00, 
1827.00, 
1828.00, 
1829.00, 
1830.00, 
1831.00, 
1832.00, 
1833.00, 
1834.00, 
1835.00, 
1836.00, 
1837.00, 
1838.00, 
1839.00, 
1840.00, 
1841.00, 
1842.00, 
1843.00, 
1844.00, 
1845.00, 
1846.00, 
1847.00, 
1848.00, 
1849.00, 
1850.00, 
1851.00, 
1852.00, 
1853.00, 
1854.00, 
1855.00, 
1856.00, 
1857.00, 
1858.00, 
1859.00, 
1860.00, 
1861.00, 
1862.00, 
1863.00, 
1864.00, 
1865.00, 
1866.00, 
1867.00, 
1868.00, 
1869.00, 
1870.00, 
1871.00, 
1872.00, 
1873.00, 
1874.00, 
1875.00, 
1876.00, 
1877.00, 
1878.00, 
1879.00, 
1880.00, 
1881.00, 
1882.00, 
1883.00, 
1884.00, 
1885.00, 
1886.00, 
1887.00, 
1888.00, 
1889.00, 
1890.00, 
1891.00, 
1892.00, 
1893.00, 
1894.00, 
1895.00, 
1896.00, 
1897.00, 
1898.00, 
1899.00, 
1900.00, 
1901.00, 
1902.00, 
1903.00, 
1904.00, 
1905.00, 
1906.00, 
1907.00, 
1908.00, 
1909.00, 
1910.00, 
1911.00, 
1912.00, 
1913.00, 
1914.00, 
1915.00, 
1916.00, 
1917.00, 
1918.00, 
1919.00, 
1920.00, 
1921.00, 
1922.00, 
1923.00, 
1924.00, 
1925.00, 
1926.00, 
1927.00, 
1928.00, 
1929.00, 
1930.00, 
1931.00, 
1932.00, 
1933.00, 
1934.00, 
1935.00, 
1936.00, 
1937.00, 
1938.00, 
1939.00, 
1940.00, 
1941.00, 
1942.00, 
1943.00, 
1944.00, 
1945.00, 
1946.00, 
1947.00, 
1948.00, 
1949.00, 
1950.00, 
1951.00, 
1952.00, 
1953.00, 
1954.00, 
1955.00, 
1956.00, 
1957.00, 
1958.00, 
1959.00, 
1960.00, 
1961.00, 
1962.00, 
1963.00, 
1964.00, 
1965.00, 
1966.00, 
1967.00, 
1968.00, 
1969.00, 
1970.00, 
1971.00, 
1972.00, 
1973.00, 
1974.00, 
1975.00, 
1976.00, 
1977.00, 
1978.00, 
1979.00, 
1980.00, 
1981.00, 
1982.00, 
1983.00, 
1984.00, 
1985.00, 
1986.00, 
1987.00, 
1988.00, 
1989.00, 
1990.00, 
1991.00, 
1992.00, 
1993.00, 
1994.00, 
1995.00, 
1996.00, 
1997.00, 
1998.00, 
1999.00, 
2000.00, 
2001.00, 
2002.00, 
2003.00, 
2004.00, 
2005.00, 
2006.00, 
2007.00, 
2008.00, 
2009.00, 
2010.00, 
2011.00, 
2012.00, 
2013.00, 
2014.00, 
2015.00, 
2016.00, 
2017.00, 
2018.00, 
2019.00, 
2020.00, 
2021.00, 
2022.00, 
2023.00, 
2024.00, 
2025.00, 
2026.00, 
2027.00, 
2028.00, 
2029.00, 
2030.00, 
2031.00, 
2032.00, 
2033.00, 
2034.00, 
2035.00, 
2036.00, 
2037.00, 
2038.00, 
2039.00, 
2040.00, 
2041.00, 
2042.00, 
2043.00, 
2044.00, 
2045.00, 
2046.00, 
2047.00, 
2048.00, 
2049.00, 
2050.00, 
2051.00, 
2052.00, 
2053.00, 
2054.00, 
2055.00, 
2056.00, 
2057.00, 
2058.00, 
2059.00, 
2060.00, 
2061.00, 
2062.00, 
2063.00, 
2064.00, 
2065.00, 
2066.00, 
2067.00, 
2068.00, 
2069.00, 
2070.00, 
2071.00, 
2072.00, 
2073.00, 
2074.00, 
2075.00, 
2076.00, 
2077.00, 
2078.00, 
2079.00, 
2080.00, 
2081.00, 
2082.00, 
2083.00, 
2084.00, 
2085.00, 
2086.00, 
2087.00, 
2088.00, 
2089.00, 
2090.00, 
2091.00, 
2092.00, 
2093.00, 
2094.00, 
2095.00, 
2096.00, 
2097.00, 
2098.00, 
2099.00, 
2100.00, 
2101.00, 
2102.00, 
2103.00, 
2104.00, 
2105.00, 
2106.00, 
2107.00, 
2108.00, 
2109.00, 
2110.00, 
2111.00, 
2112.00, 
2113.00, 
2114.00, 
2115.00, 
2116.00, 
2117.00, 
2118.00, 
2119.00, 
2120.00, 
2121.00, 
2122.00, 
2123.00, 
2124.00, 
2125.00, 
2126.00, 
2127.00, 
2128.00, 
2129.00, 
2130.00, 
2131.00, 
2132.00, 
2133.00, 
2134.00, 
2135.00, 
2136.00, 
2137.00, 
2138.00, 
2139.00, 
2140.00, 
2141.00, 
2142.00, 
2143.00, 
2144.00, 
2145.00, 
2146.00, 
2147.00, 
2148.00, 
2149.00, 
2150.00, 
2151.00, 
2152.00, 
2153.00, 
2154.00, 
2155.00, 
2156.00, 
2157.00, 
2158.00, 
2159.00, 
2160.00, 
2161.00, 
2162.00, 
2163.00, 
2164.00, 
2165.00, 
2166.00, 
2167.00, 
2168.00, 
2169.00, 
2170.00, 
2171.00, 
2172.00, 
2173.00, 
2174.00, 
2175.00, 
2176.00, 
2177.00, 
2178.00, 
2179.00, 
2180.00, 
2181.00, 
2182.00, 
2183.00, 
2184.00, 
2185.00, 
2186.00, 
2187.00, 
2188.00, 
2189.00, 
2190.00, 
2191.00, 
2192.00, 
2193.00, 
2194.00, 
2195.00, 
2196.00, 
2197.00, 
2198.00, 
2199.00, 
2200.00, 
2201.00, 
2202.00, 
2203.00, 
2204.00, 
2205.00, 
2206.00, 
2207.00, 
2208.00, 
2209.00, 
2210.00, 
2211.00, 
2212.00, 
2213.00, 
2214.00, 
2215.00, 
2216.00, 
2217.00, 
2218.00, 
2219.00, 
2220.00, 
2221.00, 
2222.00, 
2223.00, 
2224.00, 
2225.00, 
2226.00, 
2227.00, 
2228.00, 
2229.00, 
2230.00, 
2231.00, 
2232.00, 
2233.00, 
2234.00, 
2235.00, 
2236.00, 
2237.00, 
2238.00, 
2239.00, 
2240.00, 
2241.00, 
2242.00, 
2243.00, 
2244.00, 
2245.00, 
2246.00, 
2247.00, 
2248.00, 
2249.00, 
2250.00, 
2251.00, 
2252.00, 
2253.00, 
2254.00, 
2255.00, 
2256.00, 
2257.00, 
2258.00, 
2259.00, 
2260.00, 
2261.00, 
2262.00, 
2263.00, 
2264.00, 
2265.00, 
2266.00, 
2267.00, 
2268.00, 
2269.00, 
2270.00, 
2271.00, 
2272.00, 
2273.00, 
2274.00, 
2275.00, 
2276.00, 
2277.00, 
2278.00, 
2279.00, 
2280.00, 
2281.00, 
2282.00, 
2283.00, 
2284.00, 
2285.00, 
2286.00, 
2287.00, 
2288.00, 
2289.00, 
2290.00, 
2291.00, 
2292.00, 
2293.00, 
2294.00, 
2295.00, 
2296.00, 
2297.00, 
2298.00, 
2299.00, 
2300.00, 
2301.00, 
2302.00, 
2303.00, 
2304.00, 
2305.00, 
2306.00, 
2307.00, 
2308.00, 
2309.00, 
2310.00, 
2311.00, 
2312.00, 
2313.00, 
2314.00, 
2315.00, 
2316.00, 
2317.00, 
2318.00, 
2319.00, 
2320.00, 
2321.00, 
2322.00, 
2323.00, 
2324.00, 
2325.00, 
2326.00, 
2327.00, 
2328.00, 
2329.00, 
2330.00, 
2331.00, 
2332.00, 
2333.00, 
2334.00, 
2335.00, 
2336.00, 
2337.00, 
2338.00, 
2339.00, 
2340.00, 
2341.00, 
2342.00, 
2343.00, 
2344.00, 
2345.00, 
2346.00, 
2347.00, 
2348.00, 
2349.00, 
2350.00, 
2351.00, 
2352.00, 
2353.00, 
2354.00, 
2355.00, 
2356.00, 
2357.00, 
2358.00, 
2359.00, 
2360.00, 
2361.00, 
2362.00, 
2363.00, 
2364.00, 
2365.00, 
2366.00, 
2367.00, 
2368.00, 
2369.00, 
2370.00, 
2371.00, 
2372.00, 
2373.00, 
2374.00, 
2375.00, 
2376.00, 
2377.00, 
2378.00, 
2379.00, 
2380.00, 
2381.00, 
2382.00, 
2383.00, 
2384.00, 
2385.00, 
2386.00, 
2387.00, 
2388.00, 
2389.00, 
2390.00, 
2391.00, 
2392.00, 
2393.00, 
2394.00, 
2395.00, 
2396.00, 
2397.00, 
2398.00, 
2399.00, 
2400.00, 
2401.00, 
2402.00, 
2403.00, 
2404.00, 
2405.00, 
2406.00, 
2407.00, 
2408.00, 
2409.00, 
2410.00, 
2411.00, 
2412.00, 
2413.00, 
2414.00, 
2415.00, 
2416.00, 
2417.00, 
2418.00, 
2419.00, 
2420.00, 
2421.00, 
2422.00, 
2423.00, 
2424.00, 
2425.00, 
2426.00, 
2427.00, 
2428.00, 
2429.00, 
2430.00, 
2431.00, 
2432.00, 
2433.00, 
2434.00, 
2435.00, 
2436.00, 
2437.00, 
2438.00, 
2439.00, 
2440.00, 
2441.00, 
2442.00, 
2443.00, 
2444.00, 
2445.00, 
2446.00, 
2447.00, 
2448.00, 
2449.00, 
2450.00, 
2451.00, 
2452.00, 
2453.00, 
2454.00, 
2455.00, 
2456.00, 
2457.00, 
2458.00, 
2459.00, 
2460.00, 
2461.00, 
2462.00, 
2463.00, 
2464.00, 
2465.00, 
2466.00, 
2467.00, 
2468.00, 
2469.00, 
2470.00, 
2471.00, 
2472.00, 
2473.00, 
2474.00, 
2475.00, 
2476.00, 
2477.00, 
2478.00, 
2479.00, 
2480.00, 
2481.00, 
2482.00, 
2483.00, 
2484.00, 
2485.00, 
2486.00, 
2487.00, 
2488.00, 
2489.00, 
2490.00, 
2491.00, 
2492.00, 
2493.00, 
2494.00, 
2495.00, 
2496.00, 
2497.00, 
2498.00, 
2499.00, 
2500.00, 
2501.00, 
2502.00, 
2503.00, 
2504.00, 
2505.00, 
2506.00, 
2507.00, 
2508.00, 
2509.00, 
2510.00, 
2511.00, 
2512.00, 
2513.00, 
2514.00, 
2515.00, 
2516.00, 
2517.00, 
2518.00, 
2519.00, 
2520.00, 
2521.00, 
2522.00, 
2523.00, 
2524.00, 
2525.00, 
2526.00, 
2527.00, 
2528.00, 
2529.00, 
2530.00, 
2531.00, 
2532.00, 
2533.00, 
2534.00, 
2535.00, 
2536.00, 
2537.00, 
2538.00, 
2539.00, 
2540.00, 
2541.00, 
2542.00, 
2543.00, 
2544.00, 
2545.00, 
2546.00, 
2547.00, 
2548.00, 
2549.00, 
2550.00, 
2551.00, 
2552.00, 
2553.00, 
2554.00, 
2555.00, 
2556.00, 
2557.00, 
2558.00, 
2559.00, 
2560.00, 
2561.00, 
2562.00, 
2563.00, 
2564.00, 
2565.00, 
2566.00, 
2567.00, 
2568.00, 
2569.00, 
2570.00, 
2571.00, 
2572.00, 
2573.00, 
2574.00, 
2575.00, 
2576.00, 
2577.00, 
2578.00, 
2579.00, 
2580.00, 
2581.00, 
2582.00, 
2583.00, 
2584.00, 
2585.00, 
2586.00, 
2587.00, 
2588.00, 
2589.00, 
2590.00, 
2591.00, 
2592.00, 
2593.00, 
2594.00, 
2595.00, 
2596.00, 
2597.00, 
2598.00, 
2599.00, 
2600.00, 
