"1aP2 - RawData"
"Wavelength nm.","T%"
200.00,0.001
201.00,0.003
202.00,0.004
203.00,0.001
204.00,0.003
205.00,0.000
206.00,0.002
207.00,0.003
208.00,0.000
209.00,-0.001
210.00,0.002
211.00,-0.000
212.00,0.001
213.00,0.001
214.00,0.004
215.00,-0.000
216.00,0.002
217.00,0.000
218.00,-0.000
219.00,0.003
220.00,0.001
221.00,0.001
222.00,0.001
223.00,0.004
224.00,-0.002
225.00,-0.001
226.00,0.000
227.00,0.000
228.00,-0.000
229.00,0.001
230.00,0.000
231.00,0.001
232.00,0.000
233.00,-0.000
234.00,0.001
235.00,-0.001
236.00,0.001
237.00,-0.001
238.00,0.002
239.00,0.000
240.00,0.000
241.00,0.002
242.00,0.003
243.00,0.001
244.00,0.001
245.00,0.001
246.00,0.002
247.00,0.000
248.00,-0.000
249.00,0.001
250.00,-0.001
251.00,-0.001
252.00,0.000
253.00,-0.001
254.00,-0.000
255.00,0.001
256.00,0.002
257.00,0.002
258.00,0.000
259.00,-0.000
260.00,0.000
261.00,-0.000
262.00,-0.001
263.00,-0.001
264.00,-0.000
265.00,-0.001
266.00,0.001
267.00,-0.003
268.00,-0.000
269.00,0.001
270.00,-0.001
271.00,-0.001
272.00,0.000
273.00,-0.001
274.00,-0.001
275.00,-0.000
276.00,-0.000
277.00,0.000
278.00,0.001
279.00,-0.001
280.00,0.001
281.00,-0.000
282.00,-0.000
283.00,-0.000
284.00,-0.000
285.00,0.001
286.00,0.001
287.00,0.000
288.00,0.000
289.00,-0.000
290.00,-0.001
291.00,-0.000
292.00,-0.000
293.00,0.000
294.00,0.001
295.00,0.001
296.00,-0.000
297.00,0.002
298.00,0.001
299.00,0.002
300.00,0.004
301.00,0.004
302.00,0.007
303.00,0.012
304.00,0.018
305.00,0.029
306.00,0.045
307.00,0.069
308.00,0.102
309.00,0.156
310.00,0.222
311.00,0.303
312.00,0.409
313.00,0.541
314.00,0.701
315.00,0.893
316.00,1.129
317.00,1.407
318.00,1.735
319.00,2.094
320.00,2.519
321.00,2.984
322.00,3.498
323.00,4.092
324.00,4.677
325.00,5.265
326.00,5.876
327.00,6.617
328.00,7.307
329.00,8.003
330.00,8.731
331.00,9.485
332.00,10.214
333.00,10.987
334.00,11.714
335.00,12.444
336.00,13.182
337.00,13.910
338.00,14.596
339.00,15.226
340.00,15.867
341.00,16.552
342.00,17.071
343.00,17.618
344.00,18.196
345.00,18.695
346.00,19.164
347.00,19.631
348.00,20.003
349.00,20.411
350.00,20.788
351.00,21.130
352.00,21.413
353.00,21.701
354.00,21.996
355.00,22.272
356.00,22.501
357.00,22.698
358.00,22.879
359.00,23.065
360.00,23.256
361.00,23.401
362.00,23.432
363.00,23.641
364.00,23.718
365.00,23.840
366.00,23.926
367.00,23.971
368.00,24.042
369.00,24.017
370.00,24.039
371.00,24.054
372.00,24.023
373.00,24.036
374.00,23.955
375.00,23.993
376.00,23.904
377.00,23.825
378.00,23.782
379.00,23.721
380.00,23.683
381.00,23.651
382.00,23.659
383.00,23.662
384.00,23.655
385.00,23.729
386.00,23.710
387.00,23.790
388.00,23.817
389.00,23.827
390.00,23.866
391.00,23.837
392.00,23.886
393.00,23.882
394.00,23.861
395.00,23.893
396.00,23.872
397.00,23.852
398.00,23.846
399.00,23.801
400.00,23.859
401.00,23.859
402.00,23.849
403.00,23.857
404.00,23.795
405.00,23.788
406.00,23.831
407.00,23.703
408.00,23.713
409.00,23.643
410.00,23.634
411.00,23.664
412.00,23.592
413.00,23.667
414.00,23.631
415.00,23.649
416.00,23.659
417.00,23.637
418.00,23.705
419.00,23.717
420.00,23.688
421.00,23.820
422.00,23.860
423.00,23.862
424.00,23.891
425.00,23.903
426.00,23.961
427.00,23.986
428.00,24.076
429.00,24.105
430.00,24.128
431.00,24.188
432.00,24.261
433.00,24.300
434.00,24.328
435.00,24.383
436.00,24.477
437.00,24.550
438.00,24.529
439.00,24.696
440.00,24.779
441.00,24.848
442.00,24.950
443.00,24.979
444.00,25.147
445.00,25.212
446.00,25.320
447.00,25.359
448.00,25.482
449.00,25.588
450.00,25.672
451.00,25.797
452.00,25.905
453.00,25.991
454.00,26.106
455.00,26.261
456.00,26.334
457.00,26.427
458.00,26.558
459.00,26.584
460.00,26.815
461.00,26.984
462.00,27.129
463.00,27.241
464.00,27.388
465.00,27.476
466.00,27.580
467.00,27.681
468.00,27.824
469.00,27.978
470.00,28.031
471.00,28.191
472.00,28.356
473.00,28.438
474.00,28.574
475.00,28.735
476.00,28.835
477.00,28.977
478.00,29.094
479.00,29.231
480.00,29.419
481.00,29.553
482.00,29.711
483.00,29.892
484.00,29.953
485.00,30.196
486.00,30.323
487.00,30.431
488.00,30.659
489.00,30.613
490.00,30.853
491.00,31.055
492.00,31.125
493.00,31.346
494.00,31.471
495.00,31.536
496.00,31.665
497.00,31.786
498.00,31.961
499.00,32.063
500.00,32.168
501.00,32.319
502.00,32.468
503.00,32.608
504.00,32.729
505.00,32.838
506.00,32.974
507.00,33.061
508.00,33.225
509.00,33.291
510.00,33.487
511.00,33.581
512.00,33.667
513.00,33.800
514.00,33.985
515.00,34.042
516.00,34.171
517.00,34.267
518.00,34.381
519.00,34.509
520.00,34.595
521.00,34.650
522.00,34.772
523.00,34.859
524.00,34.938
525.00,35.123
526.00,35.147
527.00,35.253
528.00,35.307
529.00,35.412
530.00,35.494
531.00,35.626
532.00,35.725
533.00,35.820
534.00,35.894
535.00,35.963
536.00,36.096
537.00,36.123
538.00,36.245
539.00,36.333
540.00,36.361
541.00,36.488
542.00,36.476
543.00,36.525
544.00,36.565
545.00,36.741
546.00,36.798
547.00,36.840
548.00,36.916
549.00,37.011
550.00,37.085
551.00,37.125
552.00,37.180
553.00,37.227
554.00,37.302
555.00,37.350
556.00,37.434
557.00,37.439
558.00,37.522
559.00,37.550
560.00,37.660
561.00,37.733
562.00,37.800
563.00,37.777
564.00,37.833
565.00,37.875
566.00,37.881
567.00,37.925
568.00,37.990
569.00,38.025
570.00,38.030
571.00,38.091
572.00,38.178
573.00,38.138
574.00,38.202
575.00,38.277
576.00,38.270
577.00,38.342
578.00,38.407
579.00,38.475
580.00,38.506
581.00,38.622
582.00,38.662
583.00,38.714
584.00,38.761
585.00,38.784
586.00,38.859
587.00,38.925
588.00,38.962
589.00,38.981
590.00,39.082
591.00,39.178
592.00,39.167
593.00,39.200
594.00,39.242
595.00,39.276
596.00,39.334
597.00,39.343
598.00,39.401
599.00,39.473
600.00,39.461
601.00,39.451
602.00,39.677
603.00,39.552
604.00,39.645
605.00,39.730
606.00,39.727
607.00,39.834
608.00,39.889
609.00,39.906
610.00,40.031
611.00,39.987
612.00,40.019
613.00,40.068
614.00,40.122
615.00,40.168
616.00,40.208
617.00,40.228
618.00,40.357
619.00,40.363
620.00,40.386
621.00,40.524
622.00,40.548
623.00,40.600
624.00,40.705
625.00,40.724
626.00,40.809
627.00,40.804
628.00,40.899
629.00,40.951
630.00,41.030
631.00,41.059
632.00,41.124
633.00,41.193
634.00,41.271
635.00,41.356
636.00,41.396
637.00,41.526
638.00,41.601
639.00,41.634
640.00,41.741
641.00,41.789
642.00,41.868
643.00,41.929
644.00,42.042
645.00,42.076
646.00,42.149
647.00,42.195
648.00,42.338
649.00,42.327
650.00,42.466
651.00,42.551
652.00,42.642
653.00,42.790
654.00,42.803
655.00,42.923
656.00,42.878
657.00,42.869
658.00,42.414
659.00,43.234
660.00,43.465
661.00,43.477
662.00,43.537
663.00,43.573
664.00,43.713
665.00,43.906
666.00,43.900
667.00,44.021
668.00,43.951
669.00,44.314
670.00,44.324
671.00,44.290
672.00,44.352
673.00,44.508
674.00,44.601
675.00,44.710
676.00,44.840
677.00,44.967
678.00,44.958
679.00,45.070
680.00,45.103
681.00,45.223
682.00,45.410
683.00,45.418
684.00,45.598
685.00,45.783
686.00,45.763
687.00,45.760
688.00,45.926
689.00,45.898
690.00,46.028
691.00,46.278
692.00,46.240
693.00,46.391
694.00,46.362
695.00,46.532
696.00,46.493
697.00,46.591
698.00,46.717
699.00,46.825
700.00,47.073
701.00,46.945
702.00,46.958
703.00,47.381
704.00,47.485
705.00,47.402
706.00,47.433
707.00,47.700
708.00,47.521
709.00,47.724
710.00,47.962
711.00,47.803
712.00,47.895
713.00,47.994
714.00,48.012
715.00,48.140
716.00,48.205
717.00,48.152
718.00,48.339
719.00,48.442
720.00,48.329
721.00,52.869
722.00,52.870
723.00,52.913
724.00,52.929
725.00,52.917
726.00,53.007
727.00,52.975
728.00,53.047
729.00,53.064
730.00,53.097
731.00,53.102
732.00,53.108
733.00,53.183
734.00,53.237
735.00,53.329
736.00,53.310
737.00,53.319
738.00,53.326
739.00,53.390
740.00,53.426
741.00,53.524
742.00,53.514
743.00,53.507
744.00,53.516
745.00,53.568
746.00,53.501
747.00,53.602
748.00,53.616
749.00,53.575
750.00,53.560
751.00,53.610
752.00,53.630
753.00,53.564
754.00,53.655
755.00,53.586
756.00,53.599
757.00,53.696
758.00,53.745
759.00,53.678
760.00,53.735
761.00,53.754
762.00,53.714
763.00,53.794
764.00,53.814
765.00,53.771
766.00,53.899
767.00,53.868
768.00,53.870
769.00,53.960
770.00,53.914
771.00,53.822
772.00,53.855
773.00,53.976
774.00,53.987
775.00,53.967
776.00,54.046
777.00,53.980
778.00,54.061
779.00,54.101
780.00,54.016
781.00,53.975
782.00,53.999
783.00,54.100
784.00,54.060
785.00,54.007
786.00,54.048
787.00,54.050
788.00,54.006
789.00,54.004
790.00,54.044
791.00,54.046
792.00,54.009
793.00,54.056
794.00,53.959
795.00,54.014
796.00,53.981
797.00,53.986
798.00,53.970
799.00,53.953
800.00,53.962
801.00,53.927
802.00,53.918
803.00,53.929
804.00,53.833
805.00,53.811
806.00,53.852
807.00,53.897
808.00,53.929
809.00,53.801
810.00,53.853
811.00,53.834
812.00,53.810
813.00,53.801
814.00,53.773
815.00,53.779
816.00,53.796
817.00,53.815
818.00,53.717
819.00,53.708
820.00,53.741
821.00,53.680
822.00,53.686
823.00,53.792
824.00,53.691
825.00,53.642
826.00,53.795
827.00,53.663
828.00,53.688
829.00,53.599
830.00,53.653
831.00,55.769
832.00,55.696
833.00,55.656
834.00,55.677
835.00,55.718
836.00,55.675
837.00,55.634
838.00,55.625
839.00,55.589
840.00,55.590
841.00,55.571
842.00,55.542
843.00,55.538
844.00,55.637
845.00,55.516
846.00,55.507
847.00,55.508
848.00,55.440
849.00,55.454
850.00,55.416
851.00,55.412
852.00,55.378
853.00,55.318
854.00,55.319
855.00,55.262
856.00,55.253
857.00,55.215
858.00,55.214
859.00,55.187
860.00,55.189
861.00,55.150
862.00,55.134
863.00,55.068
864.00,55.188
865.00,55.105
866.00,55.114
867.00,55.061
868.00,55.091
869.00,55.049
870.00,55.209
871.00,55.069
872.00,55.037
873.00,55.050
874.00,54.983
875.00,55.015
876.00,55.001
877.00,55.043
878.00,54.966
879.00,54.967
880.00,54.942
881.00,54.964
882.00,54.939
883.00,54.900
884.00,54.833
885.00,54.971
886.00,54.851
887.00,54.821
888.00,54.814
889.00,54.811
890.00,54.779
891.00,54.800
892.00,54.765
893.00,54.734
894.00,54.731
895.00,54.717
896.00,54.713
897.00,54.721
898.00,54.684
899.00,54.666
900.00,54.631
901.00,54.668
902.00,54.648
903.00,54.603
904.00,54.623
905.00,54.580
906.00,54.566
907.00,54.551
908.00,54.534
909.00,54.500
910.00,54.469
911.00,54.474
912.00,54.463
913.00,54.448
914.00,54.451
915.00,54.414
916.00,54.409
917.00,54.368
918.00,54.382
919.00,54.322
920.00,54.317
921.00,54.318
922.00,54.278
923.00,54.256
924.00,54.166
925.00,54.333
926.00,54.232
927.00,54.214
928.00,54.247
929.00,54.174
930.00,54.172
931.00,54.136
932.00,54.099
933.00,54.099
934.00,54.092
935.00,54.074
936.00,54.088
937.00,54.057
938.00,54.031
939.00,53.979
940.00,54.109
941.00,53.988
942.00,53.960
943.00,53.968
944.00,53.900
945.00,53.914
946.00,53.888
947.00,53.917
948.00,53.872
949.00,53.877
950.00,53.834
951.00,53.822
952.00,53.796
953.00,53.797
954.00,53.724
955.00,53.710
956.00,53.699
957.00,53.695
958.00,53.681
959.00,53.658
960.00,53.643
961.00,53.603
962.00,53.624
963.00,53.597
964.00,53.596
965.00,53.554
966.00,53.567
967.00,53.525
968.00,53.548
969.00,53.499
970.00,53.528
971.00,53.526
972.00,53.484
973.00,53.538
974.00,53.532
975.00,53.543
976.00,53.507
977.00,53.532
978.00,53.551
979.00,53.528
980.00,53.552
981.00,53.532
982.00,53.579
983.00,53.537
984.00,53.561
985.00,53.529
986.00,53.584
987.00,53.565
988.00,53.539
989.00,53.548
990.00,53.542
991.00,53.529
992.00,53.520
993.00,53.506
994.00,53.469
995.00,53.454
996.00,53.481
997.00,53.430
998.00,53.446
999.00,53.415
1000.00,53.389
1001.00,53.381
1002.00,53.384
1003.00,53.420
1004.00,53.381
1005.00,53.357
1006.00,53.347
1007.00,53.352
1008.00,53.333
1009.00,53.310
1010.00,53.320
1011.00,53.284
1012.00,53.302
1013.00,53.274
1014.00,53.264
1015.00,53.264
1016.00,53.211
1017.00,53.226
1018.00,53.205
1019.00,53.208
1020.00,53.183
1021.00,53.182
1022.00,53.160
1023.00,53.164
1024.00,53.144
1025.00,53.123
1026.00,53.138
1027.00,53.077
1028.00,53.111
1029.00,53.071
1030.00,53.041
1031.00,53.060
1032.00,53.064
1033.00,53.034
1034.00,53.031
1035.00,52.997
1036.00,52.958
1037.00,52.947
1038.00,52.909
1039.00,52.909
1040.00,52.877
1041.00,52.868
1042.00,52.866
1043.00,52.848
1044.00,52.863
1045.00,52.842
1046.00,52.866
1047.00,52.856
1048.00,52.872
1049.00,52.833
1050.00,52.857
1051.00,52.873
1052.00,52.893
1053.00,52.884
1054.00,52.893
1055.00,52.906
1056.00,52.915
1057.00,52.950
1058.00,52.930
1059.00,52.904
1060.00,52.897
1061.00,52.951
1062.00,52.906
1063.00,52.911
1064.00,52.915
1065.00,52.935
1066.00,52.886
1067.00,52.908
1068.00,52.907
1069.00,52.906
1070.00,52.865
1071.00,52.841
1072.00,52.857
1073.00,52.830
1074.00,52.810
1075.00,52.788
1076.00,52.807
1077.00,52.800
1078.00,52.809
1079.00,52.783
1080.00,52.790
1081.00,52.781
1082.00,52.766
1083.00,52.751
1084.00,52.762
1085.00,52.750
1086.00,52.754
1087.00,52.746
1088.00,52.748
1089.00,52.747
1090.00,52.726
1091.00,52.729
1092.00,52.745
1093.00,52.694
1094.00,52.699
1095.00,52.689
1096.00,52.679
1097.00,52.663
1098.00,52.665
1099.00,52.638
1100.00,52.657
1101.00,52.633
1102.00,52.636
1103.00,52.627
1104.00,52.630
1105.00,52.619
1106.00,52.610
1107.00,52.566
1108.00,52.574
1109.00,52.558
1110.00,52.572
1111.00,52.557
1112.00,52.545
1113.00,52.539
1114.00,52.554
1115.00,52.531
1116.00,52.543
1117.00,52.521
1118.00,52.515
1119.00,52.493
1120.00,52.506
1121.00,52.489
1122.00,52.509
1123.00,52.472
1124.00,52.488
1125.00,52.495
1126.00,52.478
1127.00,52.476
1128.00,52.486
1129.00,52.451
1130.00,52.456
1131.00,52.441
1132.00,52.452
1133.00,52.441
1134.00,52.428
1135.00,52.404
1136.00,52.427
1137.00,52.406
1138.00,52.415
1139.00,52.391
1140.00,52.402
1141.00,52.391
1142.00,52.381
1143.00,52.388
1144.00,52.402
1145.00,52.374
1146.00,52.385
1147.00,52.407
1148.00,52.376
1149.00,52.366
1150.00,52.367
1151.00,52.354
1152.00,52.353
1153.00,52.353
1154.00,52.359
1155.00,52.362
1156.00,52.344
1157.00,52.356
1158.00,52.364
1159.00,52.330
1160.00,52.345
1161.00,52.350
1162.00,52.320
1163.00,52.350
1164.00,52.332
1165.00,52.338
1166.00,52.330
1167.00,52.317
1168.00,52.327
1169.00,52.349
1170.00,52.318
1171.00,52.318
1172.00,52.325
1173.00,52.314
1174.00,52.332
1175.00,52.328
1176.00,52.321
1177.00,52.308
1178.00,52.303
1179.00,52.308
1180.00,52.327
1181.00,52.314
1182.00,52.316
1183.00,52.313
1184.00,52.307
1185.00,52.326
1186.00,52.315
1187.00,52.317
1188.00,52.315
1189.00,52.310
1190.00,52.297
1191.00,52.326
1192.00,52.282
1193.00,52.316
1194.00,52.302
1195.00,52.287
1196.00,52.313
1197.00,52.303
1198.00,52.303
1199.00,52.301
1200.00,52.291
1201.00,52.308
1202.00,52.324
1203.00,52.290
1204.00,52.286
1205.00,52.299
1206.00,52.291
1207.00,52.292
1208.00,52.255
1209.00,52.300
1210.00,52.284
1211.00,52.283
1212.00,52.282
1213.00,52.285
1214.00,52.284
1215.00,52.276
1216.00,52.310
1217.00,52.302
1218.00,52.317
1219.00,52.305
1220.00,52.303
1221.00,52.323
1222.00,52.295
1223.00,52.329
1224.00,52.333
1225.00,52.310
1226.00,52.291
1227.00,52.313
1228.00,52.285
1229.00,52.295
1230.00,52.316
1231.00,52.323
1232.00,52.368
1233.00,52.364
1234.00,52.380
1235.00,52.368
1236.00,52.350
1237.00,52.350
1238.00,52.365
1239.00,52.360
1240.00,52.369
1241.00,52.353
1242.00,52.383
1243.00,52.402
1244.00,52.378
1245.00,52.387
1246.00,52.392
1247.00,52.382
1248.00,52.374
1249.00,52.379
1250.00,52.366
1251.00,52.388
1252.00,52.384
1253.00,52.381
1254.00,52.417
1255.00,52.408
1256.00,52.391
1257.00,52.422
1258.00,52.393
1259.00,52.413
1260.00,52.458
1261.00,52.430
1262.00,52.454
1263.00,52.440
1264.00,52.450
1265.00,52.457
1266.00,52.440
1267.00,52.446
1268.00,52.465
1269.00,52.445
1270.00,52.497
1271.00,52.493
1272.00,52.483
1273.00,52.487
1274.00,52.487
1275.00,52.489
1276.00,52.526
1277.00,52.503
1278.00,52.533
1279.00,52.537
1280.00,52.513
1281.00,52.526
1282.00,52.544
1283.00,52.545
1284.00,52.565
1285.00,52.514
1286.00,52.546
1287.00,52.581
1288.00,52.499
1289.00,52.549
1290.00,52.602
1291.00,52.585
1292.00,52.572
1293.00,52.565
1294.00,52.578
1295.00,52.608
1296.00,52.584
1297.00,52.613
1298.00,52.632
1299.00,52.620
1300.00,52.624
1301.00,52.649
1302.00,52.649
1303.00,52.648
1304.00,52.633
1305.00,52.675
1306.00,52.707
1307.00,52.697
1308.00,52.689
1309.00,52.704
1310.00,52.689
1311.00,52.687
1312.00,52.706
1313.00,52.687
1314.00,52.733
1315.00,52.718
1316.00,52.717
1317.00,52.742
1318.00,52.742
1319.00,52.734
1320.00,52.761
1321.00,52.875
1322.00,52.915
1323.00,52.890
1324.00,52.873
1325.00,52.876
1326.00,52.906
1327.00,52.872
1328.00,52.878
1329.00,52.865
1330.00,52.884
1331.00,52.883
1332.00,52.873
1333.00,52.895
1334.00,52.915
1335.00,52.924
1336.00,52.958
1337.00,53.007
1338.00,53.036
1339.00,53.056
1340.00,53.094
1341.00,53.171
1342.00,53.227
1343.00,53.248
1344.00,53.332
1345.00,53.486
1346.00,53.422
1347.00,53.496
1348.00,53.487
1349.00,53.516
1350.00,53.526
1351.00,53.537
1352.00,53.560
1353.00,53.630
1354.00,53.590
1355.00,53.578
1356.00,53.539
1357.00,53.574
1358.00,53.623
1359.00,53.630
1360.00,53.587
1361.00,53.631
1362.00,53.672
1363.00,53.646
1364.00,53.846
1365.00,53.955
1366.00,53.658
1367.00,53.619
1368.00,53.528
1369.00,53.627
1370.00,53.656
1371.00,53.634
1372.00,53.627
1373.00,53.591
1374.00,53.621
1375.00,53.619
1376.00,53.561
1377.00,53.586
1378.00,53.619
1379.00,53.665
1380.00,53.645
1381.00,53.660
1382.00,53.527
1383.00,53.829
1384.00,53.567
1385.00,53.512
1386.00,53.655
1387.00,53.565
1388.00,53.501
1389.00,53.540
1390.00,53.646
1391.00,53.651
1392.00,53.514
1393.00,53.549
1394.00,53.646
1395.00,53.504
1396.00,53.780
1397.00,53.595
1398.00,53.653
1399.00,53.656
1400.00,53.487
1401.00,53.559
1402.00,53.690
1403.00,53.630
1404.00,53.576
1405.00,53.621
1406.00,53.572
1407.00,53.638
1408.00,53.609
1409.00,53.595
1410.00,53.631
1411.00,53.669
1412.00,53.662
1413.00,53.659
1414.00,53.645
1415.00,53.660
1416.00,53.670
1417.00,53.671
1418.00,53.701
1419.00,53.659
1420.00,53.691
1421.00,53.714
1422.00,53.793
1423.00,53.750
1424.00,53.777
1425.00,53.780
1426.00,53.788
1427.00,53.811
1428.00,53.800
1429.00,53.818
1430.00,53.849
1431.00,53.828
1432.00,53.866
1433.00,53.890
1434.00,53.874
1435.00,53.936
1436.00,53.956
1437.00,53.919
1438.00,53.947
1439.00,53.968
1440.00,53.985
1441.00,54.013
1442.00,53.995
1443.00,54.062
1444.00,54.072
1445.00,54.064
1446.00,54.060
1447.00,54.113
1448.00,54.108
1449.00,54.146
1450.00,54.122
1451.00,54.146
1452.00,54.168
1453.00,54.187
1454.00,54.166
1455.00,54.234
1456.00,54.231
1457.00,54.243
1458.00,54.232
1459.00,54.242
1460.00,54.237
1461.00,54.246
1462.00,54.302
1463.00,54.310
1464.00,54.305
1465.00,54.351
1466.00,54.349
1467.00,54.366
1468.00,54.417
1469.00,54.421
1470.00,54.406
1471.00,54.431
1472.00,54.433
1473.00,54.456
1474.00,54.478
1475.00,54.468
1476.00,54.492
1477.00,54.494
1478.00,54.500
1479.00,54.531
1480.00,54.517
1481.00,54.518
1482.00,54.555
1483.00,54.562
1484.00,54.598
1485.00,54.617
1486.00,54.596
1487.00,54.620
1488.00,54.652
1489.00,54.649
1490.00,54.652
1491.00,54.679
1492.00,54.652
1493.00,54.660
1494.00,54.682
1495.00,54.713
1496.00,54.712
1497.00,54.703
1498.00,54.705
1499.00,54.759
1500.00,54.737
1501.00, 
1502.00, 
1503.00, 
1504.00, 
1505.00, 
1506.00, 
1507.00, 
1508.00, 
1509.00, 
1510.00, 
1511.00, 
1512.00, 
1513.00, 
1514.00, 
1515.00, 
1516.00, 
1517.00, 
1518.00, 
1519.00, 
1520.00, 
1521.00, 
1522.00, 
1523.00, 
1524.00, 
1525.00, 
1526.00, 
1527.00, 
1528.00, 
1529.00, 
1530.00, 
1531.00, 
1532.00, 
1533.00, 
1534.00, 
1535.00, 
1536.00, 
1537.00, 
1538.00, 
1539.00, 
1540.00, 
1541.00, 
1542.00, 
1543.00, 
1544.00, 
1545.00, 
1546.00, 
1547.00, 
1548.00, 
1549.00, 
1550.00, 
1551.00, 
1552.00, 
1553.00, 
1554.00, 
1555.00, 
1556.00, 
1557.00, 
1558.00, 
1559.00, 
1560.00, 
1561.00, 
1562.00, 
1563.00, 
1564.00, 
1565.00, 
1566.00, 
1567.00, 
1568.00, 
1569.00, 
1570.00, 
1571.00, 
1572.00, 
1573.00, 
1574.00, 
1575.00, 
1576.00, 
1577.00, 
1578.00, 
1579.00, 
1580.00, 
1581.00, 
1582.00, 
1583.00, 
1584.00, 
1585.00, 
1586.00, 
1587.00, 
1588.00, 
1589.00, 
1590.00, 
1591.00, 
1592.00, 
1593.00, 
1594.00, 
1595.00, 
1596.00, 
1597.00, 
1598.00, 
1599.00, 
1600.00, 
1601.00, 
1602.00, 
1603.00, 
1604.00, 
1605.00, 
1606.00, 
1607.00, 
1608.00, 
1609.00, 
1610.00, 
1611.00, 
1612.00, 
1613.00, 
1614.00, 
1615.00, 
1616.00, 
1617.00, 
1618.00, 
1619.00, 
1620.00, 
1621.00, 
1622.00, 
1623.00, 
1624.00, 
1625.00, 
1626.00, 
1627.00, 
1628.00, 
1629.00, 
1630.00, 
1631.00, 
1632.00, 
1633.00, 
1634.00, 
1635.00, 
1636.00, 
1637.00, 
1638.00, 
1639.00, 
1640.00, 
1641.00, 
1642.00, 
1643.00, 
1644.00, 
1645.00, 
1646.00, 
1647.00, 
1648.00, 
1649.00, 
1650.00, 
1651.00, 
1652.00, 
1653.00, 
1654.00, 
1655.00, 
1656.00, 
1657.00, 
1658.00, 
1659.00, 
1660.00, 
1661.00, 
1662.00, 
1663.00, 
1664.00, 
1665.00, 
1666.00, 
1667.00, 
1668.00, 
1669.00, 
1670.00, 
1671.00, 
1672.00, 
1673.00, 
1674.00, 
1675.00, 
1676.00, 
1677.00, 
1678.00, 
1679.00, 
1680.00, 
1681.00, 
1682.00, 
1683.00, 
1684.00, 
1685.00, 
1686.00, 
1687.00, 
1688.00, 
1689.00, 
1690.00, 
1691.00, 
1692.00, 
1693.00, 
1694.00, 
1695.00, 
1696.00, 
1697.00, 
1698.00, 
1699.00, 
1700.00, 
1701.00, 
1702.00, 
1703.00, 
1704.00, 
1705.00, 
1706.00, 
1707.00, 
1708.00, 
1709.00, 
1710.00, 
1711.00, 
1712.00, 
1713.00, 
1714.00, 
1715.00, 
1716.00, 
1717.00, 
1718.00, 
1719.00, 
1720.00, 
1721.00, 
1722.00, 
1723.00, 
1724.00, 
1725.00, 
1726.00, 
1727.00, 
1728.00, 
1729.00, 
1730.00, 
1731.00, 
1732.00, 
1733.00, 
1734.00, 
1735.00, 
1736.00, 
1737.00, 
1738.00, 
1739.00, 
1740.00, 
1741.00, 
1742.00, 
1743.00, 
1744.00, 
1745.00, 
1746.00, 
1747.00, 
1748.00, 
1749.00, 
1750.00, 
1751.00, 
1752.00, 
1753.00, 
1754.00, 
1755.00, 
1756.00, 
1757.00, 
1758.00, 
1759.00, 
1760.00, 
1761.00, 
1762.00, 
1763.00, 
1764.00, 
1765.00, 
1766.00, 
1767.00, 
1768.00, 
1769.00, 
1770.00, 
1771.00, 
1772.00, 
1773.00, 
1774.00, 
1775.00, 
1776.00, 
1777.00, 
1778.00, 
1779.00, 
1780.00, 
1781.00, 
1782.00, 
1783.00, 
1784.00, 
1785.00, 
1786.00, 
1787.00, 
1788.00, 
1789.00, 
1790.00, 
1791.00, 
1792.00, 
1793.00, 
1794.00, 
1795.00, 
1796.00, 
1797.00, 
1798.00, 
1799.00, 
1800.00, 
1801.00, 
1802.00, 
1803.00, 
1804.00, 
1805.00, 
1806.00, 
1807.00, 
1808.00, 
1809.00, 
1810.00, 
1811.00, 
1812.00, 
1813.00, 
1814.00, 
1815.00, 
1816.00, 
1817.00, 
1818.00, 
1819.00, 
1820.00, 
1821.00, 
1822.00, 
1823.00, 
1824.00, 
1825.00, 
1826.00, 
1827.00, 
1828.00, 
1829.00, 
1830.00, 
1831.00, 
1832.00, 
1833.00, 
1834.00, 
1835.00, 
1836.00, 
1837.00, 
1838.00, 
1839.00, 
1840.00, 
1841.00, 
1842.00, 
1843.00, 
1844.00, 
1845.00, 
1846.00, 
1847.00, 
1848.00, 
1849.00, 
1850.00, 
1851.00, 
1852.00, 
1853.00, 
1854.00, 
1855.00, 
1856.00, 
1857.00, 
1858.00, 
1859.00, 
1860.00, 
1861.00, 
1862.00, 
1863.00, 
1864.00, 
1865.00, 
1866.00, 
1867.00, 
1868.00, 
1869.00, 
1870.00, 
1871.00, 
1872.00, 
1873.00, 
1874.00, 
1875.00, 
1876.00, 
1877.00, 
1878.00, 
1879.00, 
1880.00, 
1881.00, 
1882.00, 
1883.00, 
1884.00, 
1885.00, 
1886.00, 
1887.00, 
1888.00, 
1889.00, 
1890.00, 
1891.00, 
1892.00, 
1893.00, 
1894.00, 
1895.00, 
1896.00, 
1897.00, 
1898.00, 
1899.00, 
1900.00, 
1901.00, 
1902.00, 
1903.00, 
1904.00, 
1905.00, 
1906.00, 
1907.00, 
1908.00, 
1909.00, 
1910.00, 
1911.00, 
1912.00, 
1913.00, 
1914.00, 
1915.00, 
1916.00, 
1917.00, 
1918.00, 
1919.00, 
1920.00, 
1921.00, 
1922.00, 
1923.00, 
1924.00, 
1925.00, 
1926.00, 
1927.00, 
1928.00, 
1929.00, 
1930.00, 
1931.00, 
1932.00, 
1933.00, 
1934.00, 
1935.00, 
1936.00, 
1937.00, 
1938.00, 
1939.00, 
1940.00, 
1941.00, 
1942.00, 
1943.00, 
1944.00, 
1945.00, 
1946.00, 
1947.00, 
1948.00, 
1949.00, 
1950.00, 
1951.00, 
1952.00, 
1953.00, 
1954.00, 
1955.00, 
1956.00, 
1957.00, 
1958.00, 
1959.00, 
1960.00, 
1961.00, 
1962.00, 
1963.00, 
1964.00, 
1965.00, 
1966.00, 
1967.00, 
1968.00, 
1969.00, 
1970.00, 
1971.00, 
1972.00, 
1973.00, 
1974.00, 
1975.00, 
1976.00, 
1977.00, 
1978.00, 
1979.00, 
1980.00, 
1981.00, 
1982.00, 
1983.00, 
1984.00, 
1985.00, 
1986.00, 
1987.00, 
1988.00, 
1989.00, 
1990.00, 
1991.00, 
1992.00, 
1993.00, 
1994.00, 
1995.00, 
1996.00, 
1997.00, 
1998.00, 
1999.00, 
2000.00, 
2001.00, 
2002.00, 
2003.00, 
2004.00, 
2005.00, 
2006.00, 
2007.00, 
2008.00, 
2009.00, 
2010.00, 
2011.00, 
2012.00, 
2013.00, 
2014.00, 
2015.00, 
2016.00, 
2017.00, 
2018.00, 
2019.00, 
2020.00, 
2021.00, 
2022.00, 
2023.00, 
2024.00, 
2025.00, 
2026.00, 
2027.00, 
2028.00, 
2029.00, 
2030.00, 
2031.00, 
2032.00, 
2033.00, 
2034.00, 
2035.00, 
2036.00, 
2037.00, 
2038.00, 
2039.00, 
2040.00, 
2041.00, 
2042.00, 
2043.00, 
2044.00, 
2045.00, 
2046.00, 
2047.00, 
2048.00, 
2049.00, 
2050.00, 
2051.00, 
2052.00, 
2053.00, 
2054.00, 
2055.00, 
2056.00, 
2057.00, 
2058.00, 
2059.00, 
2060.00, 
2061.00, 
2062.00, 
2063.00, 
2064.00, 
2065.00, 
2066.00, 
2067.00, 
2068.00, 
2069.00, 
2070.00, 
2071.00, 
2072.00, 
2073.00, 
2074.00, 
2075.00, 
2076.00, 
2077.00, 
2078.00, 
2079.00, 
2080.00, 
2081.00, 
2082.00, 
2083.00, 
2084.00, 
2085.00, 
2086.00, 
2087.00, 
2088.00, 
2089.00, 
2090.00, 
2091.00, 
2092.00, 
2093.00, 
2094.00, 
2095.00, 
2096.00, 
2097.00, 
2098.00, 
2099.00, 
2100.00, 
2101.00, 
2102.00, 
2103.00, 
2104.00, 
2105.00, 
2106.00, 
2107.00, 
2108.00, 
2109.00, 
2110.00, 
2111.00, 
2112.00, 
2113.00, 
2114.00, 
2115.00, 
2116.00, 
2117.00, 
2118.00, 
2119.00, 
2120.00, 
2121.00, 
2122.00, 
2123.00, 
2124.00, 
2125.00, 
2126.00, 
2127.00, 
2128.00, 
2129.00, 
2130.00, 
2131.00, 
2132.00, 
2133.00, 
2134.00, 
2135.00, 
2136.00, 
2137.00, 
2138.00, 
2139.00, 
2140.00, 
2141.00, 
2142.00, 
2143.00, 
2144.00, 
2145.00, 
2146.00, 
2147.00, 
2148.00, 
2149.00, 
2150.00, 
2151.00, 
2152.00, 
2153.00, 
2154.00, 
2155.00, 
2156.00, 
2157.00, 
2158.00, 
2159.00, 
2160.00, 
2161.00, 
2162.00, 
2163.00, 
2164.00, 
2165.00, 
2166.00, 
2167.00, 
2168.00, 
2169.00, 
2170.00, 
2171.00, 
2172.00, 
2173.00, 
2174.00, 
2175.00, 
2176.00, 
2177.00, 
2178.00, 
2179.00, 
2180.00, 
2181.00, 
2182.00, 
2183.00, 
2184.00, 
2185.00, 
2186.00, 
2187.00, 
2188.00, 
2189.00, 
2190.00, 
2191.00, 
2192.00, 
2193.00, 
2194.00, 
2195.00, 
2196.00, 
2197.00, 
2198.00, 
2199.00, 
2200.00, 
2201.00, 
2202.00, 
2203.00, 
2204.00, 
2205.00, 
2206.00, 
2207.00, 
2208.00, 
2209.00, 
2210.00, 
2211.00, 
2212.00, 
2213.00, 
2214.00, 
2215.00, 
2216.00, 
2217.00, 
2218.00, 
2219.00, 
2220.00, 
2221.00, 
2222.00, 
2223.00, 
2224.00, 
2225.00, 
2226.00, 
2227.00, 
2228.00, 
2229.00, 
2230.00, 
2231.00, 
2232.00, 
2233.00, 
2234.00, 
2235.00, 
2236.00, 
2237.00, 
2238.00, 
2239.00, 
2240.00, 
2241.00, 
2242.00, 
2243.00, 
2244.00, 
2245.00, 
2246.00, 
2247.00, 
2248.00, 
2249.00, 
2250.00, 
2251.00, 
2252.00, 
2253.00, 
2254.00, 
2255.00, 
2256.00, 
2257.00, 
2258.00, 
2259.00, 
2260.00, 
2261.00, 
2262.00, 
2263.00, 
2264.00, 
2265.00, 
2266.00, 
2267.00, 
2268.00, 
2269.00, 
2270.00, 
2271.00, 
2272.00, 
2273.00, 
2274.00, 
2275.00, 
2276.00, 
2277.00, 
2278.00, 
2279.00, 
2280.00, 
2281.00, 
2282.00, 
2283.00, 
2284.00, 
2285.00, 
2286.00, 
2287.00, 
2288.00, 
2289.00, 
2290.00, 
2291.00, 
2292.00, 
2293.00, 
2294.00, 
2295.00, 
2296.00, 
2297.00, 
2298.00, 
2299.00, 
2300.00, 
2301.00, 
2302.00, 
2303.00, 
2304.00, 
2305.00, 
2306.00, 
2307.00, 
2308.00, 
2309.00, 
2310.00, 
2311.00, 
2312.00, 
2313.00, 
2314.00, 
2315.00, 
2316.00, 
2317.00, 
2318.00, 
2319.00, 
2320.00, 
2321.00, 
2322.00, 
2323.00, 
2324.00, 
2325.00, 
2326.00, 
2327.00, 
2328.00, 
2329.00, 
2330.00, 
2331.00, 
2332.00, 
2333.00, 
2334.00, 
2335.00, 
2336.00, 
2337.00, 
2338.00, 
2339.00, 
2340.00, 
2341.00, 
2342.00, 
2343.00, 
2344.00, 
2345.00, 
2346.00, 
2347.00, 
2348.00, 
2349.00, 
2350.00, 
2351.00, 
2352.00, 
2353.00, 
2354.00, 
2355.00, 
2356.00, 
2357.00, 
2358.00, 
2359.00, 
2360.00, 
2361.00, 
2362.00, 
2363.00, 
2364.00, 
2365.00, 
2366.00, 
2367.00, 
2368.00, 
2369.00, 
2370.00, 
2371.00, 
2372.00, 
2373.00, 
2374.00, 
2375.00, 
2376.00, 
2377.00, 
2378.00, 
2379.00, 
2380.00, 
2381.00, 
2382.00, 
2383.00, 
2384.00, 
2385.00, 
2386.00, 
2387.00, 
2388.00, 
2389.00, 
2390.00, 
2391.00, 
2392.00, 
2393.00, 
2394.00, 
2395.00, 
2396.00, 
2397.00, 
2398.00, 
2399.00, 
2400.00, 
2401.00, 
2402.00, 
2403.00, 
2404.00, 
2405.00, 
2406.00, 
2407.00, 
2408.00, 
2409.00, 
2410.00, 
2411.00, 
2412.00, 
2413.00, 
2414.00, 
2415.00, 
2416.00, 
2417.00, 
2418.00, 
2419.00, 
2420.00, 
2421.00, 
2422.00, 
2423.00, 
2424.00, 
2425.00, 
2426.00, 
2427.00, 
2428.00, 
2429.00, 
2430.00, 
2431.00, 
2432.00, 
2433.00, 
2434.00, 
2435.00, 
2436.00, 
2437.00, 
2438.00, 
2439.00, 
2440.00, 
2441.00, 
2442.00, 
2443.00, 
2444.00, 
2445.00, 
2446.00, 
2447.00, 
2448.00, 
2449.00, 
2450.00, 
2451.00, 
2452.00, 
2453.00, 
2454.00, 
2455.00, 
2456.00, 
2457.00, 
2458.00, 
2459.00, 
2460.00, 
2461.00, 
2462.00, 
2463.00, 
2464.00, 
2465.00, 
2466.00, 
2467.00, 
2468.00, 
2469.00, 
2470.00, 
2471.00, 
2472.00, 
2473.00, 
2474.00, 
2475.00, 
2476.00, 
2477.00, 
2478.00, 
2479.00, 
2480.00, 
2481.00, 
2482.00, 
2483.00, 
2484.00, 
2485.00, 
2486.00, 
2487.00, 
2488.00, 
2489.00, 
2490.00, 
2491.00, 
2492.00, 
2493.00, 
2494.00, 
2495.00, 
2496.00, 
2497.00, 
2498.00, 
2499.00, 
2500.00, 
2501.00, 
2502.00, 
2503.00, 
2504.00, 
2505.00, 
2506.00, 
2507.00, 
2508.00, 
2509.00, 
2510.00, 
2511.00, 
2512.00, 
2513.00, 
2514.00, 
2515.00, 
2516.00, 
2517.00, 
2518.00, 
2519.00, 
2520.00, 
2521.00, 
2522.00, 
2523.00, 
2524.00, 
2525.00, 
2526.00, 
2527.00, 
2528.00, 
2529.00, 
2530.00, 
2531.00, 
2532.00, 
2533.00, 
2534.00, 
2535.00, 
2536.00, 
2537.00, 
2538.00, 
2539.00, 
2540.00, 
2541.00, 
2542.00, 
2543.00, 
2544.00, 
2545.00, 
2546.00, 
2547.00, 
2548.00, 
2549.00, 
2550.00, 
2551.00, 
2552.00, 
2553.00, 
2554.00, 
2555.00, 
2556.00, 
2557.00, 
2558.00, 
2559.00, 
2560.00, 
2561.00, 
2562.00, 
2563.00, 
2564.00, 
2565.00, 
2566.00, 
2567.00, 
2568.00, 
2569.00, 
2570.00, 
2571.00, 
2572.00, 
2573.00, 
2574.00, 
2575.00, 
2576.00, 
2577.00, 
2578.00, 
2579.00, 
2580.00, 
2581.00, 
2582.00, 
2583.00, 
2584.00, 
2585.00, 
2586.00, 
2587.00, 
2588.00, 
2589.00, 
2590.00, 
2591.00, 
2592.00, 
2593.00, 
2594.00, 
2595.00, 
2596.00, 
2597.00, 
2598.00, 
2599.00, 
2600.00, 
