"1bP2 - RawData"
"Wavelength nm.","T%"
200.00,0.004
201.00,0.002
202.00,0.002
203.00,0.001
204.00,0.002
205.00,0.002
206.00,-0.001
207.00,-0.003
208.00,0.000
209.00,-0.001
210.00,0.002
211.00,0.001
212.00,0.001
213.00,0.003
214.00,-0.000
215.00,0.000
216.00,-0.000
217.00,0.002
218.00,0.001
219.00,-0.000
220.00,-0.002
221.00,0.004
222.00,0.001
223.00,0.001
224.00,0.001
225.00,0.001
226.00,0.002
227.00,-0.001
228.00,-0.001
229.00,-0.001
230.00,0.001
231.00,0.001
232.00,0.000
233.00,0.001
234.00,0.001
235.00,0.001
236.00,-0.000
237.00,0.002
238.00,-0.000
239.00,0.000
240.00,0.000
241.00,-0.000
242.00,-0.001
243.00,-0.001
244.00,0.001
245.00,-0.001
246.00,0.000
247.00,0.001
248.00,0.000
249.00,0.000
250.00,-0.000
251.00,-0.001
252.00,0.002
253.00,0.001
254.00,-0.000
255.00,0.001
256.00,-0.001
257.00,0.001
258.00,-0.001
259.00,-0.001
260.00,-0.000
261.00,-0.001
262.00,0.000
263.00,0.000
264.00,-0.001
265.00,-0.002
266.00,-0.000
267.00,0.001
268.00,-0.001
269.00,-0.001
270.00,-0.001
271.00,0.000
272.00,0.001
273.00,-0.001
274.00,-0.001
275.00,-0.002
276.00,0.001
277.00,0.002
278.00,0.000
279.00,-0.000
280.00,0.001
281.00,-0.000
282.00,-0.001
283.00,-0.001
284.00,0.001
285.00,-0.001
286.00,-0.001
287.00,-0.000
288.00,-0.000
289.00,-0.000
290.00,-0.000
291.00,-0.002
292.00,0.000
293.00,-0.002
294.00,0.001
295.00,-0.002
296.00,0.000
297.00,0.002
298.00,0.000
299.00,0.003
300.00,0.003
301.00,0.005
302.00,0.008
303.00,0.012
304.00,0.019
305.00,0.034
306.00,0.048
307.00,0.074
308.00,0.117
309.00,0.170
310.00,0.241
311.00,0.321
312.00,0.439
313.00,0.583
314.00,0.761
315.00,0.978
316.00,1.222
317.00,1.526
318.00,1.872
319.00,2.256
320.00,2.699
321.00,3.213
322.00,3.770
323.00,4.375
324.00,4.913
325.00,5.647
326.00,6.299
327.00,7.041
328.00,7.791
329.00,8.524
330.00,9.313
331.00,10.045
332.00,10.862
333.00,11.669
334.00,12.414
335.00,13.230
336.00,13.984
337.00,14.738
338.00,15.469
339.00,16.119
340.00,16.819
341.00,17.508
342.00,18.074
343.00,18.657
344.00,19.267
345.00,19.777
346.00,20.289
347.00,20.767
348.00,21.184
349.00,21.565
350.00,21.925
351.00,22.336
352.00,22.634
353.00,22.906
354.00,23.232
355.00,23.528
356.00,23.769
357.00,23.954
358.00,24.151
359.00,24.384
360.00,24.579
361.00,24.674
362.00,24.790
363.00,24.963
364.00,25.053
365.00,25.175
366.00,25.217
367.00,25.306
368.00,25.388
369.00,25.376
370.00,25.447
371.00,25.413
372.00,25.371
373.00,25.378
374.00,25.330
375.00,25.359
376.00,25.309
377.00,25.214
378.00,25.167
379.00,25.110
380.00,25.045
381.00,25.007
382.00,25.020
383.00,25.037
384.00,25.088
385.00,25.115
386.00,25.093
387.00,25.189
388.00,25.167
389.00,25.219
390.00,25.223
391.00,25.214
392.00,25.253
393.00,25.249
394.00,25.243
395.00,25.263
396.00,25.245
397.00,25.254
398.00,25.243
399.00,25.195
400.00,25.242
401.00,25.218
402.00,25.200
403.00,25.196
404.00,25.143
405.00,25.148
406.00,25.155
407.00,25.099
408.00,25.115
409.00,25.033
410.00,24.973
411.00,25.002
412.00,24.911
413.00,24.967
414.00,24.902
415.00,24.952
416.00,24.991
417.00,24.969
418.00,25.013
419.00,25.021
420.00,25.014
421.00,25.100
422.00,25.141
423.00,25.135
424.00,25.173
425.00,25.205
426.00,25.242
427.00,25.283
428.00,25.305
429.00,25.334
430.00,25.404
431.00,25.459
432.00,25.501
433.00,25.555
434.00,25.579
435.00,25.617
436.00,25.725
437.00,25.779
438.00,25.853
439.00,25.871
440.00,25.980
441.00,26.095
442.00,26.140
443.00,26.244
444.00,26.334
445.00,26.364
446.00,26.482
447.00,26.515
448.00,26.628
449.00,26.737
450.00,26.809
451.00,26.946
452.00,27.037
453.00,27.133
454.00,27.254
455.00,27.378
456.00,27.431
457.00,27.602
458.00,27.697
459.00,27.789
460.00,27.902
461.00,28.052
462.00,28.157
463.00,28.276
464.00,28.340
465.00,28.534
466.00,28.614
467.00,28.727
468.00,28.800
469.00,28.999
470.00,29.028
471.00,29.215
472.00,29.285
473.00,29.396
474.00,29.515
475.00,29.671
476.00,29.776
477.00,29.892
478.00,30.015
479.00,30.120
480.00,30.314
481.00,30.474
482.00,30.613
483.00,30.761
484.00,30.870
485.00,31.069
486.00,31.161
487.00,31.318
488.00,31.492
489.00,31.566
490.00,31.692
491.00,31.851
492.00,31.960
493.00,32.138
494.00,32.277
495.00,32.336
496.00,32.415
497.00,32.561
498.00,32.723
499.00,32.819
500.00,32.906
501.00,33.001
502.00,33.188
503.00,33.316
504.00,33.422
505.00,33.531
506.00,33.658
507.00,33.734
508.00,33.880
509.00,33.980
510.00,34.148
511.00,34.250
512.00,34.319
513.00,34.490
514.00,34.622
515.00,34.660
516.00,34.838
517.00,34.898
518.00,34.989
519.00,35.065
520.00,35.204
521.00,35.256
522.00,35.334
523.00,35.512
524.00,35.510
525.00,35.701
526.00,35.715
527.00,35.815
528.00,35.868
529.00,35.956
530.00,36.046
531.00,36.172
532.00,36.244
533.00,36.314
534.00,36.395
535.00,36.522
536.00,36.609
537.00,36.609
538.00,36.704
539.00,36.846
540.00,36.835
541.00,36.972
542.00,37.016
543.00,37.054
544.00,37.099
545.00,37.204
546.00,37.247
547.00,37.310
548.00,37.328
549.00,37.429
550.00,37.499
551.00,37.528
552.00,37.597
553.00,37.663
554.00,37.745
555.00,37.803
556.00,37.806
557.00,37.871
558.00,37.949
559.00,38.005
560.00,38.041
561.00,38.107
562.00,38.179
563.00,38.188
564.00,38.251
565.00,38.271
566.00,38.295
567.00,38.317
568.00,38.376
569.00,38.414
570.00,38.426
571.00,38.471
572.00,38.521
573.00,38.498
574.00,38.578
575.00,38.603
576.00,38.635
577.00,38.694
578.00,38.730
579.00,38.779
580.00,38.770
581.00,38.962
582.00,39.000
583.00,39.091
584.00,39.114
585.00,39.172
586.00,39.258
587.00,39.272
588.00,39.369
589.00,39.391
590.00,39.451
591.00,39.496
592.00,39.537
593.00,39.507
594.00,39.579
595.00,39.591
596.00,39.636
597.00,39.682
598.00,39.703
599.00,39.732
600.00,39.800
601.00,39.825
602.00,39.922
603.00,39.947
604.00,39.965
605.00,39.997
606.00,40.006
607.00,40.136
608.00,40.151
609.00,40.145
610.00,40.276
611.00,40.225
612.00,40.294
613.00,40.337
614.00,40.364
615.00,40.364
616.00,40.459
617.00,40.421
618.00,40.500
619.00,40.601
620.00,40.564
621.00,40.656
622.00,40.736
623.00,40.806
624.00,40.902
625.00,40.916
626.00,41.065
627.00,41.008
628.00,41.078
629.00,41.105
630.00,41.195
631.00,41.179
632.00,41.249
633.00,41.343
634.00,41.439
635.00,41.429
636.00,41.507
637.00,41.656
638.00,41.675
639.00,41.769
640.00,41.837
641.00,41.907
642.00,41.956
643.00,41.994
644.00,42.048
645.00,42.162
646.00,42.232
647.00,42.264
648.00,42.388
649.00,42.383
650.00,42.485
651.00,42.563
652.00,42.560
653.00,42.801
654.00,42.768
655.00,42.772
656.00,42.836
657.00,43.061
658.00,43.082
659.00,43.225
660.00,43.371
661.00,43.431
662.00,43.429
663.00,43.439
664.00,43.583
665.00,43.794
666.00,43.633
667.00,43.848
668.00,43.811
669.00,44.011
670.00,44.126
671.00,44.387
672.00,44.110
673.00,44.274
674.00,44.398
675.00,44.461
676.00,44.546
677.00,44.717
678.00,44.659
679.00,44.771
680.00,44.868
681.00,44.925
682.00,45.111
683.00,45.112
684.00,45.321
685.00,45.462
686.00,45.334
687.00,45.370
688.00,45.538
689.00,45.480
690.00,45.652
691.00,45.772
692.00,45.853
693.00,45.843
694.00,45.899
695.00,46.050
696.00,46.069
697.00,46.138
698.00,46.191
699.00,46.294
700.00,46.535
701.00,46.495
702.00,46.497
703.00,46.710
704.00,46.910
705.00,46.844
706.00,46.793
707.00,47.112
708.00,46.957
709.00,47.052
710.00,47.316
711.00,47.206
712.00,47.246
713.00,47.266
714.00,47.300
715.00,47.407
716.00,47.542
717.00,47.593
718.00,47.601
719.00,47.728
720.00,47.706
721.00,52.316
722.00,52.358
723.00,52.344
724.00,52.403
725.00,52.419
726.00,52.413
727.00,52.376
728.00,52.402
729.00,52.450
730.00,52.454
731.00,52.463
732.00,52.435
733.00,52.524
734.00,52.608
735.00,52.613
736.00,52.650
737.00,52.612
738.00,52.678
739.00,52.699
740.00,52.683
741.00,52.804
742.00,52.785
743.00,52.811
744.00,52.729
745.00,52.799
746.00,52.799
747.00,52.808
748.00,52.869
749.00,52.750
750.00,52.698
751.00,52.805
752.00,52.839
753.00,52.690
754.00,52.746
755.00,52.805
756.00,52.875
757.00,52.846
758.00,52.864
759.00,52.873
760.00,52.850
761.00,52.825
762.00,52.797
763.00,52.852
764.00,52.868
765.00,52.832
766.00,52.917
767.00,52.936
768.00,52.961
769.00,52.958
770.00,52.957
771.00,52.920
772.00,52.957
773.00,52.908
774.00,53.013
775.00,52.987
776.00,53.020
777.00,52.993
778.00,53.002
779.00,53.015
780.00,52.995
781.00,52.972
782.00,52.935
783.00,53.024
784.00,53.000
785.00,52.961
786.00,52.998
787.00,52.959
788.00,52.973
789.00,52.926
790.00,52.984
791.00,52.996
792.00,52.971
793.00,53.005
794.00,52.899
795.00,52.965
796.00,52.890
797.00,52.897
798.00,52.837
799.00,52.822
800.00,52.846
801.00,52.844
802.00,52.808
803.00,52.819
804.00,52.670
805.00,52.785
806.00,52.715
807.00,52.758
808.00,52.759
809.00,52.678
810.00,52.703
811.00,52.623
812.00,52.652
813.00,52.662
814.00,52.650
815.00,52.675
816.00,52.648
817.00,52.741
818.00,52.587
819.00,52.603
820.00,52.575
821.00,52.630
822.00,52.567
823.00,52.673
824.00,52.573
825.00,52.582
826.00,52.584
827.00,52.447
828.00,52.607
829.00,52.412
830.00,52.473
831.00,54.688
832.00,54.595
833.00,54.605
834.00,54.645
835.00,54.618
836.00,54.660
837.00,54.596
838.00,54.592
839.00,54.562
840.00,54.539
841.00,54.515
842.00,54.488
843.00,54.482
844.00,54.448
845.00,54.422
846.00,54.409
847.00,54.381
848.00,54.350
849.00,54.389
850.00,54.318
851.00,54.307
852.00,54.289
853.00,54.211
854.00,54.199
855.00,54.143
856.00,54.127
857.00,54.070
858.00,54.076
859.00,53.998
860.00,54.065
861.00,54.150
862.00,54.048
863.00,54.007
864.00,54.005
865.00,54.011
866.00,53.960
867.00,53.930
868.00,54.003
869.00,53.983
870.00,53.895
871.00,53.922
872.00,53.933
873.00,53.936
874.00,53.892
875.00,53.913
876.00,53.890
877.00,53.940
878.00,53.871
879.00,53.895
880.00,53.853
881.00,53.874
882.00,53.829
883.00,53.794
884.00,53.796
885.00,53.730
886.00,53.743
887.00,53.715
888.00,53.698
889.00,53.674
890.00,53.617
891.00,53.757
892.00,53.632
893.00,53.609
894.00,53.607
895.00,53.598
896.00,53.577
897.00,53.527
898.00,53.477
899.00,53.671
900.00,53.524
901.00,53.535
902.00,53.505
903.00,53.414
904.00,53.444
905.00,53.439
906.00,53.441
907.00,53.418
908.00,53.387
909.00,53.369
910.00,53.363
911.00,53.337
912.00,53.330
913.00,53.316
914.00,53.303
915.00,53.290
916.00,53.277
917.00,53.251
918.00,53.244
919.00,53.205
920.00,53.197
921.00,53.153
922.00,53.124
923.00,53.115
924.00,53.140
925.00,53.126
926.00,53.091
927.00,53.076
928.00,53.095
929.00,53.017
930.00,53.009
931.00,53.049
932.00,52.990
933.00,52.968
934.00,52.966
935.00,52.967
936.00,52.932
937.00,52.915
938.00,52.914
939.00,52.908
940.00,52.896
941.00,52.862
942.00,52.830
943.00,52.828
944.00,52.737
945.00,52.779
946.00,52.886
947.00,52.793
948.00,52.747
949.00,52.730
950.00,52.698
951.00,52.691
952.00,52.656
953.00,52.631
954.00,52.590
955.00,52.570
956.00,52.552
957.00,52.539
958.00,52.536
959.00,52.511
960.00,52.495
961.00,52.509
962.00,52.460
963.00,52.442
964.00,52.436
965.00,52.402
966.00,52.420
967.00,52.407
968.00,52.429
969.00,52.382
970.00,52.403
971.00,52.408
972.00,52.370
973.00,52.401
974.00,52.388
975.00,52.393
976.00,52.375
977.00,52.399
978.00,52.425
979.00,52.409
980.00,52.430
981.00,52.418
982.00,52.446
983.00,52.422
984.00,52.434
985.00,52.443
986.00,52.418
987.00,52.426
988.00,52.380
989.00,52.406
990.00,52.375
991.00,52.361
992.00,52.368
993.00,52.362
994.00,52.337
995.00,52.311
996.00,52.329
997.00,52.279
998.00,52.274
999.00,52.282
1000.00,52.254
1001.00,52.261
1002.00,52.227
1003.00,52.245
1004.00,52.208
1005.00,52.190
1006.00,52.199
1007.00,52.217
1008.00,52.185
1009.00,52.166
1010.00,52.150
1011.00,52.141
1012.00,52.135
1013.00,52.121
1014.00,52.096
1015.00,52.101
1016.00,52.079
1017.00,52.068
1018.00,52.057
1019.00,52.064
1020.00,52.013
1021.00,52.032
1022.00,52.033
1023.00,52.032
1024.00,51.990
1025.00,51.974
1026.00,51.972
1027.00,51.925
1028.00,51.940
1029.00,51.903
1030.00,51.902
1031.00,51.894
1032.00,51.861
1033.00,51.859
1034.00,51.859
1035.00,51.844
1036.00,51.811
1037.00,51.809
1038.00,51.778
1039.00,51.766
1040.00,51.745
1041.00,51.714
1042.00,51.708
1043.00,51.676
1044.00,51.700
1045.00,51.678
1046.00,51.688
1047.00,51.688
1048.00,51.705
1049.00,51.696
1050.00,51.724
1051.00,51.700
1052.00,51.727
1053.00,51.727
1054.00,51.734
1055.00,51.735
1056.00,51.735
1057.00,51.770
1058.00,51.767
1059.00,51.763
1060.00,51.769
1061.00,51.782
1062.00,51.775
1063.00,51.766
1064.00,51.757
1065.00,51.768
1066.00,51.718
1067.00,51.752
1068.00,51.781
1069.00,51.742
1070.00,51.705
1071.00,51.686
1072.00,51.692
1073.00,51.675
1074.00,51.670
1075.00,51.643
1076.00,51.653
1077.00,51.645
1078.00,51.632
1079.00,51.626
1080.00,51.647
1081.00,51.663
1082.00,51.664
1083.00,51.610
1084.00,51.612
1085.00,51.592
1086.00,51.603
1087.00,51.571
1088.00,51.578
1089.00,51.570
1090.00,51.566
1091.00,51.564
1092.00,51.572
1093.00,51.542
1094.00,51.535
1095.00,51.509
1096.00,51.511
1097.00,51.504
1098.00,51.504
1099.00,51.475
1100.00,51.483
1101.00,51.474
1102.00,51.466
1103.00,51.444
1104.00,51.450
1105.00,51.449
1106.00,51.425
1107.00,51.404
1108.00,51.417
1109.00,51.401
1110.00,51.404
1111.00,51.395
1112.00,51.400
1113.00,51.382
1114.00,51.402
1115.00,51.389
1116.00,51.396
1117.00,51.365
1118.00,51.371
1119.00,51.359
1120.00,51.352
1121.00,51.342
1122.00,51.358
1123.00,51.332
1124.00,51.324
1125.00,51.325
1126.00,51.322
1127.00,51.307
1128.00,51.347
1129.00,51.319
1130.00,51.284
1131.00,51.259
1132.00,51.272
1133.00,51.263
1134.00,51.254
1135.00,51.249
1136.00,51.266
1137.00,51.242
1138.00,51.251
1139.00,51.236
1140.00,51.240
1141.00,51.224
1142.00,51.228
1143.00,51.216
1144.00,51.214
1145.00,51.198
1146.00,51.191
1147.00,51.201
1148.00,51.186
1149.00,51.189
1150.00,51.167
1151.00,51.149
1152.00,51.189
1153.00,51.185
1154.00,51.186
1155.00,51.189
1156.00,51.184
1157.00,51.179
1158.00,51.179
1159.00,51.176
1160.00,51.164
1161.00,51.183
1162.00,51.173
1163.00,51.179
1164.00,51.153
1165.00,51.164
1166.00,51.167
1167.00,51.160
1168.00,51.177
1169.00,51.181
1170.00,51.164
1171.00,51.167
1172.00,51.158
1173.00,51.143
1174.00,51.149
1175.00,51.164
1176.00,51.161
1177.00,51.137
1178.00,51.147
1179.00,51.150
1180.00,51.159
1181.00,51.158
1182.00,51.163
1183.00,51.155
1184.00,51.140
1185.00,51.159
1186.00,51.146
1187.00,51.136
1188.00,51.120
1189.00,51.151
1190.00,51.134
1191.00,51.167
1192.00,51.151
1193.00,51.152
1194.00,51.148
1195.00,51.121
1196.00,51.146
1197.00,51.133
1198.00,51.129
1199.00,51.121
1200.00,51.130
1201.00,51.132
1202.00,51.139
1203.00,51.129
1204.00,51.127
1205.00,51.136
1206.00,51.140
1207.00,51.127
1208.00,51.104
1209.00,51.126
1210.00,51.113
1211.00,51.115
1212.00,51.120
1213.00,51.124
1214.00,51.116
1215.00,51.103
1216.00,51.114
1217.00,51.091
1218.00,51.110
1219.00,51.100
1220.00,51.130
1221.00,51.154
1222.00,51.112
1223.00,51.138
1224.00,51.136
1225.00,51.143
1226.00,51.122
1227.00,51.124
1228.00,51.118
1229.00,51.139
1230.00,51.164
1231.00,51.154
1232.00,51.184
1233.00,51.195
1234.00,51.192
1235.00,51.184
1236.00,51.215
1237.00,51.190
1238.00,51.202
1239.00,51.199
1240.00,51.201
1241.00,51.181
1242.00,51.179
1243.00,51.198
1244.00,51.179
1245.00,51.176
1246.00,51.195
1247.00,51.206
1248.00,51.187
1249.00,51.183
1250.00,51.180
1251.00,51.198
1252.00,51.188
1253.00,51.190
1254.00,51.213
1255.00,51.229
1256.00,51.205
1257.00,51.222
1258.00,51.222
1259.00,51.226
1260.00,51.252
1261.00,51.236
1262.00,51.256
1263.00,51.242
1264.00,51.263
1265.00,51.259
1266.00,51.258
1267.00,51.278
1268.00,51.289
1269.00,51.278
1270.00,51.309
1271.00,51.296
1272.00,51.293
1273.00,51.303
1274.00,51.313
1275.00,51.307
1276.00,51.317
1277.00,51.312
1278.00,51.345
1279.00,51.339
1280.00,51.327
1281.00,51.359
1282.00,51.361
1283.00,51.344
1284.00,51.366
1285.00,51.346
1286.00,51.353
1287.00,51.366
1288.00,51.363
1289.00,51.348
1290.00,51.400
1291.00,51.393
1292.00,51.396
1293.00,51.376
1294.00,51.368
1295.00,51.422
1296.00,51.404
1297.00,51.441
1298.00,51.423
1299.00,51.428
1300.00,51.438
1301.00,51.441
1302.00,51.458
1303.00,51.462
1304.00,51.444
1305.00,51.450
1306.00,51.461
1307.00,51.476
1308.00,51.460
1309.00,51.468
1310.00,51.487
1311.00,51.467
1312.00,51.468
1313.00,51.461
1314.00,51.503
1315.00,51.489
1316.00,51.494
1317.00,51.531
1318.00,51.541
1319.00,51.531
1320.00,51.554
1321.00,51.708
1322.00,51.739
1323.00,51.706
1324.00,51.711
1325.00,51.689
1326.00,51.711
1327.00,51.679
1328.00,51.682
1329.00,51.674
1330.00,51.682
1331.00,51.677
1332.00,51.678
1333.00,51.697
1334.00,51.688
1335.00,51.693
1336.00,51.718
1337.00,51.754
1338.00,51.782
1339.00,51.833
1340.00,51.901
1341.00,51.986
1342.00,52.058
1343.00,52.081
1344.00,52.134
1345.00,52.202
1346.00,52.255
1347.00,52.304
1348.00,52.286
1349.00,52.332
1350.00,52.355
1351.00,52.338
1352.00,52.375
1353.00,52.469
1354.00,52.347
1355.00,52.381
1356.00,52.354
1357.00,52.369
1358.00,52.421
1359.00,52.417
1360.00,52.370
1361.00,52.438
1362.00,52.369
1363.00,52.429
1364.00,52.567
1365.00,52.443
1366.00,52.449
1367.00,52.409
1368.00,52.333
1369.00,52.411
1370.00,52.413
1371.00,52.428
1372.00,52.386
1373.00,52.389
1374.00,52.409
1375.00,52.416
1376.00,52.372
1377.00,52.399
1378.00,52.418
1379.00,52.385
1380.00,52.391
1381.00,52.414
1382.00,52.291
1383.00,52.580
1384.00,52.333
1385.00,52.295
1386.00,52.442
1387.00,52.370
1388.00,52.228
1389.00,52.305
1390.00,52.449
1391.00,52.413
1392.00,52.279
1393.00,52.350
1394.00,52.410
1395.00,52.314
1396.00,52.281
1397.00,52.366
1398.00,52.426
1399.00,52.370
1400.00,52.299
1401.00,52.249
1402.00,52.287
1403.00,52.381
1404.00,52.302
1405.00,52.347
1406.00,52.359
1407.00,52.405
1408.00,52.402
1409.00,52.358
1410.00,52.377
1411.00,52.400
1412.00,52.435
1413.00,52.409
1414.00,52.376
1415.00,52.424
1416.00,52.418
1417.00,52.420
1418.00,52.438
1419.00,52.411
1420.00,52.458
1421.00,52.452
1422.00,52.512
1423.00,52.491
1424.00,52.520
1425.00,52.513
1426.00,52.519
1427.00,52.555
1428.00,52.515
1429.00,52.571
1430.00,52.614
1431.00,52.595
1432.00,52.626
1433.00,52.641
1434.00,52.640
1435.00,52.686
1436.00,52.691
1437.00,52.675
1438.00,52.685
1439.00,52.726
1440.00,52.725
1441.00,52.760
1442.00,52.737
1443.00,52.785
1444.00,52.793
1445.00,52.828
1446.00,52.781
1447.00,52.851
1448.00,52.849
1449.00,52.871
1450.00,52.853
1451.00,52.898
1452.00,52.922
1453.00,52.912
1454.00,52.902
1455.00,52.927
1456.00,52.948
1457.00,52.969
1458.00,52.939
1459.00,52.967
1460.00,52.981
1461.00,52.992
1462.00,53.068
1463.00,53.058
1464.00,53.040
1465.00,53.065
1466.00,53.053
1467.00,53.093
1468.00,53.122
1469.00,53.109
1470.00,53.120
1471.00,53.140
1472.00,53.123
1473.00,53.144
1474.00,53.183
1475.00,53.179
1476.00,53.202
1477.00,53.186
1478.00,53.201
1479.00,53.220
1480.00,53.213
1481.00,53.235
1482.00,53.261
1483.00,53.244
1484.00,53.284
1485.00,53.319
1486.00,53.281
1487.00,53.323
1488.00,53.348
1489.00,53.348
1490.00,53.346
1491.00,53.355
1492.00,53.345
1493.00,53.378
1494.00,53.367
1495.00,53.393
1496.00,53.381
1497.00,53.391
1498.00,53.404
1499.00,53.441
1500.00,53.453
1501.00, 
1502.00, 
1503.00, 
1504.00, 
1505.00, 
1506.00, 
1507.00, 
1508.00, 
1509.00, 
1510.00, 
1511.00, 
1512.00, 
1513.00, 
1514.00, 
1515.00, 
1516.00, 
1517.00, 
1518.00, 
1519.00, 
1520.00, 
1521.00, 
1522.00, 
1523.00, 
1524.00, 
1525.00, 
1526.00, 
1527.00, 
1528.00, 
1529.00, 
1530.00, 
1531.00, 
1532.00, 
1533.00, 
1534.00, 
1535.00, 
1536.00, 
1537.00, 
1538.00, 
1539.00, 
1540.00, 
1541.00, 
1542.00, 
1543.00, 
1544.00, 
1545.00, 
1546.00, 
1547.00, 
1548.00, 
1549.00, 
1550.00, 
1551.00, 
1552.00, 
1553.00, 
1554.00, 
1555.00, 
1556.00, 
1557.00, 
1558.00, 
1559.00, 
1560.00, 
1561.00, 
1562.00, 
1563.00, 
1564.00, 
1565.00, 
1566.00, 
1567.00, 
1568.00, 
1569.00, 
1570.00, 
1571.00, 
1572.00, 
1573.00, 
1574.00, 
1575.00, 
1576.00, 
1577.00, 
1578.00, 
1579.00, 
1580.00, 
1581.00, 
1582.00, 
1583.00, 
1584.00, 
1585.00, 
1586.00, 
1587.00, 
1588.00, 
1589.00, 
1590.00, 
1591.00, 
1592.00, 
1593.00, 
1594.00, 
1595.00, 
1596.00, 
1597.00, 
1598.00, 
1599.00, 
1600.00, 
1601.00, 
1602.00, 
1603.00, 
1604.00, 
1605.00, 
1606.00, 
1607.00, 
1608.00, 
1609.00, 
1610.00, 
1611.00, 
1612.00, 
1613.00, 
1614.00, 
1615.00, 
1616.00, 
1617.00, 
1618.00, 
1619.00, 
1620.00, 
1621.00, 
1622.00, 
1623.00, 
1624.00, 
1625.00, 
1626.00, 
1627.00, 
1628.00, 
1629.00, 
1630.00, 
1631.00, 
1632.00, 
1633.00, 
1634.00, 
1635.00, 
1636.00, 
1637.00, 
1638.00, 
1639.00, 
1640.00, 
1641.00, 
1642.00, 
1643.00, 
1644.00, 
1645.00, 
1646.00, 
1647.00, 
1648.00, 
1649.00, 
1650.00, 
1651.00, 
1652.00, 
1653.00, 
1654.00, 
1655.00, 
1656.00, 
1657.00, 
1658.00, 
1659.00, 
1660.00, 
1661.00, 
1662.00, 
1663.00, 
1664.00, 
1665.00, 
1666.00, 
1667.00, 
1668.00, 
1669.00, 
1670.00, 
1671.00, 
1672.00, 
1673.00, 
1674.00, 
1675.00, 
1676.00, 
1677.00, 
1678.00, 
1679.00, 
1680.00, 
1681.00, 
1682.00, 
1683.00, 
1684.00, 
1685.00, 
1686.00, 
1687.00, 
1688.00, 
1689.00, 
1690.00, 
1691.00, 
1692.00, 
1693.00, 
1694.00, 
1695.00, 
1696.00, 
1697.00, 
1698.00, 
1699.00, 
1700.00, 
1701.00, 
1702.00, 
1703.00, 
1704.00, 
1705.00, 
1706.00, 
1707.00, 
1708.00, 
1709.00, 
1710.00, 
1711.00, 
1712.00, 
1713.00, 
1714.00, 
1715.00, 
1716.00, 
1717.00, 
1718.00, 
1719.00, 
1720.00, 
1721.00, 
1722.00, 
1723.00, 
1724.00, 
1725.00, 
1726.00, 
1727.00, 
1728.00, 
1729.00, 
1730.00, 
1731.00, 
1732.00, 
1733.00, 
1734.00, 
1735.00, 
1736.00, 
1737.00, 
1738.00, 
1739.00, 
1740.00, 
1741.00, 
1742.00, 
1743.00, 
1744.00, 
1745.00, 
1746.00, 
1747.00, 
1748.00, 
1749.00, 
1750.00, 
1751.00, 
1752.00, 
1753.00, 
1754.00, 
1755.00, 
1756.00, 
1757.00, 
1758.00, 
1759.00, 
1760.00, 
1761.00, 
1762.00, 
1763.00, 
1764.00, 
1765.00, 
1766.00, 
1767.00, 
1768.00, 
1769.00, 
1770.00, 
1771.00, 
1772.00, 
1773.00, 
1774.00, 
1775.00, 
1776.00, 
1777.00, 
1778.00, 
1779.00, 
1780.00, 
1781.00, 
1782.00, 
1783.00, 
1784.00, 
1785.00, 
1786.00, 
1787.00, 
1788.00, 
1789.00, 
1790.00, 
1791.00, 
1792.00, 
1793.00, 
1794.00, 
1795.00, 
1796.00, 
1797.00, 
1798.00, 
1799.00, 
1800.00, 
1801.00, 
1802.00, 
1803.00, 
1804.00, 
1805.00, 
1806.00, 
1807.00, 
1808.00, 
1809.00, 
1810.00, 
1811.00, 
1812.00, 
1813.00, 
1814.00, 
1815.00, 
1816.00, 
1817.00, 
1818.00, 
1819.00, 
1820.00, 
1821.00, 
1822.00, 
1823.00, 
1824.00, 
1825.00, 
1826.00, 
1827.00, 
1828.00, 
1829.00, 
1830.00, 
1831.00, 
1832.00, 
1833.00, 
1834.00, 
1835.00, 
1836.00, 
1837.00, 
1838.00, 
1839.00, 
1840.00, 
1841.00, 
1842.00, 
1843.00, 
1844.00, 
1845.00, 
1846.00, 
1847.00, 
1848.00, 
1849.00, 
1850.00, 
1851.00, 
1852.00, 
1853.00, 
1854.00, 
1855.00, 
1856.00, 
1857.00, 
1858.00, 
1859.00, 
1860.00, 
1861.00, 
1862.00, 
1863.00, 
1864.00, 
1865.00, 
1866.00, 
1867.00, 
1868.00, 
1869.00, 
1870.00, 
1871.00, 
1872.00, 
1873.00, 
1874.00, 
1875.00, 
1876.00, 
1877.00, 
1878.00, 
1879.00, 
1880.00, 
1881.00, 
1882.00, 
1883.00, 
1884.00, 
1885.00, 
1886.00, 
1887.00, 
1888.00, 
1889.00, 
1890.00, 
1891.00, 
1892.00, 
1893.00, 
1894.00, 
1895.00, 
1896.00, 
1897.00, 
1898.00, 
1899.00, 
1900.00, 
1901.00, 
1902.00, 
1903.00, 
1904.00, 
1905.00, 
1906.00, 
1907.00, 
1908.00, 
1909.00, 
1910.00, 
1911.00, 
1912.00, 
1913.00, 
1914.00, 
1915.00, 
1916.00, 
1917.00, 
1918.00, 
1919.00, 
1920.00, 
1921.00, 
1922.00, 
1923.00, 
1924.00, 
1925.00, 
1926.00, 
1927.00, 
1928.00, 
1929.00, 
1930.00, 
1931.00, 
1932.00, 
1933.00, 
1934.00, 
1935.00, 
1936.00, 
1937.00, 
1938.00, 
1939.00, 
1940.00, 
1941.00, 
1942.00, 
1943.00, 
1944.00, 
1945.00, 
1946.00, 
1947.00, 
1948.00, 
1949.00, 
1950.00, 
1951.00, 
1952.00, 
1953.00, 
1954.00, 
1955.00, 
1956.00, 
1957.00, 
1958.00, 
1959.00, 
1960.00, 
1961.00, 
1962.00, 
1963.00, 
1964.00, 
1965.00, 
1966.00, 
1967.00, 
1968.00, 
1969.00, 
1970.00, 
1971.00, 
1972.00, 
1973.00, 
1974.00, 
1975.00, 
1976.00, 
1977.00, 
1978.00, 
1979.00, 
1980.00, 
1981.00, 
1982.00, 
1983.00, 
1984.00, 
1985.00, 
1986.00, 
1987.00, 
1988.00, 
1989.00, 
1990.00, 
1991.00, 
1992.00, 
1993.00, 
1994.00, 
1995.00, 
1996.00, 
1997.00, 
1998.00, 
1999.00, 
2000.00, 
2001.00, 
2002.00, 
2003.00, 
2004.00, 
2005.00, 
2006.00, 
2007.00, 
2008.00, 
2009.00, 
2010.00, 
2011.00, 
2012.00, 
2013.00, 
2014.00, 
2015.00, 
2016.00, 
2017.00, 
2018.00, 
2019.00, 
2020.00, 
2021.00, 
2022.00, 
2023.00, 
2024.00, 
2025.00, 
2026.00, 
2027.00, 
2028.00, 
2029.00, 
2030.00, 
2031.00, 
2032.00, 
2033.00, 
2034.00, 
2035.00, 
2036.00, 
2037.00, 
2038.00, 
2039.00, 
2040.00, 
2041.00, 
2042.00, 
2043.00, 
2044.00, 
2045.00, 
2046.00, 
2047.00, 
2048.00, 
2049.00, 
2050.00, 
2051.00, 
2052.00, 
2053.00, 
2054.00, 
2055.00, 
2056.00, 
2057.00, 
2058.00, 
2059.00, 
2060.00, 
2061.00, 
2062.00, 
2063.00, 
2064.00, 
2065.00, 
2066.00, 
2067.00, 
2068.00, 
2069.00, 
2070.00, 
2071.00, 
2072.00, 
2073.00, 
2074.00, 
2075.00, 
2076.00, 
2077.00, 
2078.00, 
2079.00, 
2080.00, 
2081.00, 
2082.00, 
2083.00, 
2084.00, 
2085.00, 
2086.00, 
2087.00, 
2088.00, 
2089.00, 
2090.00, 
2091.00, 
2092.00, 
2093.00, 
2094.00, 
2095.00, 
2096.00, 
2097.00, 
2098.00, 
2099.00, 
2100.00, 
2101.00, 
2102.00, 
2103.00, 
2104.00, 
2105.00, 
2106.00, 
2107.00, 
2108.00, 
2109.00, 
2110.00, 
2111.00, 
2112.00, 
2113.00, 
2114.00, 
2115.00, 
2116.00, 
2117.00, 
2118.00, 
2119.00, 
2120.00, 
2121.00, 
2122.00, 
2123.00, 
2124.00, 
2125.00, 
2126.00, 
2127.00, 
2128.00, 
2129.00, 
2130.00, 
2131.00, 
2132.00, 
2133.00, 
2134.00, 
2135.00, 
2136.00, 
2137.00, 
2138.00, 
2139.00, 
2140.00, 
2141.00, 
2142.00, 
2143.00, 
2144.00, 
2145.00, 
2146.00, 
2147.00, 
2148.00, 
2149.00, 
2150.00, 
2151.00, 
2152.00, 
2153.00, 
2154.00, 
2155.00, 
2156.00, 
2157.00, 
2158.00, 
2159.00, 
2160.00, 
2161.00, 
2162.00, 
2163.00, 
2164.00, 
2165.00, 
2166.00, 
2167.00, 
2168.00, 
2169.00, 
2170.00, 
2171.00, 
2172.00, 
2173.00, 
2174.00, 
2175.00, 
2176.00, 
2177.00, 
2178.00, 
2179.00, 
2180.00, 
2181.00, 
2182.00, 
2183.00, 
2184.00, 
2185.00, 
2186.00, 
2187.00, 
2188.00, 
2189.00, 
2190.00, 
2191.00, 
2192.00, 
2193.00, 
2194.00, 
2195.00, 
2196.00, 
2197.00, 
2198.00, 
2199.00, 
2200.00, 
2201.00, 
2202.00, 
2203.00, 
2204.00, 
2205.00, 
2206.00, 
2207.00, 
2208.00, 
2209.00, 
2210.00, 
2211.00, 
2212.00, 
2213.00, 
2214.00, 
2215.00, 
2216.00, 
2217.00, 
2218.00, 
2219.00, 
2220.00, 
2221.00, 
2222.00, 
2223.00, 
2224.00, 
2225.00, 
2226.00, 
2227.00, 
2228.00, 
2229.00, 
2230.00, 
2231.00, 
2232.00, 
2233.00, 
2234.00, 
2235.00, 
2236.00, 
2237.00, 
2238.00, 
2239.00, 
2240.00, 
2241.00, 
2242.00, 
2243.00, 
2244.00, 
2245.00, 
2246.00, 
2247.00, 
2248.00, 
2249.00, 
2250.00, 
2251.00, 
2252.00, 
2253.00, 
2254.00, 
2255.00, 
2256.00, 
2257.00, 
2258.00, 
2259.00, 
2260.00, 
2261.00, 
2262.00, 
2263.00, 
2264.00, 
2265.00, 
2266.00, 
2267.00, 
2268.00, 
2269.00, 
2270.00, 
2271.00, 
2272.00, 
2273.00, 
2274.00, 
2275.00, 
2276.00, 
2277.00, 
2278.00, 
2279.00, 
2280.00, 
2281.00, 
2282.00, 
2283.00, 
2284.00, 
2285.00, 
2286.00, 
2287.00, 
2288.00, 
2289.00, 
2290.00, 
2291.00, 
2292.00, 
2293.00, 
2294.00, 
2295.00, 
2296.00, 
2297.00, 
2298.00, 
2299.00, 
2300.00, 
2301.00, 
2302.00, 
2303.00, 
2304.00, 
2305.00, 
2306.00, 
2307.00, 
2308.00, 
2309.00, 
2310.00, 
2311.00, 
2312.00, 
2313.00, 
2314.00, 
2315.00, 
2316.00, 
2317.00, 
2318.00, 
2319.00, 
2320.00, 
2321.00, 
2322.00, 
2323.00, 
2324.00, 
2325.00, 
2326.00, 
2327.00, 
2328.00, 
2329.00, 
2330.00, 
2331.00, 
2332.00, 
2333.00, 
2334.00, 
2335.00, 
2336.00, 
2337.00, 
2338.00, 
2339.00, 
2340.00, 
2341.00, 
2342.00, 
2343.00, 
2344.00, 
2345.00, 
2346.00, 
2347.00, 
2348.00, 
2349.00, 
2350.00, 
2351.00, 
2352.00, 
2353.00, 
2354.00, 
2355.00, 
2356.00, 
2357.00, 
2358.00, 
2359.00, 
2360.00, 
2361.00, 
2362.00, 
2363.00, 
2364.00, 
2365.00, 
2366.00, 
2367.00, 
2368.00, 
2369.00, 
2370.00, 
2371.00, 
2372.00, 
2373.00, 
2374.00, 
2375.00, 
2376.00, 
2377.00, 
2378.00, 
2379.00, 
2380.00, 
2381.00, 
2382.00, 
2383.00, 
2384.00, 
2385.00, 
2386.00, 
2387.00, 
2388.00, 
2389.00, 
2390.00, 
2391.00, 
2392.00, 
2393.00, 
2394.00, 
2395.00, 
2396.00, 
2397.00, 
2398.00, 
2399.00, 
2400.00, 
2401.00, 
2402.00, 
2403.00, 
2404.00, 
2405.00, 
2406.00, 
2407.00, 
2408.00, 
2409.00, 
2410.00, 
2411.00, 
2412.00, 
2413.00, 
2414.00, 
2415.00, 
2416.00, 
2417.00, 
2418.00, 
2419.00, 
2420.00, 
2421.00, 
2422.00, 
2423.00, 
2424.00, 
2425.00, 
2426.00, 
2427.00, 
2428.00, 
2429.00, 
2430.00, 
2431.00, 
2432.00, 
2433.00, 
2434.00, 
2435.00, 
2436.00, 
2437.00, 
2438.00, 
2439.00, 
2440.00, 
2441.00, 
2442.00, 
2443.00, 
2444.00, 
2445.00, 
2446.00, 
2447.00, 
2448.00, 
2449.00, 
2450.00, 
2451.00, 
2452.00, 
2453.00, 
2454.00, 
2455.00, 
2456.00, 
2457.00, 
2458.00, 
2459.00, 
2460.00, 
2461.00, 
2462.00, 
2463.00, 
2464.00, 
2465.00, 
2466.00, 
2467.00, 
2468.00, 
2469.00, 
2470.00, 
2471.00, 
2472.00, 
2473.00, 
2474.00, 
2475.00, 
2476.00, 
2477.00, 
2478.00, 
2479.00, 
2480.00, 
2481.00, 
2482.00, 
2483.00, 
2484.00, 
2485.00, 
2486.00, 
2487.00, 
2488.00, 
2489.00, 
2490.00, 
2491.00, 
2492.00, 
2493.00, 
2494.00, 
2495.00, 
2496.00, 
2497.00, 
2498.00, 
2499.00, 
2500.00, 
2501.00, 
2502.00, 
2503.00, 
2504.00, 
2505.00, 
2506.00, 
2507.00, 
2508.00, 
2509.00, 
2510.00, 
2511.00, 
2512.00, 
2513.00, 
2514.00, 
2515.00, 
2516.00, 
2517.00, 
2518.00, 
2519.00, 
2520.00, 
2521.00, 
2522.00, 
2523.00, 
2524.00, 
2525.00, 
2526.00, 
2527.00, 
2528.00, 
2529.00, 
2530.00, 
2531.00, 
2532.00, 
2533.00, 
2534.00, 
2535.00, 
2536.00, 
2537.00, 
2538.00, 
2539.00, 
2540.00, 
2541.00, 
2542.00, 
2543.00, 
2544.00, 
2545.00, 
2546.00, 
2547.00, 
2548.00, 
2549.00, 
2550.00, 
2551.00, 
2552.00, 
2553.00, 
2554.00, 
2555.00, 
2556.00, 
2557.00, 
2558.00, 
2559.00, 
2560.00, 
2561.00, 
2562.00, 
2563.00, 
2564.00, 
2565.00, 
2566.00, 
2567.00, 
2568.00, 
2569.00, 
2570.00, 
2571.00, 
2572.00, 
2573.00, 
2574.00, 
2575.00, 
2576.00, 
2577.00, 
2578.00, 
2579.00, 
2580.00, 
2581.00, 
2582.00, 
2583.00, 
2584.00, 
2585.00, 
2586.00, 
2587.00, 
2588.00, 
2589.00, 
2590.00, 
2591.00, 
2592.00, 
2593.00, 
2594.00, 
2595.00, 
2596.00, 
2597.00, 
2598.00, 
2599.00, 
2600.00, 
