"1cP1 - RawData"
"Wavelength nm.","T%"
200.00,0.002
201.00,0.003
202.00,0.001
203.00,0.001
204.00,0.002
205.00,0.003
206.00,-0.001
207.00,0.003
208.00,0.000
209.00,0.003
210.00,0.001
211.00,-0.000
212.00,0.000
213.00,-0.002
214.00,0.003
215.00,0.003
216.00,0.000
217.00,-0.002
218.00,0.002
219.00,0.002
220.00,-0.001
221.00,-0.000
222.00,0.001
223.00,-0.000
224.00,0.001
225.00,0.002
226.00,0.001
227.00,0.002
228.00,0.001
229.00,0.000
230.00,-0.001
231.00,0.000
232.00,0.001
233.00,0.002
234.00,-0.000
235.00,0.001
236.00,0.001
237.00,0.001
238.00,0.001
239.00,-0.002
240.00,0.002
241.00,-0.000
242.00,0.000
243.00,-0.001
244.00,0.000
245.00,-0.000
246.00,-0.001
247.00,0.001
248.00,-0.000
249.00,-0.001
250.00,0.001
251.00,0.000
252.00,-0.000
253.00,0.001
254.00,-0.001
255.00,-0.003
256.00,0.001
257.00,-0.000
258.00,-0.001
259.00,0.001
260.00,0.001
261.00,0.000
262.00,-0.000
263.00,0.002
264.00,-0.001
265.00,-0.000
266.00,-0.000
267.00,0.002
268.00,0.002
269.00,-0.000
270.00,-0.003
271.00,0.000
272.00,-0.000
273.00,-0.000
274.00,0.001
275.00,-0.001
276.00,-0.001
277.00,0.001
278.00,-0.000
279.00,-0.001
280.00,0.001
281.00,-0.001
282.00,0.002
283.00,-0.000
284.00,-0.001
285.00,-0.000
286.00,-0.001
287.00,0.000
288.00,0.000
289.00,0.003
290.00,-0.000
291.00,-0.001
292.00,0.000
293.00,0.000
294.00,0.001
295.00,0.001
296.00,-0.001
297.00,-0.000
298.00,-0.000
299.00,-0.001
300.00,-0.000
301.00,0.000
302.00,0.001
303.00,0.002
304.00,0.002
305.00,0.000
306.00,0.003
307.00,0.003
308.00,0.005
309.00,0.010
310.00,0.017
311.00,0.028
312.00,0.041
313.00,0.063
314.00,0.099
315.00,0.143
316.00,0.189
317.00,0.261
318.00,0.372
319.00,0.497
320.00,0.653
321.00,0.844
322.00,1.069
323.00,1.354
324.00,1.668
325.00,2.003
326.00,2.366
327.00,2.795
328.00,3.261
329.00,3.736
330.00,4.265
331.00,4.806
332.00,5.367
333.00,6.007
334.00,6.583
335.00,7.259
336.00,7.897
337.00,8.506
338.00,9.121
339.00,9.754
340.00,10.402
341.00,11.047
342.00,11.589
343.00,12.040
344.00,12.693
345.00,13.208
346.00,13.676
347.00,14.138
348.00,14.576
349.00,15.022
350.00,15.429
351.00,15.797
352.00,16.119
353.00,16.459
354.00,16.744
355.00,17.075
356.00,17.367
357.00,17.582
358.00,17.774
359.00,17.999
360.00,18.216
361.00,18.343
362.00,18.495
363.00,18.648
364.00,18.760
365.00,18.849
366.00,18.930
367.00,18.981
368.00,19.013
369.00,19.132
370.00,19.150
371.00,19.159
372.00,19.115
373.00,19.132
374.00,19.043
375.00,19.024
376.00,18.983
377.00,18.857
378.00,18.791
379.00,18.686
380.00,18.703
381.00,18.678
382.00,18.691
383.00,18.713
384.00,18.752
385.00,18.836
386.00,18.848
387.00,18.912
388.00,18.939
389.00,18.950
390.00,19.020
391.00,19.030
392.00,19.033
393.00,19.088
394.00,19.051
395.00,19.076
396.00,19.066
397.00,19.099
398.00,19.089
399.00,19.062
400.00,19.070
401.00,19.040
402.00,19.052
403.00,19.020
404.00,19.016
405.00,19.004
406.00,19.003
407.00,18.925
408.00,18.905
409.00,18.847
410.00,18.838
411.00,18.823
412.00,18.788
413.00,18.813
414.00,18.772
415.00,18.782
416.00,18.819
417.00,18.823
418.00,18.827
419.00,18.847
420.00,18.833
421.00,18.905
422.00,18.948
423.00,18.895
424.00,18.992
425.00,19.019
426.00,19.044
427.00,19.071
428.00,19.121
429.00,19.153
430.00,19.176
431.00,19.232
432.00,19.281
433.00,19.308
434.00,19.349
435.00,19.401
436.00,19.450
437.00,19.504
438.00,19.565
439.00,19.658
440.00,19.737
441.00,19.817
442.00,19.895
443.00,19.976
444.00,20.078
445.00,20.104
446.00,20.224
447.00,20.276
448.00,20.371
449.00,20.468
450.00,20.559
451.00,20.698
452.00,20.791
453.00,20.888
454.00,20.988
455.00,21.110
456.00,21.194
457.00,21.341
458.00,21.456
459.00,21.551
460.00,21.655
461.00,21.814
462.00,21.921
463.00,22.034
464.00,22.158
465.00,22.273
466.00,22.406
467.00,22.527
468.00,22.594
469.00,22.768
470.00,22.844
471.00,22.992
472.00,23.093
473.00,23.192
474.00,23.343
475.00,23.473
476.00,23.590
477.00,23.730
478.00,23.838
479.00,24.009
480.00,24.148
481.00,24.285
482.00,24.455
483.00,24.581
484.00,24.722
485.00,24.920
486.00,25.027
487.00,25.167
488.00,25.323
489.00,25.466
490.00,25.587
491.00,25.760
492.00,25.869
493.00,26.055
494.00,26.196
495.00,26.272
496.00,26.389
497.00,26.515
498.00,26.656
499.00,26.797
500.00,26.913
501.00,27.016
502.00,27.208
503.00,27.358
504.00,27.460
505.00,27.575
506.00,27.735
507.00,27.852
508.00,27.963
509.00,28.089
510.00,28.268
511.00,28.342
512.00,28.471
513.00,28.594
514.00,28.743
515.00,28.827
516.00,28.959
517.00,29.068
518.00,29.209
519.00,29.278
520.00,29.408
521.00,29.513
522.00,29.589
523.00,29.733
524.00,29.784
525.00,29.974
526.00,30.013
527.00,30.115
528.00,30.198
529.00,30.314
530.00,30.426
531.00,30.520
532.00,30.638
533.00,30.711
534.00,30.801
535.00,30.918
536.00,31.035
537.00,31.053
538.00,31.173
539.00,31.231
540.00,31.363
541.00,31.470
542.00,31.507
543.00,31.579
544.00,31.675
545.00,31.777
546.00,31.802
547.00,31.922
548.00,31.981
549.00,32.042
550.00,32.157
551.00,32.188
552.00,32.282
553.00,32.359
554.00,32.439
555.00,32.541
556.00,32.560
557.00,32.611
558.00,32.701
559.00,32.796
560.00,32.802
561.00,32.919
562.00,32.960
563.00,32.941
564.00,33.032
565.00,33.111
566.00,33.102
567.00,33.152
568.00,33.205
569.00,33.211
570.00,33.306
571.00,33.341
572.00,33.426
573.00,33.414
574.00,33.478
575.00,33.546
576.00,33.599
577.00,33.619
578.00,33.720
579.00,33.772
580.00,33.794
581.00,33.940
582.00,33.982
583.00,33.977
584.00,34.071
585.00,34.099
586.00,34.252
587.00,34.299
588.00,34.364
589.00,34.353
590.00,34.453
591.00,34.490
592.00,34.531
593.00,34.561
594.00,34.588
595.00,34.604
596.00,34.684
597.00,34.728
598.00,34.683
599.00,34.785
600.00,34.928
601.00,34.955
602.00,35.075
603.00,35.128
604.00,35.130
605.00,35.160
606.00,35.203
607.00,35.316
608.00,35.377
609.00,35.393
610.00,35.530
611.00,35.461
612.00,35.537
613.00,35.577
614.00,35.616
615.00,35.652
616.00,35.759
617.00,35.763
618.00,35.835
619.00,35.901
620.00,35.974
621.00,36.010
622.00,36.102
623.00,36.135
624.00,36.230
625.00,36.296
626.00,36.369
627.00,36.443
628.00,36.532
629.00,36.554
630.00,36.609
631.00,36.653
632.00,36.751
633.00,36.818
634.00,36.907
635.00,36.989
636.00,37.064
637.00,37.207
638.00,37.208
639.00,37.272
640.00,37.403
641.00,37.452
642.00,37.561
643.00,37.632
644.00,37.710
645.00,37.767
646.00,37.923
647.00,38.005
648.00,38.084
649.00,38.136
650.00,38.227
651.00,38.305
652.00,38.334
653.00,38.569
654.00,38.531
655.00,38.575
656.00,38.704
657.00,38.884
658.00,38.904
659.00,39.051
660.00,39.297
661.00,39.214
662.00,39.180
663.00,39.409
664.00,39.551
665.00,39.768
666.00,39.754
667.00,39.927
668.00,39.884
669.00,40.126
670.00,40.219
671.00,40.198
672.00,40.274
673.00,40.458
674.00,40.609
675.00,40.691
676.00,40.802
677.00,40.965
678.00,40.871
679.00,41.052
680.00,41.045
681.00,41.201
682.00,41.339
683.00,41.323
684.00,41.640
685.00,41.674
686.00,41.692
687.00,41.957
688.00,42.026
689.00,42.049
690.00,42.220
691.00,42.324
692.00,42.428
693.00,42.529
694.00,42.581
695.00,42.678
696.00,42.837
697.00,42.867
698.00,42.960
699.00,43.112
700.00,43.202
701.00,43.333
702.00,43.374
703.00,43.514
704.00,43.795
705.00,43.696
706.00,43.755
707.00,44.095
708.00,43.887
709.00,44.065
710.00,44.249
711.00,44.197
712.00,44.265
713.00,44.309
714.00,44.392
715.00,44.512
716.00,44.579
717.00,44.605
718.00,44.777
719.00,44.839
720.00,44.849
721.00,49.356
722.00,49.398
723.00,49.383
724.00,49.392
725.00,49.464
726.00,49.509
727.00,49.526
728.00,49.526
729.00,49.600
730.00,49.645
731.00,49.691
732.00,49.710
733.00,49.761
734.00,49.829
735.00,49.950
736.00,49.924
737.00,49.941
738.00,50.066
739.00,50.015
740.00,49.989
741.00,50.151
742.00,50.105
743.00,50.204
744.00,50.092
745.00,50.238
746.00,50.263
747.00,50.261
748.00,50.348
749.00,50.288
750.00,50.323
751.00,50.341
752.00,50.385
753.00,50.266
754.00,50.397
755.00,50.378
756.00,50.430
757.00,50.433
758.00,50.444
759.00,50.446
760.00,50.502
761.00,50.542
762.00,50.496
763.00,50.560
764.00,50.491
765.00,50.578
766.00,50.645
767.00,50.670
768.00,50.697
769.00,50.724
770.00,50.717
771.00,50.719
772.00,50.656
773.00,50.713
774.00,50.769
775.00,50.743
776.00,50.826
777.00,50.817
778.00,50.887
779.00,50.825
780.00,50.898
781.00,50.812
782.00,50.858
783.00,50.857
784.00,50.894
785.00,50.835
786.00,50.884
787.00,50.905
788.00,50.864
789.00,50.894
790.00,50.965
791.00,50.946
792.00,50.870
793.00,50.861
794.00,50.764
795.00,50.876
796.00,50.790
797.00,50.789
798.00,50.847
799.00,50.811
800.00,50.790
801.00,50.808
802.00,50.768
803.00,50.804
804.00,50.734
805.00,50.739
806.00,50.754
807.00,50.721
808.00,50.682
809.00,50.704
810.00,50.661
811.00,50.652
812.00,50.689
813.00,50.670
814.00,50.672
815.00,50.642
816.00,50.686
817.00,50.630
818.00,50.620
819.00,50.647
820.00,50.544
821.00,50.664
822.00,50.598
823.00,50.687
824.00,50.599
825.00,50.588
826.00,50.604
827.00,50.551
828.00,50.554
829.00,50.415
830.00,50.489
831.00,52.650
832.00,52.539
833.00,52.521
834.00,52.542
835.00,52.513
836.00,52.574
837.00,52.504
838.00,52.505
839.00,52.458
840.00,52.452
841.00,52.457
842.00,52.396
843.00,52.416
844.00,52.391
845.00,52.369
846.00,52.357
847.00,52.297
848.00,52.285
849.00,52.288
850.00,52.211
851.00,52.236
852.00,52.201
853.00,52.160
854.00,52.153
855.00,52.102
856.00,52.073
857.00,52.046
858.00,52.048
859.00,51.992
860.00,51.954
861.00,51.965
862.00,51.968
863.00,51.875
864.00,51.892
865.00,51.965
866.00,51.907
867.00,51.859
868.00,51.931
869.00,51.927
870.00,51.850
871.00,51.871
872.00,51.840
873.00,51.869
874.00,51.804
875.00,51.820
876.00,51.818
877.00,51.825
878.00,51.776
879.00,51.782
880.00,51.748
881.00,51.760
882.00,51.731
883.00,51.687
884.00,51.662
885.00,51.645
886.00,51.643
887.00,51.615
888.00,51.607
889.00,51.595
890.00,51.551
891.00,51.574
892.00,51.556
893.00,51.484
894.00,51.485
895.00,51.481
896.00,51.458
897.00,51.437
898.00,51.419
899.00,51.430
900.00,51.393
901.00,51.421
902.00,51.403
903.00,51.347
904.00,51.362
905.00,51.333
906.00,51.330
907.00,51.296
908.00,51.264
909.00,51.243
910.00,51.240
911.00,51.199
912.00,51.194
913.00,51.195
914.00,51.185
915.00,51.161
916.00,51.142
917.00,51.116
918.00,51.104
919.00,51.028
920.00,51.125
921.00,51.042
922.00,51.010
923.00,50.993
924.00,50.969
925.00,50.952
926.00,50.956
927.00,50.911
928.00,50.944
929.00,50.895
930.00,50.896
931.00,50.856
932.00,50.831
933.00,50.842
934.00,50.815
935.00,50.781
936.00,50.771
937.00,50.766
938.00,50.759
939.00,50.710
940.00,50.692
941.00,50.686
942.00,50.685
943.00,50.682
944.00,50.601
945.00,50.609
946.00,50.599
947.00,50.633
948.00,50.564
949.00,50.539
950.00,50.531
951.00,50.521
952.00,50.501
953.00,50.496
954.00,50.433
955.00,50.414
956.00,50.389
957.00,50.357
958.00,50.347
959.00,50.340
960.00,50.303
961.00,50.302
962.00,50.293
963.00,50.257
964.00,50.271
965.00,50.230
966.00,50.237
967.00,50.204
968.00,50.213
969.00,50.176
970.00,50.188
971.00,50.203
972.00,50.171
973.00,50.205
974.00,50.185
975.00,50.201
976.00,50.163
977.00,50.193
978.00,50.210
979.00,50.187
980.00,50.215
981.00,50.190
982.00,50.206
983.00,50.155
984.00,50.182
985.00,50.172
986.00,50.177
987.00,50.186
988.00,50.156
989.00,50.155
990.00,50.134
991.00,50.120
992.00,50.130
993.00,50.118
994.00,50.096
995.00,50.069
996.00,50.090
997.00,50.060
998.00,50.057
999.00,50.047
1000.00,50.014
1001.00,50.024
1002.00,49.987
1003.00,50.009
1004.00,49.971
1005.00,49.967
1006.00,49.971
1007.00,49.971
1008.00,49.955
1009.00,49.905
1010.00,49.901
1011.00,49.905
1012.00,49.897
1013.00,49.874
1014.00,49.858
1015.00,49.860
1016.00,49.817
1017.00,49.831
1018.00,49.830
1019.00,49.824
1020.00,49.793
1021.00,49.777
1022.00,49.759
1023.00,49.758
1024.00,49.727
1025.00,49.708
1026.00,49.710
1027.00,49.673
1028.00,49.685
1029.00,49.654
1030.00,49.658
1031.00,49.643
1032.00,49.609
1033.00,49.604
1034.00,49.590
1035.00,49.562
1036.00,49.534
1037.00,49.532
1038.00,49.496
1039.00,49.493
1040.00,49.468
1041.00,49.443
1042.00,49.430
1043.00,49.392
1044.00,49.426
1045.00,49.392
1046.00,49.403
1047.00,49.407
1048.00,49.432
1049.00,49.409
1050.00,49.442
1051.00,49.457
1052.00,49.483
1053.00,49.456
1054.00,49.462
1055.00,49.467
1056.00,49.478
1057.00,49.496
1058.00,49.490
1059.00,49.496
1060.00,49.490
1061.00,49.495
1062.00,49.468
1063.00,49.471
1064.00,49.468
1065.00,49.470
1066.00,49.438
1067.00,49.437
1068.00,49.440
1069.00,49.444
1070.00,49.387
1071.00,49.391
1072.00,49.400
1073.00,49.384
1074.00,49.386
1075.00,49.351
1076.00,49.353
1077.00,49.342
1078.00,49.344
1079.00,49.330
1080.00,49.333
1081.00,49.331
1082.00,49.321
1083.00,49.302
1084.00,49.316
1085.00,49.297
1086.00,49.310
1087.00,49.289
1088.00,49.283
1089.00,49.269
1090.00,49.249
1091.00,49.263
1092.00,49.267
1093.00,49.232
1094.00,49.224
1095.00,49.199
1096.00,49.198
1097.00,49.199
1098.00,49.188
1099.00,49.155
1100.00,49.189
1101.00,49.181
1102.00,49.172
1103.00,49.154
1104.00,49.165
1105.00,49.151
1106.00,49.135
1107.00,49.126
1108.00,49.130
1109.00,49.111
1110.00,49.107
1111.00,49.094
1112.00,49.094
1113.00,49.075
1114.00,49.074
1115.00,49.060
1116.00,49.079
1117.00,49.056
1118.00,49.059
1119.00,49.045
1120.00,49.035
1121.00,49.012
1122.00,49.019
1123.00,48.987
1124.00,49.001
1125.00,48.989
1126.00,48.982
1127.00,48.963
1128.00,48.977
1129.00,48.954
1130.00,48.957
1131.00,48.936
1132.00,48.949
1133.00,48.951
1134.00,48.949
1135.00,48.954
1136.00,48.965
1137.00,48.919
1138.00,48.922
1139.00,48.921
1140.00,48.924
1141.00,48.902
1142.00,48.914
1143.00,48.902
1144.00,48.909
1145.00,48.896
1146.00,48.903
1147.00,48.901
1148.00,48.892
1149.00,48.896
1150.00,48.878
1151.00,48.876
1152.00,48.881
1153.00,48.870
1154.00,48.874
1155.00,48.874
1156.00,48.864
1157.00,48.860
1158.00,48.853
1159.00,48.857
1160.00,48.852
1161.00,48.868
1162.00,48.856
1163.00,48.851
1164.00,48.833
1165.00,48.848
1166.00,48.844
1167.00,48.819
1168.00,48.833
1169.00,48.835
1170.00,48.819
1171.00,48.819
1172.00,48.813
1173.00,48.821
1174.00,48.822
1175.00,48.830
1176.00,48.828
1177.00,48.807
1178.00,48.805
1179.00,48.803
1180.00,48.811
1181.00,48.831
1182.00,48.838
1183.00,48.813
1184.00,48.811
1185.00,48.824
1186.00,48.810
1187.00,48.809
1188.00,48.805
1189.00,48.815
1190.00,48.787
1191.00,48.814
1192.00,48.802
1193.00,48.809
1194.00,48.811
1195.00,48.782
1196.00,48.804
1197.00,48.800
1198.00,48.798
1199.00,48.803
1200.00,48.799
1201.00,48.819
1202.00,48.820
1203.00,48.797
1204.00,48.808
1205.00,48.804
1206.00,48.804
1207.00,48.795
1208.00,48.771
1209.00,48.807
1210.00,48.791
1211.00,48.800
1212.00,48.804
1213.00,48.786
1214.00,48.800
1215.00,48.783
1216.00,48.810
1217.00,48.784
1218.00,48.788
1219.00,48.788
1220.00,48.789
1221.00,48.808
1222.00,48.791
1223.00,48.812
1224.00,48.816
1225.00,48.834
1226.00,48.819
1227.00,48.820
1228.00,48.810
1229.00,48.818
1230.00,48.828
1231.00,48.831
1232.00,48.867
1233.00,48.871
1234.00,48.877
1235.00,48.862
1236.00,48.885
1237.00,48.862
1238.00,48.875
1239.00,48.876
1240.00,48.881
1241.00,48.868
1242.00,48.868
1243.00,48.895
1244.00,48.867
1245.00,48.888
1246.00,48.889
1247.00,48.893
1248.00,48.889
1249.00,48.897
1250.00,48.888
1251.00,48.911
1252.00,48.908
1253.00,48.909
1254.00,48.934
1255.00,48.945
1256.00,48.919
1257.00,48.925
1258.00,48.926
1259.00,48.950
1260.00,48.974
1261.00,48.963
1262.00,48.979
1263.00,48.963
1264.00,48.977
1265.00,48.979
1266.00,48.966
1267.00,48.974
1268.00,48.993
1269.00,48.970
1270.00,49.002
1271.00,49.004
1272.00,49.005
1273.00,49.006
1274.00,49.021
1275.00,49.020
1276.00,49.035
1277.00,49.015
1278.00,49.054
1279.00,49.039
1280.00,49.049
1281.00,49.056
1282.00,49.069
1283.00,49.093
1284.00,49.065
1285.00,49.097
1286.00,49.088
1287.00,49.100
1288.00,49.091
1289.00,49.081
1290.00,49.125
1291.00,49.128
1292.00,49.125
1293.00,49.109
1294.00,49.114
1295.00,49.152
1296.00,49.120
1297.00,49.161
1298.00,49.166
1299.00,49.168
1300.00,49.165
1301.00,49.167
1302.00,49.182
1303.00,49.196
1304.00,49.181
1305.00,49.198
1306.00,49.218
1307.00,49.215
1308.00,49.218
1309.00,49.246
1310.00,49.252
1311.00,49.252
1312.00,49.254
1313.00,49.248
1314.00,49.281
1315.00,49.282
1316.00,49.288
1317.00,49.301
1318.00,49.318
1319.00,49.306
1320.00,49.340
1321.00,49.452
1322.00,49.484
1323.00,49.471
1324.00,49.471
1325.00,49.467
1326.00,49.491
1327.00,49.469
1328.00,49.471
1329.00,49.443
1330.00,49.468
1331.00,49.461
1332.00,49.454
1333.00,49.479
1334.00,49.477
1335.00,49.509
1336.00,49.529
1337.00,49.543
1338.00,49.610
1339.00,49.635
1340.00,49.692
1341.00,49.776
1342.00,49.835
1343.00,49.865
1344.00,49.948
1345.00,50.095
1346.00,50.040
1347.00,50.115
1348.00,50.101
1349.00,50.138
1350.00,50.159
1351.00,50.169
1352.00,50.203
1353.00,50.240
1354.00,50.191
1355.00,50.210
1356.00,50.186
1357.00,50.223
1358.00,50.253
1359.00,50.304
1360.00,50.356
1361.00,50.283
1362.00,50.422
1363.00,50.262
1364.00,50.409
1365.00,50.370
1366.00,50.245
1367.00,50.282
1368.00,50.282
1369.00,50.268
1370.00,50.194
1371.00,50.287
1372.00,50.228
1373.00,50.227
1374.00,50.327
1375.00,50.243
1376.00,50.224
1377.00,50.250
1378.00,50.274
1379.00,50.249
1380.00,50.298
1381.00,50.242
1382.00,50.226
1383.00,50.488
1384.00,50.243
1385.00,50.265
1386.00,50.314
1387.00,50.281
1388.00,50.199
1389.00,50.229
1390.00,50.345
1391.00,50.296
1392.00,50.233
1393.00,50.212
1394.00,50.243
1395.00,50.262
1396.00,50.314
1397.00,50.237
1398.00,50.134
1399.00,50.257
1400.00,50.174
1401.00,50.289
1402.00,50.224
1403.00,50.269
1404.00,50.281
1405.00,50.244
1406.00,50.303
1407.00,50.245
1408.00,50.288
1409.00,50.296
1410.00,50.274
1411.00,50.305
1412.00,50.327
1413.00,50.309
1414.00,50.397
1415.00,50.372
1416.00,50.352
1417.00,50.330
1418.00,50.386
1419.00,50.368
1420.00,50.402
1421.00,50.406
1422.00,50.446
1423.00,50.442
1424.00,50.477
1425.00,50.477
1426.00,50.507
1427.00,50.527
1428.00,50.524
1429.00,50.543
1430.00,50.562
1431.00,50.570
1432.00,50.604
1433.00,50.624
1434.00,50.620
1435.00,50.675
1436.00,50.671
1437.00,50.683
1438.00,50.698
1439.00,50.713
1440.00,50.730
1441.00,50.760
1442.00,50.757
1443.00,50.806
1444.00,50.800
1445.00,50.831
1446.00,50.826
1447.00,50.851
1448.00,50.868
1449.00,50.905
1450.00,50.887
1451.00,50.926
1452.00,50.935
1453.00,50.938
1454.00,50.959
1455.00,50.997
1456.00,51.010
1457.00,51.044
1458.00,51.032
1459.00,51.078
1460.00,51.046
1461.00,51.074
1462.00,51.140
1463.00,51.101
1464.00,51.104
1465.00,51.169
1466.00,51.136
1467.00,51.184
1468.00,51.224
1469.00,51.218
1470.00,51.242
1471.00,51.253
1472.00,51.245
1473.00,51.279
1474.00,51.289
1475.00,51.299
1476.00,51.344
1477.00,51.333
1478.00,51.347
1479.00,51.382
1480.00,51.376
1481.00,51.390
1482.00,51.416
1483.00,51.407
1484.00,51.441
1485.00,51.466
1486.00,51.456
1487.00,51.480
1488.00,51.508
1489.00,51.523
1490.00,51.515
1491.00,51.536
1492.00,51.541
1493.00,51.553
1494.00,51.543
1495.00,51.576
1496.00,51.578
1497.00,51.603
1498.00,51.618
1499.00,51.656
1500.00,51.648
1501.00, 
1502.00, 
1503.00, 
1504.00, 
1505.00, 
1506.00, 
1507.00, 
1508.00, 
1509.00, 
1510.00, 
1511.00, 
1512.00, 
1513.00, 
1514.00, 
1515.00, 
1516.00, 
1517.00, 
1518.00, 
1519.00, 
1520.00, 
1521.00, 
1522.00, 
1523.00, 
1524.00, 
1525.00, 
1526.00, 
1527.00, 
1528.00, 
1529.00, 
1530.00, 
1531.00, 
1532.00, 
1533.00, 
1534.00, 
1535.00, 
1536.00, 
1537.00, 
1538.00, 
1539.00, 
1540.00, 
1541.00, 
1542.00, 
1543.00, 
1544.00, 
1545.00, 
1546.00, 
1547.00, 
1548.00, 
1549.00, 
1550.00, 
1551.00, 
1552.00, 
1553.00, 
1554.00, 
1555.00, 
1556.00, 
1557.00, 
1558.00, 
1559.00, 
1560.00, 
1561.00, 
1562.00, 
1563.00, 
1564.00, 
1565.00, 
1566.00, 
1567.00, 
1568.00, 
1569.00, 
1570.00, 
1571.00, 
1572.00, 
1573.00, 
1574.00, 
1575.00, 
1576.00, 
1577.00, 
1578.00, 
1579.00, 
1580.00, 
1581.00, 
1582.00, 
1583.00, 
1584.00, 
1585.00, 
1586.00, 
1587.00, 
1588.00, 
1589.00, 
1590.00, 
1591.00, 
1592.00, 
1593.00, 
1594.00, 
1595.00, 
1596.00, 
1597.00, 
1598.00, 
1599.00, 
1600.00, 
1601.00, 
1602.00, 
1603.00, 
1604.00, 
1605.00, 
1606.00, 
1607.00, 
1608.00, 
1609.00, 
1610.00, 
1611.00, 
1612.00, 
1613.00, 
1614.00, 
1615.00, 
1616.00, 
1617.00, 
1618.00, 
1619.00, 
1620.00, 
1621.00, 
1622.00, 
1623.00, 
1624.00, 
1625.00, 
1626.00, 
1627.00, 
1628.00, 
1629.00, 
1630.00, 
1631.00, 
1632.00, 
1633.00, 
1634.00, 
1635.00, 
1636.00, 
1637.00, 
1638.00, 
1639.00, 
1640.00, 
1641.00, 
1642.00, 
1643.00, 
1644.00, 
1645.00, 
1646.00, 
1647.00, 
1648.00, 
1649.00, 
1650.00, 
1651.00, 
1652.00, 
1653.00, 
1654.00, 
1655.00, 
1656.00, 
1657.00, 
1658.00, 
1659.00, 
1660.00, 
1661.00, 
1662.00, 
1663.00, 
1664.00, 
1665.00, 
1666.00, 
1667.00, 
1668.00, 
1669.00, 
1670.00, 
1671.00, 
1672.00, 
1673.00, 
1674.00, 
1675.00, 
1676.00, 
1677.00, 
1678.00, 
1679.00, 
1680.00, 
1681.00, 
1682.00, 
1683.00, 
1684.00, 
1685.00, 
1686.00, 
1687.00, 
1688.00, 
1689.00, 
1690.00, 
1691.00, 
1692.00, 
1693.00, 
1694.00, 
1695.00, 
1696.00, 
1697.00, 
1698.00, 
1699.00, 
1700.00, 
1701.00, 
1702.00, 
1703.00, 
1704.00, 
1705.00, 
1706.00, 
1707.00, 
1708.00, 
1709.00, 
1710.00, 
1711.00, 
1712.00, 
1713.00, 
1714.00, 
1715.00, 
1716.00, 
1717.00, 
1718.00, 
1719.00, 
1720.00, 
1721.00, 
1722.00, 
1723.00, 
1724.00, 
1725.00, 
1726.00, 
1727.00, 
1728.00, 
1729.00, 
1730.00, 
1731.00, 
1732.00, 
1733.00, 
1734.00, 
1735.00, 
1736.00, 
1737.00, 
1738.00, 
1739.00, 
1740.00, 
1741.00, 
1742.00, 
1743.00, 
1744.00, 
1745.00, 
1746.00, 
1747.00, 
1748.00, 
1749.00, 
1750.00, 
1751.00, 
1752.00, 
1753.00, 
1754.00, 
1755.00, 
1756.00, 
1757.00, 
1758.00, 
1759.00, 
1760.00, 
1761.00, 
1762.00, 
1763.00, 
1764.00, 
1765.00, 
1766.00, 
1767.00, 
1768.00, 
1769.00, 
1770.00, 
1771.00, 
1772.00, 
1773.00, 
1774.00, 
1775.00, 
1776.00, 
1777.00, 
1778.00, 
1779.00, 
1780.00, 
1781.00, 
1782.00, 
1783.00, 
1784.00, 
1785.00, 
1786.00, 
1787.00, 
1788.00, 
1789.00, 
1790.00, 
1791.00, 
1792.00, 
1793.00, 
1794.00, 
1795.00, 
1796.00, 
1797.00, 
1798.00, 
1799.00, 
1800.00, 
1801.00, 
1802.00, 
1803.00, 
1804.00, 
1805.00, 
1806.00, 
1807.00, 
1808.00, 
1809.00, 
1810.00, 
1811.00, 
1812.00, 
1813.00, 
1814.00, 
1815.00, 
1816.00, 
1817.00, 
1818.00, 
1819.00, 
1820.00, 
1821.00, 
1822.00, 
1823.00, 
1824.00, 
1825.00, 
1826.00, 
1827.00, 
1828.00, 
1829.00, 
1830.00, 
1831.00, 
1832.00, 
1833.00, 
1834.00, 
1835.00, 
1836.00, 
1837.00, 
1838.00, 
1839.00, 
1840.00, 
1841.00, 
1842.00, 
1843.00, 
1844.00, 
1845.00, 
1846.00, 
1847.00, 
1848.00, 
1849.00, 
1850.00, 
1851.00, 
1852.00, 
1853.00, 
1854.00, 
1855.00, 
1856.00, 
1857.00, 
1858.00, 
1859.00, 
1860.00, 
1861.00, 
1862.00, 
1863.00, 
1864.00, 
1865.00, 
1866.00, 
1867.00, 
1868.00, 
1869.00, 
1870.00, 
1871.00, 
1872.00, 
1873.00, 
1874.00, 
1875.00, 
1876.00, 
1877.00, 
1878.00, 
1879.00, 
1880.00, 
1881.00, 
1882.00, 
1883.00, 
1884.00, 
1885.00, 
1886.00, 
1887.00, 
1888.00, 
1889.00, 
1890.00, 
1891.00, 
1892.00, 
1893.00, 
1894.00, 
1895.00, 
1896.00, 
1897.00, 
1898.00, 
1899.00, 
1900.00, 
1901.00, 
1902.00, 
1903.00, 
1904.00, 
1905.00, 
1906.00, 
1907.00, 
1908.00, 
1909.00, 
1910.00, 
1911.00, 
1912.00, 
1913.00, 
1914.00, 
1915.00, 
1916.00, 
1917.00, 
1918.00, 
1919.00, 
1920.00, 
1921.00, 
1922.00, 
1923.00, 
1924.00, 
1925.00, 
1926.00, 
1927.00, 
1928.00, 
1929.00, 
1930.00, 
1931.00, 
1932.00, 
1933.00, 
1934.00, 
1935.00, 
1936.00, 
1937.00, 
1938.00, 
1939.00, 
1940.00, 
1941.00, 
1942.00, 
1943.00, 
1944.00, 
1945.00, 
1946.00, 
1947.00, 
1948.00, 
1949.00, 
1950.00, 
1951.00, 
1952.00, 
1953.00, 
1954.00, 
1955.00, 
1956.00, 
1957.00, 
1958.00, 
1959.00, 
1960.00, 
1961.00, 
1962.00, 
1963.00, 
1964.00, 
1965.00, 
1966.00, 
1967.00, 
1968.00, 
1969.00, 
1970.00, 
1971.00, 
1972.00, 
1973.00, 
1974.00, 
1975.00, 
1976.00, 
1977.00, 
1978.00, 
1979.00, 
1980.00, 
1981.00, 
1982.00, 
1983.00, 
1984.00, 
1985.00, 
1986.00, 
1987.00, 
1988.00, 
1989.00, 
1990.00, 
1991.00, 
1992.00, 
1993.00, 
1994.00, 
1995.00, 
1996.00, 
1997.00, 
1998.00, 
1999.00, 
2000.00, 
2001.00, 
2002.00, 
2003.00, 
2004.00, 
2005.00, 
2006.00, 
2007.00, 
2008.00, 
2009.00, 
2010.00, 
2011.00, 
2012.00, 
2013.00, 
2014.00, 
2015.00, 
2016.00, 
2017.00, 
2018.00, 
2019.00, 
2020.00, 
2021.00, 
2022.00, 
2023.00, 
2024.00, 
2025.00, 
2026.00, 
2027.00, 
2028.00, 
2029.00, 
2030.00, 
2031.00, 
2032.00, 
2033.00, 
2034.00, 
2035.00, 
2036.00, 
2037.00, 
2038.00, 
2039.00, 
2040.00, 
2041.00, 
2042.00, 
2043.00, 
2044.00, 
2045.00, 
2046.00, 
2047.00, 
2048.00, 
2049.00, 
2050.00, 
2051.00, 
2052.00, 
2053.00, 
2054.00, 
2055.00, 
2056.00, 
2057.00, 
2058.00, 
2059.00, 
2060.00, 
2061.00, 
2062.00, 
2063.00, 
2064.00, 
2065.00, 
2066.00, 
2067.00, 
2068.00, 
2069.00, 
2070.00, 
2071.00, 
2072.00, 
2073.00, 
2074.00, 
2075.00, 
2076.00, 
2077.00, 
2078.00, 
2079.00, 
2080.00, 
2081.00, 
2082.00, 
2083.00, 
2084.00, 
2085.00, 
2086.00, 
2087.00, 
2088.00, 
2089.00, 
2090.00, 
2091.00, 
2092.00, 
2093.00, 
2094.00, 
2095.00, 
2096.00, 
2097.00, 
2098.00, 
2099.00, 
2100.00, 
2101.00, 
2102.00, 
2103.00, 
2104.00, 
2105.00, 
2106.00, 
2107.00, 
2108.00, 
2109.00, 
2110.00, 
2111.00, 
2112.00, 
2113.00, 
2114.00, 
2115.00, 
2116.00, 
2117.00, 
2118.00, 
2119.00, 
2120.00, 
2121.00, 
2122.00, 
2123.00, 
2124.00, 
2125.00, 
2126.00, 
2127.00, 
2128.00, 
2129.00, 
2130.00, 
2131.00, 
2132.00, 
2133.00, 
2134.00, 
2135.00, 
2136.00, 
2137.00, 
2138.00, 
2139.00, 
2140.00, 
2141.00, 
2142.00, 
2143.00, 
2144.00, 
2145.00, 
2146.00, 
2147.00, 
2148.00, 
2149.00, 
2150.00, 
2151.00, 
2152.00, 
2153.00, 
2154.00, 
2155.00, 
2156.00, 
2157.00, 
2158.00, 
2159.00, 
2160.00, 
2161.00, 
2162.00, 
2163.00, 
2164.00, 
2165.00, 
2166.00, 
2167.00, 
2168.00, 
2169.00, 
2170.00, 
2171.00, 
2172.00, 
2173.00, 
2174.00, 
2175.00, 
2176.00, 
2177.00, 
2178.00, 
2179.00, 
2180.00, 
2181.00, 
2182.00, 
2183.00, 
2184.00, 
2185.00, 
2186.00, 
2187.00, 
2188.00, 
2189.00, 
2190.00, 
2191.00, 
2192.00, 
2193.00, 
2194.00, 
2195.00, 
2196.00, 
2197.00, 
2198.00, 
2199.00, 
2200.00, 
2201.00, 
2202.00, 
2203.00, 
2204.00, 
2205.00, 
2206.00, 
2207.00, 
2208.00, 
2209.00, 
2210.00, 
2211.00, 
2212.00, 
2213.00, 
2214.00, 
2215.00, 
2216.00, 
2217.00, 
2218.00, 
2219.00, 
2220.00, 
2221.00, 
2222.00, 
2223.00, 
2224.00, 
2225.00, 
2226.00, 
2227.00, 
2228.00, 
2229.00, 
2230.00, 
2231.00, 
2232.00, 
2233.00, 
2234.00, 
2235.00, 
2236.00, 
2237.00, 
2238.00, 
2239.00, 
2240.00, 
2241.00, 
2242.00, 
2243.00, 
2244.00, 
2245.00, 
2246.00, 
2247.00, 
2248.00, 
2249.00, 
2250.00, 
2251.00, 
2252.00, 
2253.00, 
2254.00, 
2255.00, 
2256.00, 
2257.00, 
2258.00, 
2259.00, 
2260.00, 
2261.00, 
2262.00, 
2263.00, 
2264.00, 
2265.00, 
2266.00, 
2267.00, 
2268.00, 
2269.00, 
2270.00, 
2271.00, 
2272.00, 
2273.00, 
2274.00, 
2275.00, 
2276.00, 
2277.00, 
2278.00, 
2279.00, 
2280.00, 
2281.00, 
2282.00, 
2283.00, 
2284.00, 
2285.00, 
2286.00, 
2287.00, 
2288.00, 
2289.00, 
2290.00, 
2291.00, 
2292.00, 
2293.00, 
2294.00, 
2295.00, 
2296.00, 
2297.00, 
2298.00, 
2299.00, 
2300.00, 
2301.00, 
2302.00, 
2303.00, 
2304.00, 
2305.00, 
2306.00, 
2307.00, 
2308.00, 
2309.00, 
2310.00, 
2311.00, 
2312.00, 
2313.00, 
2314.00, 
2315.00, 
2316.00, 
2317.00, 
2318.00, 
2319.00, 
2320.00, 
2321.00, 
2322.00, 
2323.00, 
2324.00, 
2325.00, 
2326.00, 
2327.00, 
2328.00, 
2329.00, 
2330.00, 
2331.00, 
2332.00, 
2333.00, 
2334.00, 
2335.00, 
2336.00, 
2337.00, 
2338.00, 
2339.00, 
2340.00, 
2341.00, 
2342.00, 
2343.00, 
2344.00, 
2345.00, 
2346.00, 
2347.00, 
2348.00, 
2349.00, 
2350.00, 
2351.00, 
2352.00, 
2353.00, 
2354.00, 
2355.00, 
2356.00, 
2357.00, 
2358.00, 
2359.00, 
2360.00, 
2361.00, 
2362.00, 
2363.00, 
2364.00, 
2365.00, 
2366.00, 
2367.00, 
2368.00, 
2369.00, 
2370.00, 
2371.00, 
2372.00, 
2373.00, 
2374.00, 
2375.00, 
2376.00, 
2377.00, 
2378.00, 
2379.00, 
2380.00, 
2381.00, 
2382.00, 
2383.00, 
2384.00, 
2385.00, 
2386.00, 
2387.00, 
2388.00, 
2389.00, 
2390.00, 
2391.00, 
2392.00, 
2393.00, 
2394.00, 
2395.00, 
2396.00, 
2397.00, 
2398.00, 
2399.00, 
2400.00, 
2401.00, 
2402.00, 
2403.00, 
2404.00, 
2405.00, 
2406.00, 
2407.00, 
2408.00, 
2409.00, 
2410.00, 
2411.00, 
2412.00, 
2413.00, 
2414.00, 
2415.00, 
2416.00, 
2417.00, 
2418.00, 
2419.00, 
2420.00, 
2421.00, 
2422.00, 
2423.00, 
2424.00, 
2425.00, 
2426.00, 
2427.00, 
2428.00, 
2429.00, 
2430.00, 
2431.00, 
2432.00, 
2433.00, 
2434.00, 
2435.00, 
2436.00, 
2437.00, 
2438.00, 
2439.00, 
2440.00, 
2441.00, 
2442.00, 
2443.00, 
2444.00, 
2445.00, 
2446.00, 
2447.00, 
2448.00, 
2449.00, 
2450.00, 
2451.00, 
2452.00, 
2453.00, 
2454.00, 
2455.00, 
2456.00, 
2457.00, 
2458.00, 
2459.00, 
2460.00, 
2461.00, 
2462.00, 
2463.00, 
2464.00, 
2465.00, 
2466.00, 
2467.00, 
2468.00, 
2469.00, 
2470.00, 
2471.00, 
2472.00, 
2473.00, 
2474.00, 
2475.00, 
2476.00, 
2477.00, 
2478.00, 
2479.00, 
2480.00, 
2481.00, 
2482.00, 
2483.00, 
2484.00, 
2485.00, 
2486.00, 
2487.00, 
2488.00, 
2489.00, 
2490.00, 
2491.00, 
2492.00, 
2493.00, 
2494.00, 
2495.00, 
2496.00, 
2497.00, 
2498.00, 
2499.00, 
2500.00, 
2501.00, 
2502.00, 
2503.00, 
2504.00, 
2505.00, 
2506.00, 
2507.00, 
2508.00, 
2509.00, 
2510.00, 
2511.00, 
2512.00, 
2513.00, 
2514.00, 
2515.00, 
2516.00, 
2517.00, 
2518.00, 
2519.00, 
2520.00, 
2521.00, 
2522.00, 
2523.00, 
2524.00, 
2525.00, 
2526.00, 
2527.00, 
2528.00, 
2529.00, 
2530.00, 
2531.00, 
2532.00, 
2533.00, 
2534.00, 
2535.00, 
2536.00, 
2537.00, 
2538.00, 
2539.00, 
2540.00, 
2541.00, 
2542.00, 
2543.00, 
2544.00, 
2545.00, 
2546.00, 
2547.00, 
2548.00, 
2549.00, 
2550.00, 
2551.00, 
2552.00, 
2553.00, 
2554.00, 
2555.00, 
2556.00, 
2557.00, 
2558.00, 
2559.00, 
2560.00, 
2561.00, 
2562.00, 
2563.00, 
2564.00, 
2565.00, 
2566.00, 
2567.00, 
2568.00, 
2569.00, 
2570.00, 
2571.00, 
2572.00, 
2573.00, 
2574.00, 
2575.00, 
2576.00, 
2577.00, 
2578.00, 
2579.00, 
2580.00, 
2581.00, 
2582.00, 
2583.00, 
2584.00, 
2585.00, 
2586.00, 
2587.00, 
2588.00, 
2589.00, 
2590.00, 
2591.00, 
2592.00, 
2593.00, 
2594.00, 
2595.00, 
2596.00, 
2597.00, 
2598.00, 
2599.00, 
2600.00, 
