"1cP2 - RawData"
"Wavelength nm.","T%"
200.00,0.001
201.00,0.001
202.00,0.000
203.00,-0.000
204.00,0.002
205.00,0.004
206.00,-0.001
207.00,0.003
208.00,0.002
209.00,-0.001
210.00,0.000
211.00,0.002
212.00,-0.000
213.00,-0.001
214.00,0.001
215.00,0.001
216.00,0.000
217.00,0.003
218.00,0.000
219.00,0.002
220.00,0.002
221.00,0.002
222.00,-0.001
223.00,-0.000
224.00,-0.002
225.00,0.002
226.00,-0.002
227.00,0.002
228.00,-0.000
229.00,0.001
230.00,0.001
231.00,-0.001
232.00,0.002
233.00,0.001
234.00,0.001
235.00,0.001
236.00,-0.002
237.00,0.001
238.00,-0.000
239.00,0.002
240.00,-0.000
241.00,0.001
242.00,-0.000
243.00,-0.000
244.00,-0.000
245.00,-0.001
246.00,0.001
247.00,-0.000
248.00,0.001
249.00,0.002
250.00,0.001
251.00,0.000
252.00,0.000
253.00,0.000
254.00,0.001
255.00,-0.000
256.00,0.000
257.00,0.001
258.00,0.001
259.00,-0.001
260.00,0.000
261.00,0.001
262.00,0.002
263.00,0.001
264.00,0.000
265.00,0.001
266.00,0.000
267.00,0.001
268.00,-0.000
269.00,-0.000
270.00,0.002
271.00,0.000
272.00,0.000
273.00,0.001
274.00,0.001
275.00,-0.000
276.00,0.001
277.00,0.001
278.00,0.001
279.00,0.000
280.00,0.000
281.00,-0.000
282.00,0.002
283.00,0.000
284.00,-0.000
285.00,0.001
286.00,-0.000
287.00,-0.000
288.00,-0.001
289.00,-0.002
290.00,0.001
291.00,-0.001
292.00,-0.000
293.00,0.001
294.00,0.001
295.00,0.001
296.00,-0.000
297.00,0.000
298.00,-0.001
299.00,0.001
300.00,0.001
301.00,0.000
302.00,0.002
303.00,-0.001
304.00,0.002
305.00,0.002
306.00,0.003
307.00,0.004
308.00,0.008
309.00,0.016
310.00,0.026
311.00,0.041
312.00,0.062
313.00,0.094
314.00,0.142
315.00,0.204
316.00,0.294
317.00,0.414
318.00,0.570
319.00,0.748
320.00,0.997
321.00,1.296
322.00,1.643
323.00,2.083
324.00,2.569
325.00,3.071
326.00,3.644
327.00,4.345
328.00,5.051
329.00,5.815
330.00,6.672
331.00,7.525
332.00,8.433
333.00,9.349
334.00,10.364
335.00,11.411
336.00,12.421
337.00,13.454
338.00,14.513
339.00,15.476
340.00,16.519
341.00,17.574
342.00,18.458
343.00,19.413
344.00,20.298
345.00,21.171
346.00,21.991
347.00,22.779
348.00,23.559
349.00,24.270
350.00,24.981
351.00,25.583
352.00,26.155
353.00,26.734
354.00,27.282
355.00,27.829
356.00,28.329
357.00,28.730
358.00,29.141
359.00,29.587
360.00,29.923
361.00,30.182
362.00,30.442
363.00,30.820
364.00,31.095
365.00,31.323
366.00,31.507
367.00,31.665
368.00,31.826
369.00,31.923
370.00,32.057
371.00,32.079
372.00,32.122
373.00,32.036
374.00,32.066
375.00,32.077
376.00,31.980
377.00,31.911
378.00,31.839
379.00,31.795
380.00,31.729
381.00,31.729
382.00,31.791
383.00,31.929
384.00,32.017
385.00,32.174
386.00,32.224
387.00,32.382
388.00,32.489
389.00,32.603
390.00,32.701
391.00,32.774
392.00,32.896
393.00,32.948
394.00,32.976
395.00,33.025
396.00,33.007
397.00,33.049
398.00,33.060
399.00,33.062
400.00,33.116
401.00,33.132
402.00,33.109
403.00,33.114
404.00,33.106
405.00,33.068
406.00,33.100
407.00,32.984
408.00,32.989
409.00,32.912
410.00,32.844
411.00,32.795
412.00,32.720
413.00,32.819
414.00,32.759
415.00,32.749
416.00,32.775
417.00,32.718
418.00,32.772
419.00,32.730
420.00,32.739
421.00,32.837
422.00,32.856
423.00,32.804
424.00,32.890
425.00,32.865
426.00,32.861
427.00,32.904
428.00,32.838
429.00,32.980
430.00,33.013
431.00,33.022
432.00,33.071
433.00,33.091
434.00,33.105
435.00,33.136
436.00,33.184
437.00,33.173
438.00,33.253
439.00,33.308
440.00,33.360
441.00,33.446
442.00,33.509
443.00,33.517
444.00,33.649
445.00,33.677
446.00,33.767
447.00,33.761
448.00,33.886
449.00,33.953
450.00,34.025
451.00,34.187
452.00,34.221
453.00,34.321
454.00,34.404
455.00,34.516
456.00,34.555
457.00,34.668
458.00,34.746
459.00,34.819
460.00,34.904
461.00,35.054
462.00,35.156
463.00,35.215
464.00,35.329
465.00,35.403
466.00,35.496
467.00,35.566
468.00,35.630
469.00,35.717
470.00,35.749
471.00,35.875
472.00,35.983
473.00,36.023
474.00,36.103
475.00,36.266
476.00,36.339
477.00,36.447
478.00,36.507
479.00,36.675
480.00,36.792
481.00,36.910
482.00,37.033
483.00,37.187
484.00,37.242
485.00,37.423
486.00,37.527
487.00,37.597
488.00,37.726
489.00,37.726
490.00,37.888
491.00,38.037
492.00,38.079
493.00,38.294
494.00,38.370
495.00,38.409
496.00,38.393
497.00,38.620
498.00,38.723
499.00,38.776
500.00,38.892
501.00,38.784
502.00,39.097
503.00,39.241
504.00,39.279
505.00,39.357
506.00,39.445
507.00,39.567
508.00,39.641
509.00,39.724
510.00,39.885
511.00,39.930
512.00,40.000
513.00,40.155
514.00,40.252
515.00,40.294
516.00,40.417
517.00,40.456
518.00,40.523
519.00,40.629
520.00,40.712
521.00,40.735
522.00,40.852
523.00,40.957
524.00,40.959
525.00,41.134
526.00,41.143
527.00,41.261
528.00,41.237
529.00,41.365
530.00,41.453
531.00,41.492
532.00,41.599
533.00,41.612
534.00,41.742
535.00,41.801
536.00,41.897
537.00,41.951
538.00,41.936
539.00,42.105
540.00,42.140
541.00,42.279
542.00,42.223
543.00,42.276
544.00,42.279
545.00,42.443
546.00,42.455
547.00,42.526
548.00,42.599
549.00,42.600
550.00,42.747
551.00,42.777
552.00,42.775
553.00,42.825
554.00,42.842
555.00,42.951
556.00,42.974
557.00,42.953
558.00,43.108
559.00,43.120
560.00,43.277
561.00,43.304
562.00,43.391
563.00,43.352
564.00,43.458
565.00,43.481
566.00,43.431
567.00,43.492
568.00,43.490
569.00,43.553
570.00,43.595
571.00,43.564
572.00,43.637
573.00,43.617
574.00,43.675
575.00,43.745
576.00,43.754
577.00,43.818
578.00,43.851
579.00,43.908
580.00,43.914
581.00,44.050
582.00,44.107
583.00,44.165
584.00,44.210
585.00,44.285
586.00,44.311
587.00,44.317
588.00,44.444
589.00,44.451
590.00,44.511
591.00,44.539
592.00,44.577
593.00,44.557
594.00,44.627
595.00,44.592
596.00,44.642
597.00,44.679
598.00,44.670
599.00,44.790
600.00,44.739
601.00,44.721
602.00,44.926
603.00,44.808
604.00,44.899
605.00,44.942
606.00,44.937
607.00,45.073
608.00,45.070
609.00,45.062
610.00,45.220
611.00,45.113
612.00,45.134
613.00,45.161
614.00,45.211
615.00,45.176
616.00,45.243
617.00,45.259
618.00,45.302
619.00,45.335
620.00,45.365
621.00,45.413
622.00,45.481
623.00,45.463
624.00,45.585
625.00,45.558
626.00,45.630
627.00,45.631
628.00,45.692
629.00,45.680
630.00,45.701
631.00,45.724
632.00,45.806
633.00,45.865
634.00,45.881
635.00,45.900
636.00,45.928
637.00,46.032
638.00,46.028
639.00,46.074
640.00,46.147
641.00,46.133
642.00,46.099
643.00,46.208
644.00,46.330
645.00,46.255
646.00,46.413
647.00,46.362
648.00,46.540
649.00,46.443
650.00,46.503
651.00,46.552
652.00,46.561
653.00,46.742
654.00,46.714
655.00,46.736
656.00,46.677
657.00,46.963
658.00,46.903
659.00,46.797
660.00,47.050
661.00,47.107
662.00,47.130
663.00,47.084
664.00,47.146
665.00,47.427
666.00,47.195
667.00,47.430
668.00,47.269
669.00,47.594
670.00,47.572
671.00,47.480
672.00,47.416
673.00,47.600
674.00,47.656
675.00,47.617
676.00,47.714
677.00,47.836
678.00,47.743
679.00,47.871
680.00,47.888
681.00,47.927
682.00,48.095
683.00,48.036
684.00,48.210
685.00,48.327
686.00,48.195
687.00,48.240
688.00,48.314
689.00,48.237
690.00,48.273
691.00,48.423
692.00,48.422
693.00,48.494
694.00,48.474
695.00,48.570
696.00,48.504
697.00,48.534
698.00,48.619
699.00,48.651
700.00,48.802
701.00,48.798
702.00,48.732
703.00,48.921
704.00,49.119
705.00,48.924
706.00,48.893
707.00,49.136
708.00,49.009
709.00,49.098
710.00,49.225
711.00,49.102
712.00,49.135
713.00,49.137
714.00,49.127
715.00,49.197
716.00,49.268
717.00,49.159
718.00,49.253
719.00,49.386
720.00,49.307
721.00,54.050
722.00,54.035
723.00,53.977
724.00,53.955
725.00,53.891
726.00,53.929
727.00,53.829
728.00,53.822
729.00,53.834
730.00,53.818
731.00,53.786
732.00,53.728
733.00,53.745
734.00,53.725
735.00,53.746
736.00,53.774
737.00,53.728
738.00,53.714
739.00,53.712
740.00,53.673
741.00,53.760
742.00,53.683
743.00,53.687
744.00,53.632
745.00,53.634
746.00,53.601
747.00,53.522
748.00,53.534
749.00,53.467
750.00,53.423
751.00,53.466
752.00,53.472
753.00,53.225
754.00,53.414
755.00,53.269
756.00,53.300
757.00,53.272
758.00,53.259
759.00,53.296
760.00,53.247
761.00,53.245
762.00,53.169
763.00,53.143
764.00,53.166
765.00,53.147
766.00,53.219
767.00,53.174
768.00,53.118
769.00,53.047
770.00,53.057
771.00,53.056
772.00,53.050
773.00,52.997
774.00,53.067
775.00,53.054
776.00,53.018
777.00,53.005
778.00,52.949
779.00,52.941
780.00,52.986
781.00,52.955
782.00,52.849
783.00,52.936
784.00,52.884
785.00,52.804
786.00,52.817
787.00,52.700
788.00,52.692
789.00,52.681
790.00,52.670
791.00,52.650
792.00,52.602
793.00,52.697
794.00,52.587
795.00,52.562
796.00,52.511
797.00,52.408
798.00,52.444
799.00,52.381
800.00,52.402
801.00,52.364
802.00,52.329
803.00,52.329
804.00,52.215
805.00,52.241
806.00,52.142
807.00,52.244
808.00,52.197
809.00,52.112
810.00,52.070
811.00,52.041
812.00,52.070
813.00,52.029
814.00,52.049
815.00,51.971
816.00,51.996
817.00,51.955
818.00,51.861
819.00,51.837
820.00,51.883
821.00,51.870
822.00,51.702
823.00,51.861
824.00,51.795
825.00,51.788
826.00,51.807
827.00,51.716
828.00,51.683
829.00,51.617
830.00,51.651
831.00,53.809
832.00,53.655
833.00,53.679
834.00,53.676
835.00,53.657
836.00,53.643
837.00,53.569
838.00,53.561
839.00,53.515
840.00,53.497
841.00,53.496
842.00,53.449
843.00,53.460
844.00,53.375
845.00,53.389
846.00,53.366
847.00,53.316
848.00,53.298
849.00,53.289
850.00,53.228
851.00,53.208
852.00,53.140
853.00,53.099
854.00,53.013
855.00,53.065
856.00,52.970
857.00,52.927
858.00,52.949
859.00,52.899
860.00,52.866
861.00,52.839
862.00,52.822
863.00,52.777
864.00,52.771
865.00,52.751
866.00,52.735
867.00,52.711
868.00,52.762
869.00,52.743
870.00,52.649
871.00,52.665
872.00,52.639
873.00,52.631
874.00,52.580
875.00,52.586
876.00,52.585
877.00,52.611
878.00,52.562
879.00,52.546
880.00,52.505
881.00,52.502
882.00,52.465
883.00,52.448
884.00,52.421
885.00,52.377
886.00,52.346
887.00,52.295
888.00,52.288
889.00,52.287
890.00,52.238
891.00,52.257
892.00,52.237
893.00,52.185
894.00,52.179
895.00,52.156
896.00,52.144
897.00,52.128
898.00,52.088
899.00,52.098
900.00,52.046
901.00,52.074
902.00,52.041
903.00,51.996
904.00,52.017
905.00,51.981
906.00,51.964
907.00,51.926
908.00,51.883
909.00,51.867
910.00,51.853
911.00,51.844
912.00,51.796
913.00,51.815
914.00,51.797
915.00,51.762
916.00,51.746
917.00,51.707
918.00,51.703
919.00,51.652
920.00,51.642
921.00,51.635
922.00,51.571
923.00,51.570
924.00,51.563
925.00,51.534
926.00,51.511
927.00,51.493
928.00,51.535
929.00,51.471
930.00,51.433
931.00,51.410
932.00,51.382
933.00,51.371
934.00,51.359
935.00,51.340
936.00,51.310
937.00,51.280
938.00,51.273
939.00,51.255
940.00,51.252
941.00,51.200
942.00,51.158
943.00,51.173
944.00,51.117
945.00,51.142
946.00,51.103
947.00,51.108
948.00,51.068
949.00,51.065
950.00,51.008
951.00,51.021
952.00,50.995
953.00,50.969
954.00,50.912
955.00,50.912
956.00,50.889
957.00,50.841
958.00,50.827
959.00,50.822
960.00,50.800
961.00,50.773
962.00,50.765
963.00,50.723
964.00,50.725
965.00,50.707
966.00,50.708
967.00,50.677
968.00,50.699
969.00,50.632
970.00,50.646
971.00,50.659
972.00,50.616
973.00,50.652
974.00,50.629
975.00,50.632
976.00,50.614
977.00,50.634
978.00,50.655
979.00,50.619
980.00,50.646
981.00,50.632
982.00,50.677
983.00,50.632
984.00,50.637
985.00,50.602
986.00,50.665
987.00,50.640
988.00,50.606
989.00,50.616
990.00,50.593
991.00,50.579
992.00,50.573
993.00,50.563
994.00,50.536
995.00,50.501
996.00,50.526
997.00,50.480
998.00,50.484
999.00,50.476
1000.00,50.454
1001.00,50.452
1002.00,50.407
1003.00,50.441
1004.00,50.404
1005.00,50.389
1006.00,50.386
1007.00,50.370
1008.00,50.359
1009.00,50.349
1010.00,50.343
1011.00,50.337
1012.00,50.326
1013.00,50.294
1014.00,50.290
1015.00,50.279
1016.00,50.227
1017.00,50.228
1018.00,50.216
1019.00,50.231
1020.00,50.189
1021.00,50.188
1022.00,50.166
1023.00,50.146
1024.00,50.125
1025.00,50.111
1026.00,50.122
1027.00,50.070
1028.00,50.090
1029.00,50.063
1030.00,50.057
1031.00,50.048
1032.00,49.993
1033.00,50.005
1034.00,49.996
1035.00,49.957
1036.00,49.913
1037.00,49.913
1038.00,49.884
1039.00,49.879
1040.00,49.856
1041.00,49.819
1042.00,49.808
1043.00,49.780
1044.00,49.793
1045.00,49.768
1046.00,49.796
1047.00,49.806
1048.00,49.826
1049.00,49.797
1050.00,49.822
1051.00,49.831
1052.00,49.859
1053.00,49.852
1054.00,49.850
1055.00,49.858
1056.00,49.850
1057.00,49.869
1058.00,49.858
1059.00,49.863
1060.00,49.861
1061.00,49.889
1062.00,49.860
1063.00,49.856
1064.00,49.844
1065.00,49.848
1066.00,49.807
1067.00,49.814
1068.00,49.819
1069.00,49.809
1070.00,49.770
1071.00,49.754
1072.00,49.761
1073.00,49.756
1074.00,49.743
1075.00,49.720
1076.00,49.734
1077.00,49.728
1078.00,49.713
1079.00,49.695
1080.00,49.711
1081.00,49.711
1082.00,49.695
1083.00,49.678
1084.00,49.696
1085.00,49.669
1086.00,49.663
1087.00,49.652
1088.00,49.650
1089.00,49.648
1090.00,49.625
1091.00,49.626
1092.00,49.646
1093.00,49.593
1094.00,49.597
1095.00,49.576
1096.00,49.571
1097.00,49.559
1098.00,49.557
1099.00,49.528
1100.00,49.543
1101.00,49.529
1102.00,49.519
1103.00,49.505
1104.00,49.495
1105.00,49.491
1106.00,49.471
1107.00,49.453
1108.00,49.482
1109.00,49.455
1110.00,49.464
1111.00,49.457
1112.00,49.446
1113.00,49.443
1114.00,49.446
1115.00,49.421
1116.00,49.423
1117.00,49.404
1118.00,49.412
1119.00,49.375
1120.00,49.369
1121.00,49.344
1122.00,49.358
1123.00,49.326
1124.00,49.326
1125.00,49.335
1126.00,49.325
1127.00,49.329
1128.00,49.359
1129.00,49.333
1130.00,49.332
1131.00,49.297
1132.00,49.291
1133.00,49.307
1134.00,49.277
1135.00,49.289
1136.00,49.293
1137.00,49.253
1138.00,49.304
1139.00,49.309
1140.00,49.286
1141.00,49.271
1142.00,49.267
1143.00,49.261
1144.00,49.266
1145.00,49.249
1146.00,49.259
1147.00,49.264
1148.00,49.244
1149.00,49.254
1150.00,49.244
1151.00,49.223
1152.00,49.236
1153.00,49.229
1154.00,49.243
1155.00,49.221
1156.00,49.200
1157.00,49.207
1158.00,49.218
1159.00,49.215
1160.00,49.221
1161.00,49.222
1162.00,49.218
1163.00,49.219
1164.00,49.197
1165.00,49.214
1166.00,49.207
1167.00,49.212
1168.00,49.224
1169.00,49.214
1170.00,49.175
1171.00,49.180
1172.00,49.177
1173.00,49.168
1174.00,49.187
1175.00,49.172
1176.00,49.182
1177.00,49.177
1178.00,49.169
1179.00,49.176
1180.00,49.187
1181.00,49.172
1182.00,49.175
1183.00,49.162
1184.00,49.157
1185.00,49.179
1186.00,49.158
1187.00,49.152
1188.00,49.143
1189.00,49.159
1190.00,49.140
1191.00,49.177
1192.00,49.149
1193.00,49.162
1194.00,49.174
1195.00,49.148
1196.00,49.163
1197.00,49.148
1198.00,49.136
1199.00,49.160
1200.00,49.172
1201.00,49.165
1202.00,49.177
1203.00,49.146
1204.00,49.154
1205.00,49.163
1206.00,49.160
1207.00,49.176
1208.00,49.148
1209.00,49.176
1210.00,49.158
1211.00,49.153
1212.00,49.166
1213.00,49.160
1214.00,49.179
1215.00,49.178
1216.00,49.176
1217.00,49.159
1218.00,49.170
1219.00,49.163
1220.00,49.157
1221.00,49.177
1222.00,49.155
1223.00,49.185
1224.00,49.191
1225.00,49.178
1226.00,49.174
1227.00,49.186
1228.00,49.176
1229.00,49.192
1230.00,49.210
1231.00,49.198
1232.00,49.243
1233.00,49.235
1234.00,49.248
1235.00,49.233
1236.00,49.227
1237.00,49.223
1238.00,49.240
1239.00,49.230
1240.00,49.244
1241.00,49.221
1242.00,49.224
1243.00,49.253
1244.00,49.230
1245.00,49.238
1246.00,49.269
1247.00,49.255
1248.00,49.249
1249.00,49.269
1250.00,49.259
1251.00,49.283
1252.00,49.267
1253.00,49.255
1254.00,49.282
1255.00,49.291
1256.00,49.276
1257.00,49.287
1258.00,49.264
1259.00,49.281
1260.00,49.330
1261.00,49.332
1262.00,49.340
1263.00,49.322
1264.00,49.325
1265.00,49.340
1266.00,49.326
1267.00,49.346
1268.00,49.360
1269.00,49.327
1270.00,49.374
1271.00,49.369
1272.00,49.380
1273.00,49.383
1274.00,49.388
1275.00,49.391
1276.00,49.427
1277.00,49.388
1278.00,49.419
1279.00,49.426
1280.00,49.414
1281.00,49.424
1282.00,49.432
1283.00,49.425
1284.00,49.452
1285.00,49.414
1286.00,49.408
1287.00,49.448
1288.00,49.437
1289.00,49.449
1290.00,49.487
1291.00,49.468
1292.00,49.476
1293.00,49.465
1294.00,49.483
1295.00,49.530
1296.00,49.502
1297.00,49.518
1298.00,49.521
1299.00,49.527
1300.00,49.522
1301.00,49.535
1302.00,49.547
1303.00,49.562
1304.00,49.549
1305.00,49.583
1306.00,49.603
1307.00,49.580
1308.00,49.573
1309.00,49.606
1310.00,49.600
1311.00,49.609
1312.00,49.628
1313.00,49.605
1314.00,49.656
1315.00,49.647
1316.00,49.643
1317.00,49.684
1318.00,49.686
1319.00,49.674
1320.00,49.704
1321.00,49.781
1322.00,49.821
1323.00,49.820
1324.00,49.810
1325.00,49.806
1326.00,49.832
1327.00,49.788
1328.00,49.795
1329.00,49.788
1330.00,49.813
1331.00,49.817
1332.00,49.809
1333.00,49.841
1334.00,49.895
1335.00,49.830
1336.00,49.903
1337.00,49.948
1338.00,49.975
1339.00,50.023
1340.00,50.066
1341.00,50.131
1342.00,50.215
1343.00,50.262
1344.00,50.329
1345.00,50.399
1346.00,50.416
1347.00,50.484
1348.00,50.465
1349.00,50.493
1350.00,50.539
1351.00,50.522
1352.00,50.554
1353.00,50.598
1354.00,50.565
1355.00,50.534
1356.00,50.526
1357.00,50.557
1358.00,50.599
1359.00,50.621
1360.00,50.579
1361.00,50.669
1362.00,50.727
1363.00,50.620
1364.00,50.751
1365.00,50.595
1366.00,50.626
1367.00,50.639
1368.00,50.557
1369.00,50.627
1370.00,50.621
1371.00,50.625
1372.00,50.612
1373.00,50.588
1374.00,50.609
1375.00,50.627
1376.00,50.600
1377.00,50.617
1378.00,50.659
1379.00,50.524
1380.00,50.631
1381.00,50.651
1382.00,50.538
1383.00,50.850
1384.00,50.572
1385.00,50.553
1386.00,50.672
1387.00,50.601
1388.00,50.475
1389.00,50.581
1390.00,50.670
1391.00,50.648
1392.00,50.521
1393.00,50.580
1394.00,50.661
1395.00,50.587
1396.00,50.544
1397.00,50.593
1398.00,50.638
1399.00,50.642
1400.00,50.565
1401.00,50.584
1402.00,50.668
1403.00,50.643
1404.00,50.602
1405.00,50.621
1406.00,50.629
1407.00,50.677
1408.00,50.675
1409.00,50.603
1410.00,50.663
1411.00,50.678
1412.00,50.680
1413.00,50.684
1414.00,50.667
1415.00,50.704
1416.00,50.719
1417.00,50.714
1418.00,50.744
1419.00,50.706
1420.00,50.775
1421.00,50.782
1422.00,50.823
1423.00,50.811
1424.00,50.842
1425.00,50.816
1426.00,50.880
1427.00,50.880
1428.00,50.888
1429.00,50.921
1430.00,50.961
1431.00,50.936
1432.00,50.959
1433.00,50.992
1434.00,50.978
1435.00,51.025
1436.00,51.049
1437.00,51.029
1438.00,51.050
1439.00,51.075
1440.00,51.085
1441.00,51.128
1442.00,51.121
1443.00,51.173
1444.00,51.191
1445.00,51.176
1446.00,51.181
1447.00,51.231
1448.00,51.224
1449.00,51.270
1450.00,51.254
1451.00,51.304
1452.00,51.310
1453.00,51.316
1454.00,51.315
1455.00,51.382
1456.00,51.376
1457.00,51.400
1458.00,51.405
1459.00,51.413
1460.00,51.431
1461.00,51.452
1462.00,51.480
1463.00,51.482
1464.00,51.465
1465.00,51.514
1466.00,51.524
1467.00,51.528
1468.00,51.576
1469.00,51.596
1470.00,51.595
1471.00,51.634
1472.00,51.633
1473.00,51.648
1474.00,51.678
1475.00,51.671
1476.00,51.694
1477.00,51.705
1478.00,51.705
1479.00,51.742
1480.00,51.726
1481.00,51.737
1482.00,51.778
1483.00,51.779
1484.00,51.828
1485.00,51.848
1486.00,51.818
1487.00,51.846
1488.00,51.876
1489.00,51.868
1490.00,51.873
1491.00,51.907
1492.00,51.894
1493.00,51.925
1494.00,51.928
1495.00,51.946
1496.00,51.946
1497.00,51.954
1498.00,51.974
1499.00,52.032
1500.00,52.020
1501.00, 
1502.00, 
1503.00, 
1504.00, 
1505.00, 
1506.00, 
1507.00, 
1508.00, 
1509.00, 
1510.00, 
1511.00, 
1512.00, 
1513.00, 
1514.00, 
1515.00, 
1516.00, 
1517.00, 
1518.00, 
1519.00, 
1520.00, 
1521.00, 
1522.00, 
1523.00, 
1524.00, 
1525.00, 
1526.00, 
1527.00, 
1528.00, 
1529.00, 
1530.00, 
1531.00, 
1532.00, 
1533.00, 
1534.00, 
1535.00, 
1536.00, 
1537.00, 
1538.00, 
1539.00, 
1540.00, 
1541.00, 
1542.00, 
1543.00, 
1544.00, 
1545.00, 
1546.00, 
1547.00, 
1548.00, 
1549.00, 
1550.00, 
1551.00, 
1552.00, 
1553.00, 
1554.00, 
1555.00, 
1556.00, 
1557.00, 
1558.00, 
1559.00, 
1560.00, 
1561.00, 
1562.00, 
1563.00, 
1564.00, 
1565.00, 
1566.00, 
1567.00, 
1568.00, 
1569.00, 
1570.00, 
1571.00, 
1572.00, 
1573.00, 
1574.00, 
1575.00, 
1576.00, 
1577.00, 
1578.00, 
1579.00, 
1580.00, 
1581.00, 
1582.00, 
1583.00, 
1584.00, 
1585.00, 
1586.00, 
1587.00, 
1588.00, 
1589.00, 
1590.00, 
1591.00, 
1592.00, 
1593.00, 
1594.00, 
1595.00, 
1596.00, 
1597.00, 
1598.00, 
1599.00, 
1600.00, 
1601.00, 
1602.00, 
1603.00, 
1604.00, 
1605.00, 
1606.00, 
1607.00, 
1608.00, 
1609.00, 
1610.00, 
1611.00, 
1612.00, 
1613.00, 
1614.00, 
1615.00, 
1616.00, 
1617.00, 
1618.00, 
1619.00, 
1620.00, 
1621.00, 
1622.00, 
1623.00, 
1624.00, 
1625.00, 
1626.00, 
1627.00, 
1628.00, 
1629.00, 
1630.00, 
1631.00, 
1632.00, 
1633.00, 
1634.00, 
1635.00, 
1636.00, 
1637.00, 
1638.00, 
1639.00, 
1640.00, 
1641.00, 
1642.00, 
1643.00, 
1644.00, 
1645.00, 
1646.00, 
1647.00, 
1648.00, 
1649.00, 
1650.00, 
1651.00, 
1652.00, 
1653.00, 
1654.00, 
1655.00, 
1656.00, 
1657.00, 
1658.00, 
1659.00, 
1660.00, 
1661.00, 
1662.00, 
1663.00, 
1664.00, 
1665.00, 
1666.00, 
1667.00, 
1668.00, 
1669.00, 
1670.00, 
1671.00, 
1672.00, 
1673.00, 
1674.00, 
1675.00, 
1676.00, 
1677.00, 
1678.00, 
1679.00, 
1680.00, 
1681.00, 
1682.00, 
1683.00, 
1684.00, 
1685.00, 
1686.00, 
1687.00, 
1688.00, 
1689.00, 
1690.00, 
1691.00, 
1692.00, 
1693.00, 
1694.00, 
1695.00, 
1696.00, 
1697.00, 
1698.00, 
1699.00, 
1700.00, 
1701.00, 
1702.00, 
1703.00, 
1704.00, 
1705.00, 
1706.00, 
1707.00, 
1708.00, 
1709.00, 
1710.00, 
1711.00, 
1712.00, 
1713.00, 
1714.00, 
1715.00, 
1716.00, 
1717.00, 
1718.00, 
1719.00, 
1720.00, 
1721.00, 
1722.00, 
1723.00, 
1724.00, 
1725.00, 
1726.00, 
1727.00, 
1728.00, 
1729.00, 
1730.00, 
1731.00, 
1732.00, 
1733.00, 
1734.00, 
1735.00, 
1736.00, 
1737.00, 
1738.00, 
1739.00, 
1740.00, 
1741.00, 
1742.00, 
1743.00, 
1744.00, 
1745.00, 
1746.00, 
1747.00, 
1748.00, 
1749.00, 
1750.00, 
1751.00, 
1752.00, 
1753.00, 
1754.00, 
1755.00, 
1756.00, 
1757.00, 
1758.00, 
1759.00, 
1760.00, 
1761.00, 
1762.00, 
1763.00, 
1764.00, 
1765.00, 
1766.00, 
1767.00, 
1768.00, 
1769.00, 
1770.00, 
1771.00, 
1772.00, 
1773.00, 
1774.00, 
1775.00, 
1776.00, 
1777.00, 
1778.00, 
1779.00, 
1780.00, 
1781.00, 
1782.00, 
1783.00, 
1784.00, 
1785.00, 
1786.00, 
1787.00, 
1788.00, 
1789.00, 
1790.00, 
1791.00, 
1792.00, 
1793.00, 
1794.00, 
1795.00, 
1796.00, 
1797.00, 
1798.00, 
1799.00, 
1800.00, 
1801.00, 
1802.00, 
1803.00, 
1804.00, 
1805.00, 
1806.00, 
1807.00, 
1808.00, 
1809.00, 
1810.00, 
1811.00, 
1812.00, 
1813.00, 
1814.00, 
1815.00, 
1816.00, 
1817.00, 
1818.00, 
1819.00, 
1820.00, 
1821.00, 
1822.00, 
1823.00, 
1824.00, 
1825.00, 
1826.00, 
1827.00, 
1828.00, 
1829.00, 
1830.00, 
1831.00, 
1832.00, 
1833.00, 
1834.00, 
1835.00, 
1836.00, 
1837.00, 
1838.00, 
1839.00, 
1840.00, 
1841.00, 
1842.00, 
1843.00, 
1844.00, 
1845.00, 
1846.00, 
1847.00, 
1848.00, 
1849.00, 
1850.00, 
1851.00, 
1852.00, 
1853.00, 
1854.00, 
1855.00, 
1856.00, 
1857.00, 
1858.00, 
1859.00, 
1860.00, 
1861.00, 
1862.00, 
1863.00, 
1864.00, 
1865.00, 
1866.00, 
1867.00, 
1868.00, 
1869.00, 
1870.00, 
1871.00, 
1872.00, 
1873.00, 
1874.00, 
1875.00, 
1876.00, 
1877.00, 
1878.00, 
1879.00, 
1880.00, 
1881.00, 
1882.00, 
1883.00, 
1884.00, 
1885.00, 
1886.00, 
1887.00, 
1888.00, 
1889.00, 
1890.00, 
1891.00, 
1892.00, 
1893.00, 
1894.00, 
1895.00, 
1896.00, 
1897.00, 
1898.00, 
1899.00, 
1900.00, 
1901.00, 
1902.00, 
1903.00, 
1904.00, 
1905.00, 
1906.00, 
1907.00, 
1908.00, 
1909.00, 
1910.00, 
1911.00, 
1912.00, 
1913.00, 
1914.00, 
1915.00, 
1916.00, 
1917.00, 
1918.00, 
1919.00, 
1920.00, 
1921.00, 
1922.00, 
1923.00, 
1924.00, 
1925.00, 
1926.00, 
1927.00, 
1928.00, 
1929.00, 
1930.00, 
1931.00, 
1932.00, 
1933.00, 
1934.00, 
1935.00, 
1936.00, 
1937.00, 
1938.00, 
1939.00, 
1940.00, 
1941.00, 
1942.00, 
1943.00, 
1944.00, 
1945.00, 
1946.00, 
1947.00, 
1948.00, 
1949.00, 
1950.00, 
1951.00, 
1952.00, 
1953.00, 
1954.00, 
1955.00, 
1956.00, 
1957.00, 
1958.00, 
1959.00, 
1960.00, 
1961.00, 
1962.00, 
1963.00, 
1964.00, 
1965.00, 
1966.00, 
1967.00, 
1968.00, 
1969.00, 
1970.00, 
1971.00, 
1972.00, 
1973.00, 
1974.00, 
1975.00, 
1976.00, 
1977.00, 
1978.00, 
1979.00, 
1980.00, 
1981.00, 
1982.00, 
1983.00, 
1984.00, 
1985.00, 
1986.00, 
1987.00, 
1988.00, 
1989.00, 
1990.00, 
1991.00, 
1992.00, 
1993.00, 
1994.00, 
1995.00, 
1996.00, 
1997.00, 
1998.00, 
1999.00, 
2000.00, 
2001.00, 
2002.00, 
2003.00, 
2004.00, 
2005.00, 
2006.00, 
2007.00, 
2008.00, 
2009.00, 
2010.00, 
2011.00, 
2012.00, 
2013.00, 
2014.00, 
2015.00, 
2016.00, 
2017.00, 
2018.00, 
2019.00, 
2020.00, 
2021.00, 
2022.00, 
2023.00, 
2024.00, 
2025.00, 
2026.00, 
2027.00, 
2028.00, 
2029.00, 
2030.00, 
2031.00, 
2032.00, 
2033.00, 
2034.00, 
2035.00, 
2036.00, 
2037.00, 
2038.00, 
2039.00, 
2040.00, 
2041.00, 
2042.00, 
2043.00, 
2044.00, 
2045.00, 
2046.00, 
2047.00, 
2048.00, 
2049.00, 
2050.00, 
2051.00, 
2052.00, 
2053.00, 
2054.00, 
2055.00, 
2056.00, 
2057.00, 
2058.00, 
2059.00, 
2060.00, 
2061.00, 
2062.00, 
2063.00, 
2064.00, 
2065.00, 
2066.00, 
2067.00, 
2068.00, 
2069.00, 
2070.00, 
2071.00, 
2072.00, 
2073.00, 
2074.00, 
2075.00, 
2076.00, 
2077.00, 
2078.00, 
2079.00, 
2080.00, 
2081.00, 
2082.00, 
2083.00, 
2084.00, 
2085.00, 
2086.00, 
2087.00, 
2088.00, 
2089.00, 
2090.00, 
2091.00, 
2092.00, 
2093.00, 
2094.00, 
2095.00, 
2096.00, 
2097.00, 
2098.00, 
2099.00, 
2100.00, 
2101.00, 
2102.00, 
2103.00, 
2104.00, 
2105.00, 
2106.00, 
2107.00, 
2108.00, 
2109.00, 
2110.00, 
2111.00, 
2112.00, 
2113.00, 
2114.00, 
2115.00, 
2116.00, 
2117.00, 
2118.00, 
2119.00, 
2120.00, 
2121.00, 
2122.00, 
2123.00, 
2124.00, 
2125.00, 
2126.00, 
2127.00, 
2128.00, 
2129.00, 
2130.00, 
2131.00, 
2132.00, 
2133.00, 
2134.00, 
2135.00, 
2136.00, 
2137.00, 
2138.00, 
2139.00, 
2140.00, 
2141.00, 
2142.00, 
2143.00, 
2144.00, 
2145.00, 
2146.00, 
2147.00, 
2148.00, 
2149.00, 
2150.00, 
2151.00, 
2152.00, 
2153.00, 
2154.00, 
2155.00, 
2156.00, 
2157.00, 
2158.00, 
2159.00, 
2160.00, 
2161.00, 
2162.00, 
2163.00, 
2164.00, 
2165.00, 
2166.00, 
2167.00, 
2168.00, 
2169.00, 
2170.00, 
2171.00, 
2172.00, 
2173.00, 
2174.00, 
2175.00, 
2176.00, 
2177.00, 
2178.00, 
2179.00, 
2180.00, 
2181.00, 
2182.00, 
2183.00, 
2184.00, 
2185.00, 
2186.00, 
2187.00, 
2188.00, 
2189.00, 
2190.00, 
2191.00, 
2192.00, 
2193.00, 
2194.00, 
2195.00, 
2196.00, 
2197.00, 
2198.00, 
2199.00, 
2200.00, 
2201.00, 
2202.00, 
2203.00, 
2204.00, 
2205.00, 
2206.00, 
2207.00, 
2208.00, 
2209.00, 
2210.00, 
2211.00, 
2212.00, 
2213.00, 
2214.00, 
2215.00, 
2216.00, 
2217.00, 
2218.00, 
2219.00, 
2220.00, 
2221.00, 
2222.00, 
2223.00, 
2224.00, 
2225.00, 
2226.00, 
2227.00, 
2228.00, 
2229.00, 
2230.00, 
2231.00, 
2232.00, 
2233.00, 
2234.00, 
2235.00, 
2236.00, 
2237.00, 
2238.00, 
2239.00, 
2240.00, 
2241.00, 
2242.00, 
2243.00, 
2244.00, 
2245.00, 
2246.00, 
2247.00, 
2248.00, 
2249.00, 
2250.00, 
2251.00, 
2252.00, 
2253.00, 
2254.00, 
2255.00, 
2256.00, 
2257.00, 
2258.00, 
2259.00, 
2260.00, 
2261.00, 
2262.00, 
2263.00, 
2264.00, 
2265.00, 
2266.00, 
2267.00, 
2268.00, 
2269.00, 
2270.00, 
2271.00, 
2272.00, 
2273.00, 
2274.00, 
2275.00, 
2276.00, 
2277.00, 
2278.00, 
2279.00, 
2280.00, 
2281.00, 
2282.00, 
2283.00, 
2284.00, 
2285.00, 
2286.00, 
2287.00, 
2288.00, 
2289.00, 
2290.00, 
2291.00, 
2292.00, 
2293.00, 
2294.00, 
2295.00, 
2296.00, 
2297.00, 
2298.00, 
2299.00, 
2300.00, 
2301.00, 
2302.00, 
2303.00, 
2304.00, 
2305.00, 
2306.00, 
2307.00, 
2308.00, 
2309.00, 
2310.00, 
2311.00, 
2312.00, 
2313.00, 
2314.00, 
2315.00, 
2316.00, 
2317.00, 
2318.00, 
2319.00, 
2320.00, 
2321.00, 
2322.00, 
2323.00, 
2324.00, 
2325.00, 
2326.00, 
2327.00, 
2328.00, 
2329.00, 
2330.00, 
2331.00, 
2332.00, 
2333.00, 
2334.00, 
2335.00, 
2336.00, 
2337.00, 
2338.00, 
2339.00, 
2340.00, 
2341.00, 
2342.00, 
2343.00, 
2344.00, 
2345.00, 
2346.00, 
2347.00, 
2348.00, 
2349.00, 
2350.00, 
2351.00, 
2352.00, 
2353.00, 
2354.00, 
2355.00, 
2356.00, 
2357.00, 
2358.00, 
2359.00, 
2360.00, 
2361.00, 
2362.00, 
2363.00, 
2364.00, 
2365.00, 
2366.00, 
2367.00, 
2368.00, 
2369.00, 
2370.00, 
2371.00, 
2372.00, 
2373.00, 
2374.00, 
2375.00, 
2376.00, 
2377.00, 
2378.00, 
2379.00, 
2380.00, 
2381.00, 
2382.00, 
2383.00, 
2384.00, 
2385.00, 
2386.00, 
2387.00, 
2388.00, 
2389.00, 
2390.00, 
2391.00, 
2392.00, 
2393.00, 
2394.00, 
2395.00, 
2396.00, 
2397.00, 
2398.00, 
2399.00, 
2400.00, 
2401.00, 
2402.00, 
2403.00, 
2404.00, 
2405.00, 
2406.00, 
2407.00, 
2408.00, 
2409.00, 
2410.00, 
2411.00, 
2412.00, 
2413.00, 
2414.00, 
2415.00, 
2416.00, 
2417.00, 
2418.00, 
2419.00, 
2420.00, 
2421.00, 
2422.00, 
2423.00, 
2424.00, 
2425.00, 
2426.00, 
2427.00, 
2428.00, 
2429.00, 
2430.00, 
2431.00, 
2432.00, 
2433.00, 
2434.00, 
2435.00, 
2436.00, 
2437.00, 
2438.00, 
2439.00, 
2440.00, 
2441.00, 
2442.00, 
2443.00, 
2444.00, 
2445.00, 
2446.00, 
2447.00, 
2448.00, 
2449.00, 
2450.00, 
2451.00, 
2452.00, 
2453.00, 
2454.00, 
2455.00, 
2456.00, 
2457.00, 
2458.00, 
2459.00, 
2460.00, 
2461.00, 
2462.00, 
2463.00, 
2464.00, 
2465.00, 
2466.00, 
2467.00, 
2468.00, 
2469.00, 
2470.00, 
2471.00, 
2472.00, 
2473.00, 
2474.00, 
2475.00, 
2476.00, 
2477.00, 
2478.00, 
2479.00, 
2480.00, 
2481.00, 
2482.00, 
2483.00, 
2484.00, 
2485.00, 
2486.00, 
2487.00, 
2488.00, 
2489.00, 
2490.00, 
2491.00, 
2492.00, 
2493.00, 
2494.00, 
2495.00, 
2496.00, 
2497.00, 
2498.00, 
2499.00, 
2500.00, 
2501.00, 
2502.00, 
2503.00, 
2504.00, 
2505.00, 
2506.00, 
2507.00, 
2508.00, 
2509.00, 
2510.00, 
2511.00, 
2512.00, 
2513.00, 
2514.00, 
2515.00, 
2516.00, 
2517.00, 
2518.00, 
2519.00, 
2520.00, 
2521.00, 
2522.00, 
2523.00, 
2524.00, 
2525.00, 
2526.00, 
2527.00, 
2528.00, 
2529.00, 
2530.00, 
2531.00, 
2532.00, 
2533.00, 
2534.00, 
2535.00, 
2536.00, 
2537.00, 
2538.00, 
2539.00, 
2540.00, 
2541.00, 
2542.00, 
2543.00, 
2544.00, 
2545.00, 
2546.00, 
2547.00, 
2548.00, 
2549.00, 
2550.00, 
2551.00, 
2552.00, 
2553.00, 
2554.00, 
2555.00, 
2556.00, 
2557.00, 
2558.00, 
2559.00, 
2560.00, 
2561.00, 
2562.00, 
2563.00, 
2564.00, 
2565.00, 
2566.00, 
2567.00, 
2568.00, 
2569.00, 
2570.00, 
2571.00, 
2572.00, 
2573.00, 
2574.00, 
2575.00, 
2576.00, 
2577.00, 
2578.00, 
2579.00, 
2580.00, 
2581.00, 
2582.00, 
2583.00, 
2584.00, 
2585.00, 
2586.00, 
2587.00, 
2588.00, 
2589.00, 
2590.00, 
2591.00, 
2592.00, 
2593.00, 
2594.00, 
2595.00, 
2596.00, 
2597.00, 
2598.00, 
2599.00, 
2600.00, 
