"1cP4 - RawData"
"Wavelength nm.","T%"
200.00,0.001
201.00,-0.001
202.00,-0.000
203.00,-0.002
204.00,0.001
205.00,-0.000
206.00,-0.001
207.00,-0.000
208.00,0.002
209.00,0.001
210.00,0.000
211.00,0.002
212.00,-0.002
213.00,-0.003
214.00,0.003
215.00,0.000
216.00,0.001
217.00,0.001
218.00,0.002
219.00,0.003
220.00,0.000
221.00,0.001
222.00,0.001
223.00,-0.000
224.00,-0.003
225.00,0.002
226.00,-0.000
227.00,-0.001
228.00,0.001
229.00,0.001
230.00,-0.001
231.00,-0.000
232.00,0.000
233.00,-0.002
234.00,0.000
235.00,0.001
236.00,0.001
237.00,0.001
238.00,0.001
239.00,-0.000
240.00,-0.000
241.00,-0.000
242.00,0.001
243.00,0.002
244.00,0.001
245.00,-0.000
246.00,-0.001
247.00,0.001
248.00,0.001
249.00,-0.000
250.00,0.000
251.00,0.000
252.00,0.000
253.00,0.000
254.00,0.002
255.00,-0.000
256.00,0.000
257.00,0.000
258.00,0.000
259.00,-0.001
260.00,0.001
261.00,0.001
262.00,0.001
263.00,0.001
264.00,0.001
265.00,0.001
266.00,0.002
267.00,0.002
268.00,0.000
269.00,-0.000
270.00,-0.001
271.00,-0.000
272.00,-0.000
273.00,-0.000
274.00,-0.000
275.00,0.000
276.00,0.001
277.00,0.000
278.00,-0.000
279.00,-0.000
280.00,-0.000
281.00,0.000
282.00,-0.000
283.00,0.001
284.00,-0.000
285.00,-0.001
286.00,0.001
287.00,0.002
288.00,-0.000
289.00,-0.000
290.00,-0.002
291.00,0.000
292.00,-0.000
293.00,0.000
294.00,-0.000
295.00,0.000
296.00,0.000
297.00,-0.001
298.00,-0.001
299.00,0.002
300.00,-0.000
301.00,0.002
302.00,-0.001
303.00,0.001
304.00,0.001
305.00,0.002
306.00,0.002
307.00,0.004
308.00,0.006
309.00,0.009
310.00,0.016
311.00,0.027
312.00,0.040
313.00,0.063
314.00,0.090
315.00,0.132
316.00,0.185
317.00,0.265
318.00,0.361
319.00,0.482
320.00,0.638
321.00,0.825
322.00,1.045
323.00,1.311
324.00,1.615
325.00,1.938
326.00,2.270
327.00,2.709
328.00,3.157
329.00,3.615
330.00,4.115
331.00,4.651
332.00,5.199
333.00,5.809
334.00,6.361
335.00,6.990
336.00,7.608
337.00,8.238
338.00,8.829
339.00,9.424
340.00,10.030
341.00,10.643
342.00,11.155
343.00,11.673
344.00,12.224
345.00,12.724
346.00,13.223
347.00,13.637
348.00,14.108
349.00,14.477
350.00,14.872
351.00,15.206
352.00,15.412
353.00,15.868
354.00,16.139
355.00,16.421
356.00,16.682
357.00,16.888
358.00,17.085
359.00,17.327
360.00,17.499
361.00,17.632
362.00,17.758
363.00,17.899
364.00,18.007
365.00,18.087
366.00,18.125
367.00,18.220
368.00,18.318
369.00,18.320
370.00,18.315
371.00,18.272
372.00,18.287
373.00,18.313
374.00,18.220
375.00,18.214
376.00,18.143
377.00,18.063
378.00,17.995
379.00,17.963
380.00,17.901
381.00,17.831
382.00,17.837
383.00,17.867
384.00,17.911
385.00,17.955
386.00,17.974
387.00,18.037
388.00,18.057
389.00,18.123
390.00,18.132
391.00,18.128
392.00,18.194
393.00,18.175
394.00,18.191
395.00,18.190
396.00,18.172
397.00,18.211
398.00,18.210
399.00,18.178
400.00,18.192
401.00,18.156
402.00,18.163
403.00,18.166
404.00,18.123
405.00,18.111
406.00,18.105
407.00,18.046
408.00,18.051
409.00,18.014
410.00,17.978
411.00,17.929
412.00,17.911
413.00,17.959
414.00,17.921
415.00,17.946
416.00,17.947
417.00,17.958
418.00,17.975
419.00,17.988
420.00,17.994
421.00,18.068
422.00,18.111
423.00,18.101
424.00,18.142
425.00,18.174
426.00,18.197
427.00,18.248
428.00,18.275
429.00,18.315
430.00,18.384
431.00,18.422
432.00,18.456
433.00,18.510
434.00,18.537
435.00,18.609
436.00,18.661
437.00,18.765
438.00,18.805
439.00,18.883
440.00,18.929
441.00,18.970
442.00,19.142
443.00,19.197
444.00,19.316
445.00,19.357
446.00,19.470
447.00,19.521
448.00,19.640
449.00,19.758
450.00,19.822
451.00,19.958
452.00,20.077
453.00,20.185
454.00,20.274
455.00,20.415
456.00,20.504
457.00,20.632
458.00,20.764
459.00,20.844
460.00,20.982
461.00,21.134
462.00,21.268
463.00,21.382
464.00,21.516
465.00,21.614
466.00,21.760
467.00,21.862
468.00,21.971
469.00,22.151
470.00,22.240
471.00,22.348
472.00,22.499
473.00,22.571
474.00,22.732
475.00,22.895
476.00,22.979
477.00,23.168
478.00,23.291
479.00,23.406
480.00,23.564
481.00,23.637
482.00,23.893
483.00,24.057
484.00,24.187
485.00,24.369
486.00,24.458
487.00,24.638
488.00,24.807
489.00,24.933
490.00,25.060
491.00,25.246
492.00,25.333
493.00,25.527
494.00,25.679
495.00,25.763
496.00,25.858
497.00,25.992
498.00,26.196
499.00,26.298
500.00,26.431
501.00,26.520
502.00,26.709
503.00,26.831
504.00,26.962
505.00,27.142
506.00,27.179
507.00,27.352
508.00,27.483
509.00,27.609
510.00,27.819
511.00,27.903
512.00,28.004
513.00,28.133
514.00,28.308
515.00,28.371
516.00,28.529
517.00,28.618
518.00,28.735
519.00,28.849
520.00,28.977
521.00,29.047
522.00,29.158
523.00,29.287
524.00,29.373
525.00,29.531
526.00,29.584
527.00,29.691
528.00,29.711
529.00,29.892
530.00,29.969
531.00,30.085
532.00,30.209
533.00,30.270
534.00,30.388
535.00,30.480
536.00,30.585
537.00,30.619
538.00,30.717
539.00,30.869
540.00,30.889
541.00,30.995
542.00,30.984
543.00,31.140
544.00,31.212
545.00,31.310
546.00,31.377
547.00,31.454
548.00,31.510
549.00,31.581
550.00,31.682
551.00,31.770
552.00,31.812
553.00,31.878
554.00,31.957
555.00,32.035
556.00,32.059
557.00,32.118
558.00,32.221
559.00,32.280
560.00,32.365
561.00,32.422
562.00,32.499
563.00,32.495
564.00,32.573
565.00,32.649
566.00,32.628
567.00,32.676
568.00,32.737
569.00,32.827
570.00,32.815
571.00,32.866
572.00,32.912
573.00,32.924
574.00,32.964
575.00,33.039
576.00,33.069
577.00,33.089
578.00,33.193
579.00,33.287
580.00,33.258
581.00,33.424
582.00,33.400
583.00,33.456
584.00,33.604
585.00,33.650
586.00,33.665
587.00,33.718
588.00,33.778
589.00,33.851
590.00,33.923
591.00,33.982
592.00,34.022
593.00,34.074
594.00,34.053
595.00,34.082
596.00,34.143
597.00,34.220
598.00,34.271
599.00,34.299
600.00,34.422
601.00,34.296
602.00,34.508
603.00,34.545
604.00,34.606
605.00,34.662
606.00,34.675
607.00,34.775
608.00,34.842
609.00,34.840
610.00,34.969
611.00,34.932
612.00,35.000
613.00,35.072
614.00,35.126
615.00,35.146
616.00,35.240
617.00,35.271
618.00,35.330
619.00,35.385
620.00,35.488
621.00,35.572
622.00,35.618
623.00,35.669
624.00,35.782
625.00,35.810
626.00,35.892
627.00,35.931
628.00,36.002
629.00,36.050
630.00,36.136
631.00,36.190
632.00,36.319
633.00,36.385
634.00,36.408
635.00,36.561
636.00,36.638
637.00,36.753
638.00,36.809
639.00,36.869
640.00,36.939
641.00,37.028
642.00,37.134
643.00,37.167
644.00,37.251
645.00,37.359
646.00,37.500
647.00,37.569
648.00,37.732
649.00,37.727
650.00,37.861
651.00,37.899
652.00,37.982
653.00,38.209
654.00,38.237
655.00,38.323
656.00,38.365
657.00,38.630
658.00,38.714
659.00,38.760
660.00,38.913
661.00,38.907
662.00,39.171
663.00,39.119
664.00,39.276
665.00,39.519
666.00,39.441
667.00,39.659
668.00,39.554
669.00,39.848
670.00,40.022
671.00,39.947
672.00,40.110
673.00,40.233
674.00,40.414
675.00,40.497
676.00,40.585
677.00,40.771
678.00,40.804
679.00,40.997
680.00,41.058
681.00,41.177
682.00,41.375
683.00,41.375
684.00,41.547
685.00,41.794
686.00,41.724
687.00,41.828
688.00,42.036
689.00,41.961
690.00,42.160
691.00,42.398
692.00,42.446
693.00,42.424
694.00,42.680
695.00,42.707
696.00,42.648
697.00,42.943
698.00,42.809
699.00,43.137
700.00,43.649
701.00,43.437
702.00,43.476
703.00,43.588
704.00,43.844
705.00,43.808
706.00,43.847
707.00,44.129
708.00,44.054
709.00,44.136
710.00,44.452
711.00,44.264
712.00,44.478
713.00,44.537
714.00,44.495
715.00,44.740
716.00,44.759
717.00,44.780
718.00,44.977
719.00,45.029
720.00,44.952
721.00,49.396
722.00,49.493
723.00,49.472
724.00,49.481
725.00,49.589
726.00,49.606
727.00,49.641
728.00,49.678
729.00,49.742
730.00,49.849
731.00,49.820
732.00,49.836
733.00,49.958
734.00,50.014
735.00,50.085
736.00,50.074
737.00,50.111
738.00,50.220
739.00,50.237
740.00,50.285
741.00,50.370
742.00,50.458
743.00,50.428
744.00,50.416
745.00,50.524
746.00,50.497
747.00,50.504
748.00,50.617
749.00,50.550
750.00,50.575
751.00,50.662
752.00,50.660
753.00,50.593
754.00,50.702
755.00,50.688
756.00,50.764
757.00,50.868
758.00,50.805
759.00,50.844
760.00,50.816
761.00,50.859
762.00,50.851
763.00,50.949
764.00,50.907
765.00,50.985
766.00,51.060
767.00,51.033
768.00,51.137
769.00,51.084
770.00,51.174
771.00,51.157
772.00,51.157
773.00,51.165
774.00,51.221
775.00,51.241
776.00,51.266
777.00,51.281
778.00,51.288
779.00,51.372
780.00,51.337
781.00,51.300
782.00,51.321
783.00,51.361
784.00,51.331
785.00,51.271
786.00,51.382
787.00,51.301
788.00,51.310
789.00,51.354
790.00,51.361
791.00,51.463
792.00,51.301
793.00,51.385
794.00,51.392
795.00,51.369
796.00,51.304
797.00,51.328
798.00,51.252
799.00,51.306
800.00,51.325
801.00,51.302
802.00,51.272
803.00,51.318
804.00,51.278
805.00,51.269
806.00,51.300
807.00,51.323
808.00,51.190
809.00,51.176
810.00,51.241
811.00,51.170
812.00,51.172
813.00,51.222
814.00,51.241
815.00,51.233
816.00,51.247
817.00,51.224
818.00,51.193
819.00,51.120
820.00,51.205
821.00,51.167
822.00,51.086
823.00,51.137
824.00,51.141
825.00,51.163
826.00,51.188
827.00,50.998
828.00,51.096
829.00,50.991
830.00,51.124
831.00,53.096
832.00,53.011
833.00,53.023
834.00,53.024
835.00,53.014
836.00,53.016
837.00,52.954
838.00,52.979
839.00,52.957
840.00,52.919
841.00,52.926
842.00,52.882
843.00,52.891
844.00,52.852
845.00,52.859
846.00,52.807
847.00,52.797
848.00,52.740
849.00,52.765
850.00,52.726
851.00,52.716
852.00,52.675
853.00,52.652
854.00,52.641
855.00,52.567
856.00,52.557
857.00,52.555
858.00,52.551
859.00,52.509
860.00,52.515
861.00,52.485
862.00,52.433
863.00,52.471
864.00,52.446
865.00,52.437
866.00,52.427
867.00,52.387
868.00,52.369
869.00,52.400
870.00,52.353
871.00,52.369
872.00,52.358
873.00,52.352
874.00,52.313
875.00,52.316
876.00,52.318
877.00,52.347
878.00,52.273
879.00,52.290
880.00,52.297
881.00,52.274
882.00,52.233
883.00,52.207
884.00,52.184
885.00,52.151
886.00,52.163
887.00,52.114
888.00,52.107
889.00,52.067
890.00,52.080
891.00,52.071
892.00,52.071
893.00,52.045
894.00,52.036
895.00,52.018
896.00,52.016
897.00,51.996
898.00,51.965
899.00,51.968
900.00,51.953
901.00,51.966
902.00,51.951
903.00,51.901
904.00,51.913
905.00,51.865
906.00,51.860
907.00,51.828
908.00,51.813
909.00,51.817
910.00,51.788
911.00,51.752
912.00,51.688
913.00,51.845
914.00,51.748
915.00,51.717
916.00,51.689
917.00,51.645
918.00,51.644
919.00,51.596
920.00,51.626
921.00,51.601
922.00,51.538
923.00,51.483
924.00,51.592
925.00,51.553
926.00,51.544
927.00,51.488
928.00,51.510
929.00,51.440
930.00,51.416
931.00,51.406
932.00,51.418
933.00,51.383
934.00,51.344
935.00,51.343
936.00,51.350
937.00,51.318
938.00,51.287
939.00,51.274
940.00,51.279
941.00,51.242
942.00,51.219
943.00,51.237
944.00,51.161
945.00,51.185
946.00,51.170
947.00,51.195
948.00,51.100
949.00,51.170
950.00,51.076
951.00,51.080
952.00,51.033
953.00,51.039
954.00,51.002
955.00,50.966
956.00,50.935
957.00,50.914
958.00,50.915
959.00,50.901
960.00,50.876
961.00,50.847
962.00,50.848
963.00,50.820
964.00,50.813
965.00,50.776
966.00,50.786
967.00,50.765
968.00,50.787
969.00,50.731
970.00,50.809
971.00,50.762
972.00,50.733
973.00,50.777
974.00,50.739
975.00,50.757
976.00,50.730
977.00,50.750
978.00,50.761
979.00,50.746
980.00,50.780
981.00,50.772
982.00,50.785
983.00,50.723
984.00,50.750
985.00,50.735
986.00,50.733
987.00,50.752
988.00,50.735
989.00,50.746
990.00,50.716
991.00,50.722
992.00,50.729
993.00,50.707
994.00,50.661
995.00,50.644
996.00,50.672
997.00,50.635
998.00,50.636
999.00,50.618
1000.00,50.593
1001.00,50.602
1002.00,50.573
1003.00,50.611
1004.00,50.552
1005.00,50.542
1006.00,50.549
1007.00,50.541
1008.00,50.533
1009.00,50.513
1010.00,50.499
1011.00,50.477
1012.00,50.476
1013.00,50.454
1014.00,50.474
1015.00,50.440
1016.00,50.372
1017.00,50.397
1018.00,50.380
1019.00,50.385
1020.00,50.352
1021.00,50.343
1022.00,50.313
1023.00,50.309
1024.00,50.298
1025.00,50.292
1026.00,50.286
1027.00,50.224
1028.00,50.264
1029.00,50.231
1030.00,50.220
1031.00,50.225
1032.00,50.205
1033.00,50.175
1034.00,50.156
1035.00,50.135
1036.00,50.093
1037.00,50.085
1038.00,50.056
1039.00,50.061
1040.00,50.028
1041.00,50.004
1042.00,50.011
1043.00,49.969
1044.00,50.020
1045.00,50.001
1046.00,49.992
1047.00,49.991
1048.00,50.002
1049.00,49.984
1050.00,50.031
1051.00,50.030
1052.00,50.070
1053.00,50.070
1054.00,50.059
1055.00,50.065
1056.00,50.067
1057.00,50.097
1058.00,50.098
1059.00,50.073
1060.00,50.060
1061.00,50.085
1062.00,50.063
1063.00,50.061
1064.00,50.044
1065.00,50.060
1066.00,50.027
1067.00,50.036
1068.00,50.045
1069.00,50.049
1070.00,50.014
1071.00,50.000
1072.00,50.019
1073.00,49.991
1074.00,49.980
1075.00,49.964
1076.00,49.964
1077.00,49.948
1078.00,49.931
1079.00,49.925
1080.00,49.946
1081.00,49.919
1082.00,49.915
1083.00,49.904
1084.00,49.915
1085.00,49.895
1086.00,49.907
1087.00,49.882
1088.00,49.888
1089.00,49.871
1090.00,49.849
1091.00,49.854
1092.00,49.875
1093.00,49.852
1094.00,49.819
1095.00,49.789
1096.00,49.794
1097.00,49.780
1098.00,49.779
1099.00,49.757
1100.00,49.775
1101.00,49.762
1102.00,49.774
1103.00,49.737
1104.00,49.737
1105.00,49.730
1106.00,49.705
1107.00,49.675
1108.00,49.686
1109.00,49.675
1110.00,49.678
1111.00,49.661
1112.00,49.670
1113.00,49.658
1114.00,49.641
1115.00,49.630
1116.00,49.654
1117.00,49.615
1118.00,49.610
1119.00,49.610
1120.00,49.607
1121.00,49.601
1122.00,49.617
1123.00,49.583
1124.00,49.605
1125.00,49.596
1126.00,49.581
1127.00,49.590
1128.00,49.601
1129.00,49.570
1130.00,49.564
1131.00,49.538
1132.00,49.538
1133.00,49.545
1134.00,49.517
1135.00,49.520
1136.00,49.513
1137.00,49.494
1138.00,49.552
1139.00,49.548
1140.00,49.527
1141.00,49.512
1142.00,49.522
1143.00,49.515
1144.00,49.521
1145.00,49.513
1146.00,49.532
1147.00,49.522
1148.00,49.498
1149.00,49.527
1150.00,49.488
1151.00,49.461
1152.00,49.500
1153.00,49.472
1154.00,49.490
1155.00,49.494
1156.00,49.473
1157.00,49.484
1158.00,49.466
1159.00,49.463
1160.00,49.472
1161.00,49.467
1162.00,49.446
1163.00,49.455
1164.00,49.439
1165.00,49.454
1166.00,49.451
1167.00,49.440
1168.00,49.451
1169.00,49.441
1170.00,49.418
1171.00,49.423
1172.00,49.415
1173.00,49.408
1174.00,49.406
1175.00,49.403
1176.00,49.416
1177.00,49.395
1178.00,49.399
1179.00,49.410
1180.00,49.415
1181.00,49.407
1182.00,49.434
1183.00,49.422
1184.00,49.406
1185.00,49.432
1186.00,49.423
1187.00,49.411
1188.00,49.388
1189.00,49.398
1190.00,49.388
1191.00,49.402
1192.00,49.388
1193.00,49.414
1194.00,49.418
1195.00,49.381
1196.00,49.404
1197.00,49.406
1198.00,49.387
1199.00,49.387
1200.00,49.382
1201.00,49.406
1202.00,49.396
1203.00,49.383
1204.00,49.413
1205.00,49.403
1206.00,49.403
1207.00,49.414
1208.00,49.392
1209.00,49.432
1210.00,49.410
1211.00,49.424
1212.00,49.428
1213.00,49.414
1214.00,49.433
1215.00,49.423
1216.00,49.437
1217.00,49.412
1218.00,49.414
1219.00,49.412
1220.00,49.418
1221.00,49.429
1222.00,49.412
1223.00,49.449
1224.00,49.431
1225.00,49.430
1226.00,49.445
1227.00,49.452
1228.00,49.415
1229.00,49.434
1230.00,49.451
1231.00,49.445
1232.00,49.477
1233.00,49.466
1234.00,49.504
1235.00,49.490
1236.00,49.487
1237.00,49.491
1238.00,49.495
1239.00,49.470
1240.00,49.483
1241.00,49.461
1242.00,49.476
1243.00,49.469
1244.00,49.465
1245.00,49.506
1246.00,49.522
1247.00,49.513
1248.00,49.518
1249.00,49.528
1250.00,49.518
1251.00,49.538
1252.00,49.522
1253.00,49.521
1254.00,49.547
1255.00,49.554
1256.00,49.547
1257.00,49.534
1258.00,49.536
1259.00,49.563
1260.00,49.585
1261.00,49.564
1262.00,49.567
1263.00,49.553
1264.00,49.566
1265.00,49.579
1266.00,49.587
1267.00,49.613
1268.00,49.639
1269.00,49.615
1270.00,49.660
1271.00,49.641
1272.00,49.628
1273.00,49.628
1274.00,49.638
1275.00,49.640
1276.00,49.649
1277.00,49.628
1278.00,49.687
1279.00,49.672
1280.00,49.655
1281.00,49.690
1282.00,49.690
1283.00,49.684
1284.00,49.704
1285.00,49.692
1286.00,49.681
1287.00,49.704
1288.00,49.698
1289.00,49.698
1290.00,49.724
1291.00,49.733
1292.00,49.748
1293.00,49.720
1294.00,49.735
1295.00,49.782
1296.00,49.755
1297.00,49.774
1298.00,49.768
1299.00,49.765
1300.00,49.780
1301.00,49.781
1302.00,49.807
1303.00,49.828
1304.00,49.804
1305.00,49.819
1306.00,49.826
1307.00,49.837
1308.00,49.837
1309.00,49.847
1310.00,49.855
1311.00,49.871
1312.00,49.886
1313.00,49.862
1314.00,49.921
1315.00,49.892
1316.00,49.890
1317.00,49.922
1318.00,49.932
1319.00,49.929
1320.00,49.940
1321.00,50.078
1322.00,50.114
1323.00,50.087
1324.00,50.087
1325.00,50.094
1326.00,50.115
1327.00,50.092
1328.00,50.107
1329.00,50.075
1330.00,50.100
1331.00,50.103
1332.00,50.101
1333.00,50.113
1334.00,50.119
1335.00,50.121
1336.00,50.157
1337.00,50.196
1338.00,50.231
1339.00,50.277
1340.00,50.315
1341.00,50.383
1342.00,50.458
1343.00,50.503
1344.00,50.565
1345.00,50.615
1346.00,50.668
1347.00,50.749
1348.00,50.714
1349.00,50.757
1350.00,50.786
1351.00,50.780
1352.00,50.789
1353.00,50.868
1354.00,50.834
1355.00,50.827
1356.00,50.776
1357.00,50.842
1358.00,50.894
1359.00,50.856
1360.00,50.828
1361.00,50.893
1362.00,50.922
1363.00,50.904
1364.00,50.939
1365.00,50.705
1366.00,50.964
1367.00,50.914
1368.00,50.797
1369.00,50.908
1370.00,50.876
1371.00,50.911
1372.00,50.896
1373.00,50.852
1374.00,50.888
1375.00,50.884
1376.00,50.859
1377.00,50.894
1378.00,50.906
1379.00,50.896
1380.00,50.914
1381.00,50.999
1382.00,50.588
1383.00,51.016
1384.00,50.830
1385.00,50.770
1386.00,50.907
1387.00,50.844
1388.00,50.784
1389.00,50.815
1390.00,50.917
1391.00,50.954
1392.00,50.866
1393.00,50.856
1394.00,50.911
1395.00,50.853
1396.00,50.854
1397.00,50.891
1398.00,50.896
1399.00,50.930
1400.00,50.770
1401.00,50.824
1402.00,50.947
1403.00,50.950
1404.00,50.856
1405.00,50.911
1406.00,50.906
1407.00,50.947
1408.00,50.963
1409.00,50.930
1410.00,50.931
1411.00,50.951
1412.00,50.997
1413.00,50.967
1414.00,50.931
1415.00,50.958
1416.00,50.989
1417.00,50.990
1418.00,51.010
1419.00,50.959
1420.00,51.011
1421.00,51.030
1422.00,51.085
1423.00,51.071
1424.00,51.118
1425.00,51.107
1426.00,51.137
1427.00,51.168
1428.00,51.157
1429.00,51.184
1430.00,51.217
1431.00,51.203
1432.00,51.233
1433.00,51.255
1434.00,51.246
1435.00,51.312
1436.00,51.304
1437.00,51.281
1438.00,51.351
1439.00,51.360
1440.00,51.378
1441.00,51.423
1442.00,51.410
1443.00,51.440
1444.00,51.434
1445.00,51.457
1446.00,51.471
1447.00,51.511
1448.00,51.509
1449.00,51.563
1450.00,51.525
1451.00,51.569
1452.00,51.585
1453.00,51.591
1454.00,51.607
1455.00,51.657
1456.00,51.660
1457.00,51.715
1458.00,51.689
1459.00,51.692
1460.00,51.712
1461.00,51.715
1462.00,51.765
1463.00,51.767
1464.00,51.758
1465.00,51.813
1466.00,51.789
1467.00,51.825
1468.00,51.890
1469.00,51.872
1470.00,51.874
1471.00,51.904
1472.00,51.907
1473.00,51.926
1474.00,51.975
1475.00,51.958
1476.00,51.975
1477.00,52.000
1478.00,51.974
1479.00,52.060
1480.00,52.027
1481.00,52.046
1482.00,52.080
1483.00,52.061
1484.00,52.126
1485.00,52.164
1486.00,52.102
1487.00,52.155
1488.00,52.167
1489.00,52.159
1490.00,52.171
1491.00,52.163
1492.00,52.161
1493.00,52.203
1494.00,52.207
1495.00,52.241
1496.00,52.228
1497.00,52.254
1498.00,52.271
1499.00,52.301
1500.00,52.298
1501.00, 
1502.00, 
1503.00, 
1504.00, 
1505.00, 
1506.00, 
1507.00, 
1508.00, 
1509.00, 
1510.00, 
1511.00, 
1512.00, 
1513.00, 
1514.00, 
1515.00, 
1516.00, 
1517.00, 
1518.00, 
1519.00, 
1520.00, 
1521.00, 
1522.00, 
1523.00, 
1524.00, 
1525.00, 
1526.00, 
1527.00, 
1528.00, 
1529.00, 
1530.00, 
1531.00, 
1532.00, 
1533.00, 
1534.00, 
1535.00, 
1536.00, 
1537.00, 
1538.00, 
1539.00, 
1540.00, 
1541.00, 
1542.00, 
1543.00, 
1544.00, 
1545.00, 
1546.00, 
1547.00, 
1548.00, 
1549.00, 
1550.00, 
1551.00, 
1552.00, 
1553.00, 
1554.00, 
1555.00, 
1556.00, 
1557.00, 
1558.00, 
1559.00, 
1560.00, 
1561.00, 
1562.00, 
1563.00, 
1564.00, 
1565.00, 
1566.00, 
1567.00, 
1568.00, 
1569.00, 
1570.00, 
1571.00, 
1572.00, 
1573.00, 
1574.00, 
1575.00, 
1576.00, 
1577.00, 
1578.00, 
1579.00, 
1580.00, 
1581.00, 
1582.00, 
1583.00, 
1584.00, 
1585.00, 
1586.00, 
1587.00, 
1588.00, 
1589.00, 
1590.00, 
1591.00, 
1592.00, 
1593.00, 
1594.00, 
1595.00, 
1596.00, 
1597.00, 
1598.00, 
1599.00, 
1600.00, 
1601.00, 
1602.00, 
1603.00, 
1604.00, 
1605.00, 
1606.00, 
1607.00, 
1608.00, 
1609.00, 
1610.00, 
1611.00, 
1612.00, 
1613.00, 
1614.00, 
1615.00, 
1616.00, 
1617.00, 
1618.00, 
1619.00, 
1620.00, 
1621.00, 
1622.00, 
1623.00, 
1624.00, 
1625.00, 
1626.00, 
1627.00, 
1628.00, 
1629.00, 
1630.00, 
1631.00, 
1632.00, 
1633.00, 
1634.00, 
1635.00, 
1636.00, 
1637.00, 
1638.00, 
1639.00, 
1640.00, 
1641.00, 
1642.00, 
1643.00, 
1644.00, 
1645.00, 
1646.00, 
1647.00, 
1648.00, 
1649.00, 
1650.00, 
1651.00, 
1652.00, 
1653.00, 
1654.00, 
1655.00, 
1656.00, 
1657.00, 
1658.00, 
1659.00, 
1660.00, 
1661.00, 
1662.00, 
1663.00, 
1664.00, 
1665.00, 
1666.00, 
1667.00, 
1668.00, 
1669.00, 
1670.00, 
1671.00, 
1672.00, 
1673.00, 
1674.00, 
1675.00, 
1676.00, 
1677.00, 
1678.00, 
1679.00, 
1680.00, 
1681.00, 
1682.00, 
1683.00, 
1684.00, 
1685.00, 
1686.00, 
1687.00, 
1688.00, 
1689.00, 
1690.00, 
1691.00, 
1692.00, 
1693.00, 
1694.00, 
1695.00, 
1696.00, 
1697.00, 
1698.00, 
1699.00, 
1700.00, 
1701.00, 
1702.00, 
1703.00, 
1704.00, 
1705.00, 
1706.00, 
1707.00, 
1708.00, 
1709.00, 
1710.00, 
1711.00, 
1712.00, 
1713.00, 
1714.00, 
1715.00, 
1716.00, 
1717.00, 
1718.00, 
1719.00, 
1720.00, 
1721.00, 
1722.00, 
1723.00, 
1724.00, 
1725.00, 
1726.00, 
1727.00, 
1728.00, 
1729.00, 
1730.00, 
1731.00, 
1732.00, 
1733.00, 
1734.00, 
1735.00, 
1736.00, 
1737.00, 
1738.00, 
1739.00, 
1740.00, 
1741.00, 
1742.00, 
1743.00, 
1744.00, 
1745.00, 
1746.00, 
1747.00, 
1748.00, 
1749.00, 
1750.00, 
1751.00, 
1752.00, 
1753.00, 
1754.00, 
1755.00, 
1756.00, 
1757.00, 
1758.00, 
1759.00, 
1760.00, 
1761.00, 
1762.00, 
1763.00, 
1764.00, 
1765.00, 
1766.00, 
1767.00, 
1768.00, 
1769.00, 
1770.00, 
1771.00, 
1772.00, 
1773.00, 
1774.00, 
1775.00, 
1776.00, 
1777.00, 
1778.00, 
1779.00, 
1780.00, 
1781.00, 
1782.00, 
1783.00, 
1784.00, 
1785.00, 
1786.00, 
1787.00, 
1788.00, 
1789.00, 
1790.00, 
1791.00, 
1792.00, 
1793.00, 
1794.00, 
1795.00, 
1796.00, 
1797.00, 
1798.00, 
1799.00, 
1800.00, 
1801.00, 
1802.00, 
1803.00, 
1804.00, 
1805.00, 
1806.00, 
1807.00, 
1808.00, 
1809.00, 
1810.00, 
1811.00, 
1812.00, 
1813.00, 
1814.00, 
1815.00, 
1816.00, 
1817.00, 
1818.00, 
1819.00, 
1820.00, 
1821.00, 
1822.00, 
1823.00, 
1824.00, 
1825.00, 
1826.00, 
1827.00, 
1828.00, 
1829.00, 
1830.00, 
1831.00, 
1832.00, 
1833.00, 
1834.00, 
1835.00, 
1836.00, 
1837.00, 
1838.00, 
1839.00, 
1840.00, 
1841.00, 
1842.00, 
1843.00, 
1844.00, 
1845.00, 
1846.00, 
1847.00, 
1848.00, 
1849.00, 
1850.00, 
1851.00, 
1852.00, 
1853.00, 
1854.00, 
1855.00, 
1856.00, 
1857.00, 
1858.00, 
1859.00, 
1860.00, 
1861.00, 
1862.00, 
1863.00, 
1864.00, 
1865.00, 
1866.00, 
1867.00, 
1868.00, 
1869.00, 
1870.00, 
1871.00, 
1872.00, 
1873.00, 
1874.00, 
1875.00, 
1876.00, 
1877.00, 
1878.00, 
1879.00, 
1880.00, 
1881.00, 
1882.00, 
1883.00, 
1884.00, 
1885.00, 
1886.00, 
1887.00, 
1888.00, 
1889.00, 
1890.00, 
1891.00, 
1892.00, 
1893.00, 
1894.00, 
1895.00, 
1896.00, 
1897.00, 
1898.00, 
1899.00, 
1900.00, 
1901.00, 
1902.00, 
1903.00, 
1904.00, 
1905.00, 
1906.00, 
1907.00, 
1908.00, 
1909.00, 
1910.00, 
1911.00, 
1912.00, 
1913.00, 
1914.00, 
1915.00, 
1916.00, 
1917.00, 
1918.00, 
1919.00, 
1920.00, 
1921.00, 
1922.00, 
1923.00, 
1924.00, 
1925.00, 
1926.00, 
1927.00, 
1928.00, 
1929.00, 
1930.00, 
1931.00, 
1932.00, 
1933.00, 
1934.00, 
1935.00, 
1936.00, 
1937.00, 
1938.00, 
1939.00, 
1940.00, 
1941.00, 
1942.00, 
1943.00, 
1944.00, 
1945.00, 
1946.00, 
1947.00, 
1948.00, 
1949.00, 
1950.00, 
1951.00, 
1952.00, 
1953.00, 
1954.00, 
1955.00, 
1956.00, 
1957.00, 
1958.00, 
1959.00, 
1960.00, 
1961.00, 
1962.00, 
1963.00, 
1964.00, 
1965.00, 
1966.00, 
1967.00, 
1968.00, 
1969.00, 
1970.00, 
1971.00, 
1972.00, 
1973.00, 
1974.00, 
1975.00, 
1976.00, 
1977.00, 
1978.00, 
1979.00, 
1980.00, 
1981.00, 
1982.00, 
1983.00, 
1984.00, 
1985.00, 
1986.00, 
1987.00, 
1988.00, 
1989.00, 
1990.00, 
1991.00, 
1992.00, 
1993.00, 
1994.00, 
1995.00, 
1996.00, 
1997.00, 
1998.00, 
1999.00, 
2000.00, 
2001.00, 
2002.00, 
2003.00, 
2004.00, 
2005.00, 
2006.00, 
2007.00, 
2008.00, 
2009.00, 
2010.00, 
2011.00, 
2012.00, 
2013.00, 
2014.00, 
2015.00, 
2016.00, 
2017.00, 
2018.00, 
2019.00, 
2020.00, 
2021.00, 
2022.00, 
2023.00, 
2024.00, 
2025.00, 
2026.00, 
2027.00, 
2028.00, 
2029.00, 
2030.00, 
2031.00, 
2032.00, 
2033.00, 
2034.00, 
2035.00, 
2036.00, 
2037.00, 
2038.00, 
2039.00, 
2040.00, 
2041.00, 
2042.00, 
2043.00, 
2044.00, 
2045.00, 
2046.00, 
2047.00, 
2048.00, 
2049.00, 
2050.00, 
2051.00, 
2052.00, 
2053.00, 
2054.00, 
2055.00, 
2056.00, 
2057.00, 
2058.00, 
2059.00, 
2060.00, 
2061.00, 
2062.00, 
2063.00, 
2064.00, 
2065.00, 
2066.00, 
2067.00, 
2068.00, 
2069.00, 
2070.00, 
2071.00, 
2072.00, 
2073.00, 
2074.00, 
2075.00, 
2076.00, 
2077.00, 
2078.00, 
2079.00, 
2080.00, 
2081.00, 
2082.00, 
2083.00, 
2084.00, 
2085.00, 
2086.00, 
2087.00, 
2088.00, 
2089.00, 
2090.00, 
2091.00, 
2092.00, 
2093.00, 
2094.00, 
2095.00, 
2096.00, 
2097.00, 
2098.00, 
2099.00, 
2100.00, 
2101.00, 
2102.00, 
2103.00, 
2104.00, 
2105.00, 
2106.00, 
2107.00, 
2108.00, 
2109.00, 
2110.00, 
2111.00, 
2112.00, 
2113.00, 
2114.00, 
2115.00, 
2116.00, 
2117.00, 
2118.00, 
2119.00, 
2120.00, 
2121.00, 
2122.00, 
2123.00, 
2124.00, 
2125.00, 
2126.00, 
2127.00, 
2128.00, 
2129.00, 
2130.00, 
2131.00, 
2132.00, 
2133.00, 
2134.00, 
2135.00, 
2136.00, 
2137.00, 
2138.00, 
2139.00, 
2140.00, 
2141.00, 
2142.00, 
2143.00, 
2144.00, 
2145.00, 
2146.00, 
2147.00, 
2148.00, 
2149.00, 
2150.00, 
2151.00, 
2152.00, 
2153.00, 
2154.00, 
2155.00, 
2156.00, 
2157.00, 
2158.00, 
2159.00, 
2160.00, 
2161.00, 
2162.00, 
2163.00, 
2164.00, 
2165.00, 
2166.00, 
2167.00, 
2168.00, 
2169.00, 
2170.00, 
2171.00, 
2172.00, 
2173.00, 
2174.00, 
2175.00, 
2176.00, 
2177.00, 
2178.00, 
2179.00, 
2180.00, 
2181.00, 
2182.00, 
2183.00, 
2184.00, 
2185.00, 
2186.00, 
2187.00, 
2188.00, 
2189.00, 
2190.00, 
2191.00, 
2192.00, 
2193.00, 
2194.00, 
2195.00, 
2196.00, 
2197.00, 
2198.00, 
2199.00, 
2200.00, 
2201.00, 
2202.00, 
2203.00, 
2204.00, 
2205.00, 
2206.00, 
2207.00, 
2208.00, 
2209.00, 
2210.00, 
2211.00, 
2212.00, 
2213.00, 
2214.00, 
2215.00, 
2216.00, 
2217.00, 
2218.00, 
2219.00, 
2220.00, 
2221.00, 
2222.00, 
2223.00, 
2224.00, 
2225.00, 
2226.00, 
2227.00, 
2228.00, 
2229.00, 
2230.00, 
2231.00, 
2232.00, 
2233.00, 
2234.00, 
2235.00, 
2236.00, 
2237.00, 
2238.00, 
2239.00, 
2240.00, 
2241.00, 
2242.00, 
2243.00, 
2244.00, 
2245.00, 
2246.00, 
2247.00, 
2248.00, 
2249.00, 
2250.00, 
2251.00, 
2252.00, 
2253.00, 
2254.00, 
2255.00, 
2256.00, 
2257.00, 
2258.00, 
2259.00, 
2260.00, 
2261.00, 
2262.00, 
2263.00, 
2264.00, 
2265.00, 
2266.00, 
2267.00, 
2268.00, 
2269.00, 
2270.00, 
2271.00, 
2272.00, 
2273.00, 
2274.00, 
2275.00, 
2276.00, 
2277.00, 
2278.00, 
2279.00, 
2280.00, 
2281.00, 
2282.00, 
2283.00, 
2284.00, 
2285.00, 
2286.00, 
2287.00, 
2288.00, 
2289.00, 
2290.00, 
2291.00, 
2292.00, 
2293.00, 
2294.00, 
2295.00, 
2296.00, 
2297.00, 
2298.00, 
2299.00, 
2300.00, 
2301.00, 
2302.00, 
2303.00, 
2304.00, 
2305.00, 
2306.00, 
2307.00, 
2308.00, 
2309.00, 
2310.00, 
2311.00, 
2312.00, 
2313.00, 
2314.00, 
2315.00, 
2316.00, 
2317.00, 
2318.00, 
2319.00, 
2320.00, 
2321.00, 
2322.00, 
2323.00, 
2324.00, 
2325.00, 
2326.00, 
2327.00, 
2328.00, 
2329.00, 
2330.00, 
2331.00, 
2332.00, 
2333.00, 
2334.00, 
2335.00, 
2336.00, 
2337.00, 
2338.00, 
2339.00, 
2340.00, 
2341.00, 
2342.00, 
2343.00, 
2344.00, 
2345.00, 
2346.00, 
2347.00, 
2348.00, 
2349.00, 
2350.00, 
2351.00, 
2352.00, 
2353.00, 
2354.00, 
2355.00, 
2356.00, 
2357.00, 
2358.00, 
2359.00, 
2360.00, 
2361.00, 
2362.00, 
2363.00, 
2364.00, 
2365.00, 
2366.00, 
2367.00, 
2368.00, 
2369.00, 
2370.00, 
2371.00, 
2372.00, 
2373.00, 
2374.00, 
2375.00, 
2376.00, 
2377.00, 
2378.00, 
2379.00, 
2380.00, 
2381.00, 
2382.00, 
2383.00, 
2384.00, 
2385.00, 
2386.00, 
2387.00, 
2388.00, 
2389.00, 
2390.00, 
2391.00, 
2392.00, 
2393.00, 
2394.00, 
2395.00, 
2396.00, 
2397.00, 
2398.00, 
2399.00, 
2400.00, 
2401.00, 
2402.00, 
2403.00, 
2404.00, 
2405.00, 
2406.00, 
2407.00, 
2408.00, 
2409.00, 
2410.00, 
2411.00, 
2412.00, 
2413.00, 
2414.00, 
2415.00, 
2416.00, 
2417.00, 
2418.00, 
2419.00, 
2420.00, 
2421.00, 
2422.00, 
2423.00, 
2424.00, 
2425.00, 
2426.00, 
2427.00, 
2428.00, 
2429.00, 
2430.00, 
2431.00, 
2432.00, 
2433.00, 
2434.00, 
2435.00, 
2436.00, 
2437.00, 
2438.00, 
2439.00, 
2440.00, 
2441.00, 
2442.00, 
2443.00, 
2444.00, 
2445.00, 
2446.00, 
2447.00, 
2448.00, 
2449.00, 
2450.00, 
2451.00, 
2452.00, 
2453.00, 
2454.00, 
2455.00, 
2456.00, 
2457.00, 
2458.00, 
2459.00, 
2460.00, 
2461.00, 
2462.00, 
2463.00, 
2464.00, 
2465.00, 
2466.00, 
2467.00, 
2468.00, 
2469.00, 
2470.00, 
2471.00, 
2472.00, 
2473.00, 
2474.00, 
2475.00, 
2476.00, 
2477.00, 
2478.00, 
2479.00, 
2480.00, 
2481.00, 
2482.00, 
2483.00, 
2484.00, 
2485.00, 
2486.00, 
2487.00, 
2488.00, 
2489.00, 
2490.00, 
2491.00, 
2492.00, 
2493.00, 
2494.00, 
2495.00, 
2496.00, 
2497.00, 
2498.00, 
2499.00, 
2500.00, 
2501.00, 
2502.00, 
2503.00, 
2504.00, 
2505.00, 
2506.00, 
2507.00, 
2508.00, 
2509.00, 
2510.00, 
2511.00, 
2512.00, 
2513.00, 
2514.00, 
2515.00, 
2516.00, 
2517.00, 
2518.00, 
2519.00, 
2520.00, 
2521.00, 
2522.00, 
2523.00, 
2524.00, 
2525.00, 
2526.00, 
2527.00, 
2528.00, 
2529.00, 
2530.00, 
2531.00, 
2532.00, 
2533.00, 
2534.00, 
2535.00, 
2536.00, 
2537.00, 
2538.00, 
2539.00, 
2540.00, 
2541.00, 
2542.00, 
2543.00, 
2544.00, 
2545.00, 
2546.00, 
2547.00, 
2548.00, 
2549.00, 
2550.00, 
2551.00, 
2552.00, 
2553.00, 
2554.00, 
2555.00, 
2556.00, 
2557.00, 
2558.00, 
2559.00, 
2560.00, 
2561.00, 
2562.00, 
2563.00, 
2564.00, 
2565.00, 
2566.00, 
2567.00, 
2568.00, 
2569.00, 
2570.00, 
2571.00, 
2572.00, 
2573.00, 
2574.00, 
2575.00, 
2576.00, 
2577.00, 
2578.00, 
2579.00, 
2580.00, 
2581.00, 
2582.00, 
2583.00, 
2584.00, 
2585.00, 
2586.00, 
2587.00, 
2588.00, 
2589.00, 
2590.00, 
2591.00, 
2592.00, 
2593.00, 
2594.00, 
2595.00, 
2596.00, 
2597.00, 
2598.00, 
2599.00, 
2600.00, 
