"1cP5 - RawData"
"Wavelength nm.","T%"
200.00,0.003
201.00,-0.001
202.00,0.001
203.00,0.004
204.00,0.001
205.00,-0.000
206.00,-0.001
207.00,-0.001
208.00,0.003
209.00,0.002
210.00,0.002
211.00,0.001
212.00,0.001
213.00,-0.001
214.00,0.002
215.00,-0.003
216.00,-0.003
217.00,0.001
218.00,-0.000
219.00,-0.000
220.00,-0.001
221.00,-0.000
222.00,-0.001
223.00,0.002
224.00,0.001
225.00,0.002
226.00,0.001
227.00,-0.001
228.00,-0.000
229.00,0.001
230.00,0.001
231.00,-0.000
232.00,-0.000
233.00,-0.002
234.00,-0.000
235.00,-0.000
236.00,-0.001
237.00,-0.001
238.00,0.002
239.00,0.000
240.00,0.001
241.00,0.003
242.00,0.001
243.00,-0.001
244.00,0.001
245.00,-0.001
246.00,-0.002
247.00,0.001
248.00,-0.002
249.00,-0.001
250.00,-0.001
251.00,-0.001
252.00,0.000
253.00,-0.001
254.00,0.002
255.00,-0.000
256.00,0.001
257.00,-0.000
258.00,0.001
259.00,0.000
260.00,0.000
261.00,0.001
262.00,0.001
263.00,-0.000
264.00,0.000
265.00,-0.000
266.00,0.000
267.00,0.001
268.00,-0.000
269.00,-0.000
270.00,-0.002
271.00,0.001
272.00,-0.000
273.00,0.000
274.00,0.000
275.00,0.000
276.00,-0.002
277.00,0.001
278.00,-0.001
279.00,0.000
280.00,0.000
281.00,0.001
282.00,0.002
283.00,-0.001
284.00,0.000
285.00,0.001
286.00,0.000
287.00,-0.000
288.00,0.000
289.00,0.000
290.00,-0.001
291.00,0.000
292.00,-0.000
293.00,-0.000
294.00,-0.000
295.00,-0.002
296.00,-0.001
297.00,-0.001
298.00,0.001
299.00,-0.000
300.00,0.001
301.00,-0.000
302.00,0.001
303.00,-0.001
304.00,0.001
305.00,-0.000
306.00,0.003
307.00,0.003
308.00,0.007
309.00,0.008
310.00,0.017
311.00,0.024
312.00,0.037
313.00,0.056
314.00,0.085
315.00,0.124
316.00,0.177
317.00,0.252
318.00,0.343
319.00,0.459
320.00,0.603
321.00,0.785
322.00,0.997
323.00,1.251
324.00,1.544
325.00,1.846
326.00,2.186
327.00,2.588
328.00,3.024
329.00,3.455
330.00,3.962
331.00,4.459
332.00,4.982
333.00,5.555
334.00,6.107
335.00,6.701
336.00,7.295
337.00,7.910
338.00,8.485
339.00,9.034
340.00,9.632
341.00,10.210
342.00,10.705
343.00,11.211
344.00,11.699
345.00,12.201
346.00,12.666
347.00,13.087
348.00,13.505
349.00,13.889
350.00,14.247
351.00,14.571
352.00,14.883
353.00,15.170
354.00,15.420
355.00,15.709
356.00,15.986
357.00,16.164
358.00,16.382
359.00,16.587
360.00,16.742
361.00,16.857
362.00,16.991
363.00,17.129
364.00,17.227
365.00,17.313
366.00,17.373
367.00,17.455
368.00,17.485
369.00,17.499
370.00,17.549
371.00,17.519
372.00,17.506
373.00,17.478
374.00,17.434
375.00,17.395
376.00,17.344
377.00,17.226
378.00,17.154
379.00,17.112
380.00,17.032
381.00,17.019
382.00,17.030
383.00,17.034
384.00,17.066
385.00,17.129
386.00,17.142
387.00,17.163
388.00,17.213
389.00,17.229
390.00,17.250
391.00,17.254
392.00,17.310
393.00,17.297
394.00,17.297
395.00,17.273
396.00,17.275
397.00,17.280
398.00,17.287
399.00,17.277
400.00,17.312
401.00,17.275
402.00,17.253
403.00,17.236
404.00,17.222
405.00,17.184
406.00,17.184
407.00,17.137
408.00,17.136
409.00,17.113
410.00,17.052
411.00,17.040
412.00,17.023
413.00,17.037
414.00,16.994
415.00,17.013
416.00,17.037
417.00,17.014
418.00,17.041
419.00,17.073
420.00,17.066
421.00,17.136
422.00,17.190
423.00,17.204
424.00,17.219
425.00,17.248
426.00,17.266
427.00,17.308
428.00,17.339
429.00,17.386
430.00,17.424
431.00,17.483
432.00,17.529
433.00,17.581
434.00,17.611
435.00,17.672
436.00,17.752
437.00,17.797
438.00,17.878
439.00,17.939
440.00,18.006
441.00,18.087
442.00,18.179
443.00,18.248
444.00,18.369
445.00,18.416
446.00,18.513
447.00,18.580
448.00,18.699
449.00,18.809
450.00,18.899
451.00,19.007
452.00,19.110
453.00,19.210
454.00,19.327
455.00,19.461
456.00,19.542
457.00,19.708
458.00,19.801
459.00,19.915
460.00,20.019
461.00,20.161
462.00,20.271
463.00,20.396
464.00,20.517
465.00,20.646
466.00,20.769
467.00,20.861
468.00,20.986
469.00,21.120
470.00,21.141
471.00,21.413
472.00,21.544
473.00,21.646
474.00,21.780
475.00,21.919
476.00,22.017
477.00,22.197
478.00,22.314
479.00,22.449
480.00,22.620
481.00,22.785
482.00,22.922
483.00,23.095
484.00,23.217
485.00,23.398
486.00,23.520
487.00,23.691
488.00,23.873
489.00,23.986
490.00,24.123
491.00,24.320
492.00,24.425
493.00,24.619
494.00,24.753
495.00,24.867
496.00,24.827
497.00,25.107
498.00,25.240
499.00,25.397
500.00,25.512
501.00,25.641
502.00,25.786
503.00,25.940
504.00,26.084
505.00,26.200
506.00,26.318
507.00,26.474
508.00,26.644
509.00,26.736
510.00,26.886
511.00,26.990
512.00,27.130
513.00,27.269
514.00,27.413
515.00,27.482
516.00,27.663
517.00,27.759
518.00,27.881
519.00,27.969
520.00,28.130
521.00,28.211
522.00,28.272
523.00,28.460
524.00,28.501
525.00,28.656
526.00,28.732
527.00,28.852
528.00,28.924
529.00,29.026
530.00,29.145
531.00,29.257
532.00,29.355
533.00,29.455
534.00,29.549
535.00,29.643
536.00,29.755
537.00,29.817
538.00,29.912
539.00,30.038
540.00,30.074
541.00,30.192
542.00,30.218
543.00,30.306
544.00,30.398
545.00,30.504
546.00,30.555
547.00,30.624
548.00,30.687
549.00,30.736
550.00,30.855
551.00,30.929
552.00,30.961
553.00,31.066
554.00,31.166
555.00,31.195
556.00,31.275
557.00,31.382
558.00,31.410
559.00,31.497
560.00,31.542
561.00,31.582
562.00,31.681
563.00,31.717
564.00,31.771
565.00,31.813
566.00,31.865
567.00,31.892
568.00,31.961
569.00,31.983
570.00,32.006
571.00,32.072
572.00,32.155
573.00,32.155
574.00,32.197
575.00,32.286
576.00,32.277
577.00,32.364
578.00,32.417
579.00,32.510
580.00,32.520
581.00,32.666
582.00,32.673
583.00,32.771
584.00,32.809
585.00,32.841
586.00,32.929
587.00,32.951
588.00,33.058
589.00,33.075
590.00,33.128
591.00,33.224
592.00,33.230
593.00,33.224
594.00,33.319
595.00,33.329
596.00,33.331
597.00,33.424
598.00,33.505
599.00,33.457
600.00,33.567
601.00,33.605
602.00,33.721
603.00,33.747
604.00,33.799
605.00,33.832
606.00,33.865
607.00,33.993
608.00,34.055
609.00,34.092
610.00,34.226
611.00,34.160
612.00,34.163
613.00,34.250
614.00,34.296
615.00,34.285
616.00,34.450
617.00,34.401
618.00,34.517
619.00,34.610
620.00,34.531
621.00,34.694
622.00,34.776
623.00,34.849
624.00,34.925
625.00,35.009
626.00,35.136
627.00,35.138
628.00,35.261
629.00,35.278
630.00,35.357
631.00,35.409
632.00,35.476
633.00,35.552
634.00,35.646
635.00,35.732
636.00,35.803
637.00,35.941
638.00,36.024
639.00,36.118
640.00,36.139
641.00,36.258
642.00,36.282
643.00,36.380
644.00,36.505
645.00,36.585
646.00,36.687
647.00,36.792
648.00,36.922
649.00,36.952
650.00,37.029
651.00,37.174
652.00,37.215
653.00,37.422
654.00,37.458
655.00,37.505
656.00,37.579
657.00,37.781
658.00,37.871
659.00,38.011
660.00,38.169
661.00,38.250
662.00,38.317
663.00,38.361
664.00,38.531
665.00,38.727
666.00,38.639
667.00,38.916
668.00,38.877
669.00,39.137
670.00,39.274
671.00,39.226
672.00,39.335
673.00,39.481
674.00,39.615
675.00,39.769
676.00,39.869
677.00,40.038
678.00,40.104
679.00,40.217
680.00,40.336
681.00,40.322
682.00,40.690
683.00,40.535
684.00,40.819
685.00,41.131
686.00,40.795
687.00,41.112
688.00,41.498
689.00,41.353
690.00,41.459
691.00,41.680
692.00,41.704
693.00,41.802
694.00,41.884
695.00,42.082
696.00,42.136
697.00,42.278
698.00,42.346
699.00,42.510
700.00,42.684
701.00,42.805
702.00,42.800
703.00,42.944
704.00,43.206
705.00,43.236
706.00,43.295
707.00,43.525
708.00,43.449
709.00,43.544
710.00,43.720
711.00,43.782
712.00,43.867
713.00,43.959
714.00,44.042
715.00,44.189
716.00,44.268
717.00,44.254
718.00,44.391
719.00,44.530
720.00,44.490
721.00,48.869
722.00,48.945
723.00,48.953
724.00,49.033
725.00,49.101
726.00,49.091
727.00,49.068
728.00,49.184
729.00,49.292
730.00,49.348
731.00,49.336
732.00,49.365
733.00,49.455
734.00,49.500
735.00,49.571
736.00,49.628
737.00,49.573
738.00,49.764
739.00,49.788
740.00,49.810
741.00,49.938
742.00,49.914
743.00,50.016
744.00,49.952
745.00,50.045
746.00,50.072
747.00,50.096
748.00,50.181
749.00,50.188
750.00,50.192
751.00,50.226
752.00,50.275
753.00,50.181
754.00,50.334
755.00,50.274
756.00,50.365
757.00,50.372
758.00,50.471
759.00,50.473
760.00,50.461
761.00,50.552
762.00,50.573
763.00,50.507
764.00,50.583
765.00,50.623
766.00,50.685
767.00,50.706
768.00,50.720
769.00,50.730
770.00,50.802
771.00,50.732
772.00,50.843
773.00,50.810
774.00,50.936
775.00,50.892
776.00,50.921
777.00,50.920
778.00,50.940
779.00,51.021
780.00,51.039
781.00,51.003
782.00,50.980
783.00,51.028
784.00,51.092
785.00,51.136
786.00,51.035
787.00,51.052
788.00,51.028
789.00,51.029
790.00,51.081
791.00,51.055
792.00,51.021
793.00,51.038
794.00,51.037
795.00,51.105
796.00,51.075
797.00,51.052
798.00,51.004
799.00,51.007
800.00,51.056
801.00,51.057
802.00,51.037
803.00,51.064
804.00,51.009
805.00,51.021
806.00,51.039
807.00,51.046
808.00,51.072
809.00,50.999
810.00,50.995
811.00,50.979
812.00,50.945
813.00,50.940
814.00,50.941
815.00,51.031
816.00,51.025
817.00,50.962
818.00,50.941
819.00,50.890
820.00,50.914
821.00,51.003
822.00,50.950
823.00,50.997
824.00,50.952
825.00,50.945
826.00,50.959
827.00,50.941
828.00,50.902
829.00,50.804
830.00,50.880
831.00,52.901
832.00,52.814
833.00,52.826
834.00,52.848
835.00,52.807
836.00,52.806
837.00,52.766
838.00,52.822
839.00,52.773
840.00,52.779
841.00,52.753
842.00,52.746
843.00,52.719
844.00,52.706
845.00,52.694
846.00,52.685
847.00,52.647
848.00,52.612
849.00,52.549
850.00,52.514
851.00,52.608
852.00,52.533
853.00,52.509
854.00,52.479
855.00,52.427
856.00,52.451
857.00,52.415
858.00,52.427
859.00,52.357
860.00,52.352
861.00,52.332
862.00,52.345
863.00,52.287
864.00,52.266
865.00,52.246
866.00,52.421
867.00,52.259
868.00,52.332
869.00,52.336
870.00,52.215
871.00,52.255
872.00,52.215
873.00,52.248
874.00,52.195
875.00,52.200
876.00,52.180
877.00,52.218
878.00,52.151
879.00,52.165
880.00,52.125
881.00,52.121
882.00,52.117
883.00,52.087
884.00,52.074
885.00,52.048
886.00,52.044
887.00,52.008
888.00,52.024
889.00,51.985
890.00,51.967
891.00,51.952
892.00,51.958
893.00,51.927
894.00,51.907
895.00,51.880
896.00,51.864
897.00,51.871
898.00,51.825
899.00,51.815
900.00,51.816
901.00,51.815
902.00,51.825
903.00,51.773
904.00,51.810
905.00,51.761
906.00,51.731
907.00,51.679
908.00,51.671
909.00,51.669
910.00,51.676
911.00,51.633
912.00,51.594
913.00,51.590
914.00,51.598
915.00,51.572
916.00,51.557
917.00,51.550
918.00,51.532
919.00,51.492
920.00,51.437
921.00,51.499
922.00,51.448
923.00,51.417
924.00,51.409
925.00,51.398
926.00,51.382
927.00,51.352
928.00,51.396
929.00,51.353
930.00,51.328
931.00,51.291
932.00,51.276
933.00,51.302
934.00,51.266
935.00,51.225
936.00,51.218
937.00,51.170
938.00,51.179
939.00,51.168
940.00,51.181
941.00,51.125
942.00,51.100
943.00,51.116
944.00,51.050
945.00,51.082
946.00,51.051
947.00,51.075
948.00,51.010
949.00,51.015
950.00,50.990
951.00,50.978
952.00,50.935
953.00,50.927
954.00,50.881
955.00,50.877
956.00,50.838
957.00,50.819
958.00,50.807
959.00,50.794
960.00,50.772
961.00,50.740
962.00,50.732
963.00,50.695
964.00,50.716
965.00,50.657
966.00,50.682
967.00,50.667
968.00,50.691
969.00,50.647
970.00,50.668
971.00,50.678
972.00,50.627
973.00,50.668
974.00,50.651
975.00,50.659
976.00,50.638
977.00,50.644
978.00,50.676
979.00,50.666
980.00,50.669
981.00,50.614
982.00,50.615
983.00,50.629
984.00,50.652
985.00,50.643
986.00,50.655
987.00,50.669
988.00,50.635
989.00,50.619
990.00,50.606
991.00,50.597
992.00,50.608
993.00,50.602
994.00,50.569
995.00,50.545
996.00,50.561
997.00,50.520
998.00,50.527
999.00,50.538
1000.00,50.507
1001.00,50.508
1002.00,50.473
1003.00,50.496
1004.00,50.456
1005.00,50.431
1006.00,50.424
1007.00,50.411
1008.00,50.403
1009.00,50.387
1010.00,50.380
1011.00,50.364
1012.00,50.372
1013.00,50.363
1014.00,50.344
1015.00,50.349
1016.00,50.294
1017.00,50.303
1018.00,50.279
1019.00,50.284
1020.00,50.262
1021.00,50.263
1022.00,50.231
1023.00,50.223
1024.00,50.212
1025.00,50.214
1026.00,50.190
1027.00,50.142
1028.00,50.178
1029.00,50.108
1030.00,50.113
1031.00,50.109
1032.00,50.086
1033.00,50.086
1034.00,50.077
1035.00,50.043
1036.00,50.013
1037.00,50.009
1038.00,49.966
1039.00,49.970
1040.00,49.954
1041.00,49.925
1042.00,49.923
1043.00,49.895
1044.00,49.910
1045.00,49.878
1046.00,49.881
1047.00,49.880
1048.00,49.909
1049.00,49.890
1050.00,49.913
1051.00,49.926
1052.00,49.955
1053.00,49.945
1054.00,49.946
1055.00,49.953
1056.00,49.955
1057.00,49.987
1058.00,49.985
1059.00,49.975
1060.00,49.963
1061.00,49.971
1062.00,49.943
1063.00,49.948
1064.00,49.935
1065.00,49.960
1066.00,49.917
1067.00,49.930
1068.00,49.925
1069.00,49.927
1070.00,49.889
1071.00,49.876
1072.00,49.890
1073.00,49.895
1074.00,49.878
1075.00,49.852
1076.00,49.865
1077.00,49.851
1078.00,49.829
1079.00,49.812
1080.00,49.821
1081.00,49.812
1082.00,49.803
1083.00,49.783
1084.00,49.792
1085.00,49.769
1086.00,49.771
1087.00,49.740
1088.00,49.747
1089.00,49.752
1090.00,49.717
1091.00,49.721
1092.00,49.741
1093.00,49.704
1094.00,49.707
1095.00,49.691
1096.00,49.703
1097.00,49.688
1098.00,49.685
1099.00,49.661
1100.00,49.670
1101.00,49.649
1102.00,49.649
1103.00,49.614
1104.00,49.650
1105.00,49.675
1106.00,49.614
1107.00,49.595
1108.00,49.597
1109.00,49.575
1110.00,49.573
1111.00,49.559
1112.00,49.553
1113.00,49.528
1114.00,49.521
1115.00,49.498
1116.00,49.527
1117.00,49.504
1118.00,49.508
1119.00,49.524
1120.00,49.535
1121.00,49.512
1122.00,49.526
1123.00,49.490
1124.00,49.510
1125.00,49.483
1126.00,49.466
1127.00,49.467
1128.00,49.475
1129.00,49.466
1130.00,49.461
1131.00,49.436
1132.00,49.447
1133.00,49.437
1134.00,49.442
1135.00,49.422
1136.00,49.434
1137.00,49.410
1138.00,49.414
1139.00,49.393
1140.00,49.428
1141.00,49.412
1142.00,49.413
1143.00,49.408
1144.00,49.411
1145.00,49.386
1146.00,49.374
1147.00,49.380
1148.00,49.371
1149.00,49.378
1150.00,49.378
1151.00,49.357
1152.00,49.370
1153.00,49.350
1154.00,49.348
1155.00,49.346
1156.00,49.338
1157.00,49.347
1158.00,49.339
1159.00,49.330
1160.00,49.340
1161.00,49.329
1162.00,49.321
1163.00,49.352
1164.00,49.322
1165.00,49.349
1166.00,49.361
1167.00,49.324
1168.00,49.334
1169.00,49.341
1170.00,49.320
1171.00,49.324
1172.00,49.324
1173.00,49.308
1174.00,49.305
1175.00,49.315
1176.00,49.314
1177.00,49.293
1178.00,49.302
1179.00,49.300
1180.00,49.315
1181.00,49.322
1182.00,49.321
1183.00,49.304
1184.00,49.287
1185.00,49.306
1186.00,49.304
1187.00,49.307
1188.00,49.295
1189.00,49.307
1190.00,49.299
1191.00,49.324
1192.00,49.300
1193.00,49.308
1194.00,49.306
1195.00,49.292
1196.00,49.315
1197.00,49.311
1198.00,49.307
1199.00,49.287
1200.00,49.288
1201.00,49.306
1202.00,49.303
1203.00,49.284
1204.00,49.300
1205.00,49.300
1206.00,49.296
1207.00,49.298
1208.00,49.285
1209.00,49.310
1210.00,49.294
1211.00,49.315
1212.00,49.303
1213.00,49.287
1214.00,49.303
1215.00,49.286
1216.00,49.314
1217.00,49.306
1218.00,49.302
1219.00,49.301
1220.00,49.291
1221.00,49.314
1222.00,49.282
1223.00,49.314
1224.00,49.329
1225.00,49.303
1226.00,49.308
1227.00,49.340
1228.00,49.313
1229.00,49.328
1230.00,49.335
1231.00,49.335
1232.00,49.358
1233.00,49.368
1234.00,49.378
1235.00,49.361
1236.00,49.364
1237.00,49.356
1238.00,49.391
1239.00,49.385
1240.00,49.391
1241.00,49.378
1242.00,49.373
1243.00,49.390
1244.00,49.365
1245.00,49.396
1246.00,49.405
1247.00,49.408
1248.00,49.399
1249.00,49.396
1250.00,49.402
1251.00,49.440
1252.00,49.419
1253.00,49.400
1254.00,49.417
1255.00,49.452
1256.00,49.429
1257.00,49.417
1258.00,49.417
1259.00,49.448
1260.00,49.473
1261.00,49.469
1262.00,49.480
1263.00,49.456
1264.00,49.465
1265.00,49.474
1266.00,49.479
1267.00,49.492
1268.00,49.515
1269.00,49.489
1270.00,49.527
1271.00,49.530
1272.00,49.551
1273.00,49.529
1274.00,49.546
1275.00,49.538
1276.00,49.551
1277.00,49.538
1278.00,49.573
1279.00,49.562
1280.00,49.559
1281.00,49.576
1282.00,49.579
1283.00,49.578
1284.00,49.592
1285.00,49.567
1286.00,49.569
1287.00,49.596
1288.00,49.598
1289.00,49.587
1290.00,49.608
1291.00,49.621
1292.00,49.619
1293.00,49.598
1294.00,49.612
1295.00,49.658
1296.00,49.623
1297.00,49.659
1298.00,49.663
1299.00,49.674
1300.00,49.681
1301.00,49.673
1302.00,49.692
1303.00,49.703
1304.00,49.696
1305.00,49.722
1306.00,49.720
1307.00,49.729
1308.00,49.714
1309.00,49.736
1310.00,49.751
1311.00,49.747
1312.00,49.753
1313.00,49.746
1314.00,49.795
1315.00,49.780
1316.00,49.794
1317.00,49.814
1318.00,49.828
1319.00,49.820
1320.00,49.840
1321.00,49.968
1322.00,50.008
1323.00,49.994
1324.00,49.983
1325.00,49.977
1326.00,50.005
1327.00,49.977
1328.00,49.995
1329.00,49.975
1330.00,50.005
1331.00,50.000
1332.00,49.999
1333.00,50.025
1334.00,50.028
1335.00,50.038
1336.00,50.044
1337.00,50.085
1338.00,50.138
1339.00,50.168
1340.00,50.208
1341.00,50.261
1342.00,50.328
1343.00,50.369
1344.00,50.446
1345.00,50.517
1346.00,50.549
1347.00,50.601
1348.00,50.591
1349.00,50.648
1350.00,50.652
1351.00,50.654
1352.00,50.695
1353.00,50.746
1354.00,50.715
1355.00,50.739
1356.00,50.685
1357.00,50.736
1358.00,50.766
1359.00,50.788
1360.00,50.777
1361.00,50.794
1362.00,50.793
1363.00,50.827
1364.00,50.819
1365.00,50.797
1366.00,50.872
1367.00,50.810
1368.00,50.759
1369.00,50.786
1370.00,50.798
1371.00,50.804
1372.00,50.789
1373.00,50.763
1374.00,50.788
1375.00,50.783
1376.00,50.766
1377.00,50.818
1378.00,50.784
1379.00,50.945
1380.00,50.900
1381.00,50.591
1382.00,50.658
1383.00,50.946
1384.00,50.779
1385.00,50.739
1386.00,50.864
1387.00,50.767
1388.00,50.703
1389.00,50.768
1390.00,50.874
1391.00,50.863
1392.00,50.721
1393.00,50.793
1394.00,50.832
1395.00,50.730
1396.00,50.697
1397.00,50.771
1398.00,50.825
1399.00,50.817
1400.00,50.691
1401.00,50.721
1402.00,50.816
1403.00,50.851
1404.00,50.746
1405.00,50.783
1406.00,50.838
1407.00,50.845
1408.00,50.850
1409.00,50.795
1410.00,50.836
1411.00,50.845
1412.00,50.868
1413.00,50.858
1414.00,50.818
1415.00,50.864
1416.00,50.873
1417.00,50.873
1418.00,50.909
1419.00,50.865
1420.00,50.939
1421.00,50.944
1422.00,50.998
1423.00,50.971
1424.00,50.998
1425.00,50.998
1426.00,51.050
1427.00,51.058
1428.00,51.029
1429.00,51.072
1430.00,51.086
1431.00,51.091
1432.00,51.119
1433.00,51.132
1434.00,51.118
1435.00,51.185
1436.00,51.193
1437.00,51.190
1438.00,51.212
1439.00,51.244
1440.00,51.248
1441.00,51.288
1442.00,51.282
1443.00,51.336
1444.00,51.338
1445.00,51.359
1446.00,51.348
1447.00,51.394
1448.00,51.413
1449.00,51.445
1450.00,51.425
1451.00,51.475
1452.00,51.496
1453.00,51.482
1454.00,51.487
1455.00,51.555
1456.00,51.514
1457.00,51.578
1458.00,51.567
1459.00,51.594
1460.00,51.593
1461.00,51.595
1462.00,51.638
1463.00,51.632
1464.00,51.621
1465.00,51.685
1466.00,51.666
1467.00,51.699
1468.00,51.732
1469.00,51.732
1470.00,51.770
1471.00,51.776
1472.00,51.783
1473.00,51.837
1474.00,51.833
1475.00,51.841
1476.00,51.873
1477.00,51.846
1478.00,51.862
1479.00,51.893
1480.00,51.885
1481.00,51.913
1482.00,51.915
1483.00,51.916
1484.00,51.966
1485.00,52.006
1486.00,51.999
1487.00,52.028
1488.00,52.054
1489.00,52.057
1490.00,52.078
1491.00,52.092
1492.00,52.093
1493.00,52.111
1494.00,52.107
1495.00,52.151
1496.00,52.127
1497.00,52.139
1498.00,52.151
1499.00,52.188
1500.00,52.188
1501.00, 
1502.00, 
1503.00, 
1504.00, 
1505.00, 
1506.00, 
1507.00, 
1508.00, 
1509.00, 
1510.00, 
1511.00, 
1512.00, 
1513.00, 
1514.00, 
1515.00, 
1516.00, 
1517.00, 
1518.00, 
1519.00, 
1520.00, 
1521.00, 
1522.00, 
1523.00, 
1524.00, 
1525.00, 
1526.00, 
1527.00, 
1528.00, 
1529.00, 
1530.00, 
1531.00, 
1532.00, 
1533.00, 
1534.00, 
1535.00, 
1536.00, 
1537.00, 
1538.00, 
1539.00, 
1540.00, 
1541.00, 
1542.00, 
1543.00, 
1544.00, 
1545.00, 
1546.00, 
1547.00, 
1548.00, 
1549.00, 
1550.00, 
1551.00, 
1552.00, 
1553.00, 
1554.00, 
1555.00, 
1556.00, 
1557.00, 
1558.00, 
1559.00, 
1560.00, 
1561.00, 
1562.00, 
1563.00, 
1564.00, 
1565.00, 
1566.00, 
1567.00, 
1568.00, 
1569.00, 
1570.00, 
1571.00, 
1572.00, 
1573.00, 
1574.00, 
1575.00, 
1576.00, 
1577.00, 
1578.00, 
1579.00, 
1580.00, 
1581.00, 
1582.00, 
1583.00, 
1584.00, 
1585.00, 
1586.00, 
1587.00, 
1588.00, 
1589.00, 
1590.00, 
1591.00, 
1592.00, 
1593.00, 
1594.00, 
1595.00, 
1596.00, 
1597.00, 
1598.00, 
1599.00, 
1600.00, 
1601.00, 
1602.00, 
1603.00, 
1604.00, 
1605.00, 
1606.00, 
1607.00, 
1608.00, 
1609.00, 
1610.00, 
1611.00, 
1612.00, 
1613.00, 
1614.00, 
1615.00, 
1616.00, 
1617.00, 
1618.00, 
1619.00, 
1620.00, 
1621.00, 
1622.00, 
1623.00, 
1624.00, 
1625.00, 
1626.00, 
1627.00, 
1628.00, 
1629.00, 
1630.00, 
1631.00, 
1632.00, 
1633.00, 
1634.00, 
1635.00, 
1636.00, 
1637.00, 
1638.00, 
1639.00, 
1640.00, 
1641.00, 
1642.00, 
1643.00, 
1644.00, 
1645.00, 
1646.00, 
1647.00, 
1648.00, 
1649.00, 
1650.00, 
1651.00, 
1652.00, 
1653.00, 
1654.00, 
1655.00, 
1656.00, 
1657.00, 
1658.00, 
1659.00, 
1660.00, 
1661.00, 
1662.00, 
1663.00, 
1664.00, 
1665.00, 
1666.00, 
1667.00, 
1668.00, 
1669.00, 
1670.00, 
1671.00, 
1672.00, 
1673.00, 
1674.00, 
1675.00, 
1676.00, 
1677.00, 
1678.00, 
1679.00, 
1680.00, 
1681.00, 
1682.00, 
1683.00, 
1684.00, 
1685.00, 
1686.00, 
1687.00, 
1688.00, 
1689.00, 
1690.00, 
1691.00, 
1692.00, 
1693.00, 
1694.00, 
1695.00, 
1696.00, 
1697.00, 
1698.00, 
1699.00, 
1700.00, 
1701.00, 
1702.00, 
1703.00, 
1704.00, 
1705.00, 
1706.00, 
1707.00, 
1708.00, 
1709.00, 
1710.00, 
1711.00, 
1712.00, 
1713.00, 
1714.00, 
1715.00, 
1716.00, 
1717.00, 
1718.00, 
1719.00, 
1720.00, 
1721.00, 
1722.00, 
1723.00, 
1724.00, 
1725.00, 
1726.00, 
1727.00, 
1728.00, 
1729.00, 
1730.00, 
1731.00, 
1732.00, 
1733.00, 
1734.00, 
1735.00, 
1736.00, 
1737.00, 
1738.00, 
1739.00, 
1740.00, 
1741.00, 
1742.00, 
1743.00, 
1744.00, 
1745.00, 
1746.00, 
1747.00, 
1748.00, 
1749.00, 
1750.00, 
1751.00, 
1752.00, 
1753.00, 
1754.00, 
1755.00, 
1756.00, 
1757.00, 
1758.00, 
1759.00, 
1760.00, 
1761.00, 
1762.00, 
1763.00, 
1764.00, 
1765.00, 
1766.00, 
1767.00, 
1768.00, 
1769.00, 
1770.00, 
1771.00, 
1772.00, 
1773.00, 
1774.00, 
1775.00, 
1776.00, 
1777.00, 
1778.00, 
1779.00, 
1780.00, 
1781.00, 
1782.00, 
1783.00, 
1784.00, 
1785.00, 
1786.00, 
1787.00, 
1788.00, 
1789.00, 
1790.00, 
1791.00, 
1792.00, 
1793.00, 
1794.00, 
1795.00, 
1796.00, 
1797.00, 
1798.00, 
1799.00, 
1800.00, 
1801.00, 
1802.00, 
1803.00, 
1804.00, 
1805.00, 
1806.00, 
1807.00, 
1808.00, 
1809.00, 
1810.00, 
1811.00, 
1812.00, 
1813.00, 
1814.00, 
1815.00, 
1816.00, 
1817.00, 
1818.00, 
1819.00, 
1820.00, 
1821.00, 
1822.00, 
1823.00, 
1824.00, 
1825.00, 
1826.00, 
1827.00, 
1828.00, 
1829.00, 
1830.00, 
1831.00, 
1832.00, 
1833.00, 
1834.00, 
1835.00, 
1836.00, 
1837.00, 
1838.00, 
1839.00, 
1840.00, 
1841.00, 
1842.00, 
1843.00, 
1844.00, 
1845.00, 
1846.00, 
1847.00, 
1848.00, 
1849.00, 
1850.00, 
1851.00, 
1852.00, 
1853.00, 
1854.00, 
1855.00, 
1856.00, 
1857.00, 
1858.00, 
1859.00, 
1860.00, 
1861.00, 
1862.00, 
1863.00, 
1864.00, 
1865.00, 
1866.00, 
1867.00, 
1868.00, 
1869.00, 
1870.00, 
1871.00, 
1872.00, 
1873.00, 
1874.00, 
1875.00, 
1876.00, 
1877.00, 
1878.00, 
1879.00, 
1880.00, 
1881.00, 
1882.00, 
1883.00, 
1884.00, 
1885.00, 
1886.00, 
1887.00, 
1888.00, 
1889.00, 
1890.00, 
1891.00, 
1892.00, 
1893.00, 
1894.00, 
1895.00, 
1896.00, 
1897.00, 
1898.00, 
1899.00, 
1900.00, 
1901.00, 
1902.00, 
1903.00, 
1904.00, 
1905.00, 
1906.00, 
1907.00, 
1908.00, 
1909.00, 
1910.00, 
1911.00, 
1912.00, 
1913.00, 
1914.00, 
1915.00, 
1916.00, 
1917.00, 
1918.00, 
1919.00, 
1920.00, 
1921.00, 
1922.00, 
1923.00, 
1924.00, 
1925.00, 
1926.00, 
1927.00, 
1928.00, 
1929.00, 
1930.00, 
1931.00, 
1932.00, 
1933.00, 
1934.00, 
1935.00, 
1936.00, 
1937.00, 
1938.00, 
1939.00, 
1940.00, 
1941.00, 
1942.00, 
1943.00, 
1944.00, 
1945.00, 
1946.00, 
1947.00, 
1948.00, 
1949.00, 
1950.00, 
1951.00, 
1952.00, 
1953.00, 
1954.00, 
1955.00, 
1956.00, 
1957.00, 
1958.00, 
1959.00, 
1960.00, 
1961.00, 
1962.00, 
1963.00, 
1964.00, 
1965.00, 
1966.00, 
1967.00, 
1968.00, 
1969.00, 
1970.00, 
1971.00, 
1972.00, 
1973.00, 
1974.00, 
1975.00, 
1976.00, 
1977.00, 
1978.00, 
1979.00, 
1980.00, 
1981.00, 
1982.00, 
1983.00, 
1984.00, 
1985.00, 
1986.00, 
1987.00, 
1988.00, 
1989.00, 
1990.00, 
1991.00, 
1992.00, 
1993.00, 
1994.00, 
1995.00, 
1996.00, 
1997.00, 
1998.00, 
1999.00, 
2000.00, 
2001.00, 
2002.00, 
2003.00, 
2004.00, 
2005.00, 
2006.00, 
2007.00, 
2008.00, 
2009.00, 
2010.00, 
2011.00, 
2012.00, 
2013.00, 
2014.00, 
2015.00, 
2016.00, 
2017.00, 
2018.00, 
2019.00, 
2020.00, 
2021.00, 
2022.00, 
2023.00, 
2024.00, 
2025.00, 
2026.00, 
2027.00, 
2028.00, 
2029.00, 
2030.00, 
2031.00, 
2032.00, 
2033.00, 
2034.00, 
2035.00, 
2036.00, 
2037.00, 
2038.00, 
2039.00, 
2040.00, 
2041.00, 
2042.00, 
2043.00, 
2044.00, 
2045.00, 
2046.00, 
2047.00, 
2048.00, 
2049.00, 
2050.00, 
2051.00, 
2052.00, 
2053.00, 
2054.00, 
2055.00, 
2056.00, 
2057.00, 
2058.00, 
2059.00, 
2060.00, 
2061.00, 
2062.00, 
2063.00, 
2064.00, 
2065.00, 
2066.00, 
2067.00, 
2068.00, 
2069.00, 
2070.00, 
2071.00, 
2072.00, 
2073.00, 
2074.00, 
2075.00, 
2076.00, 
2077.00, 
2078.00, 
2079.00, 
2080.00, 
2081.00, 
2082.00, 
2083.00, 
2084.00, 
2085.00, 
2086.00, 
2087.00, 
2088.00, 
2089.00, 
2090.00, 
2091.00, 
2092.00, 
2093.00, 
2094.00, 
2095.00, 
2096.00, 
2097.00, 
2098.00, 
2099.00, 
2100.00, 
2101.00, 
2102.00, 
2103.00, 
2104.00, 
2105.00, 
2106.00, 
2107.00, 
2108.00, 
2109.00, 
2110.00, 
2111.00, 
2112.00, 
2113.00, 
2114.00, 
2115.00, 
2116.00, 
2117.00, 
2118.00, 
2119.00, 
2120.00, 
2121.00, 
2122.00, 
2123.00, 
2124.00, 
2125.00, 
2126.00, 
2127.00, 
2128.00, 
2129.00, 
2130.00, 
2131.00, 
2132.00, 
2133.00, 
2134.00, 
2135.00, 
2136.00, 
2137.00, 
2138.00, 
2139.00, 
2140.00, 
2141.00, 
2142.00, 
2143.00, 
2144.00, 
2145.00, 
2146.00, 
2147.00, 
2148.00, 
2149.00, 
2150.00, 
2151.00, 
2152.00, 
2153.00, 
2154.00, 
2155.00, 
2156.00, 
2157.00, 
2158.00, 
2159.00, 
2160.00, 
2161.00, 
2162.00, 
2163.00, 
2164.00, 
2165.00, 
2166.00, 
2167.00, 
2168.00, 
2169.00, 
2170.00, 
2171.00, 
2172.00, 
2173.00, 
2174.00, 
2175.00, 
2176.00, 
2177.00, 
2178.00, 
2179.00, 
2180.00, 
2181.00, 
2182.00, 
2183.00, 
2184.00, 
2185.00, 
2186.00, 
2187.00, 
2188.00, 
2189.00, 
2190.00, 
2191.00, 
2192.00, 
2193.00, 
2194.00, 
2195.00, 
2196.00, 
2197.00, 
2198.00, 
2199.00, 
2200.00, 
2201.00, 
2202.00, 
2203.00, 
2204.00, 
2205.00, 
2206.00, 
2207.00, 
2208.00, 
2209.00, 
2210.00, 
2211.00, 
2212.00, 
2213.00, 
2214.00, 
2215.00, 
2216.00, 
2217.00, 
2218.00, 
2219.00, 
2220.00, 
2221.00, 
2222.00, 
2223.00, 
2224.00, 
2225.00, 
2226.00, 
2227.00, 
2228.00, 
2229.00, 
2230.00, 
2231.00, 
2232.00, 
2233.00, 
2234.00, 
2235.00, 
2236.00, 
2237.00, 
2238.00, 
2239.00, 
2240.00, 
2241.00, 
2242.00, 
2243.00, 
2244.00, 
2245.00, 
2246.00, 
2247.00, 
2248.00, 
2249.00, 
2250.00, 
2251.00, 
2252.00, 
2253.00, 
2254.00, 
2255.00, 
2256.00, 
2257.00, 
2258.00, 
2259.00, 
2260.00, 
2261.00, 
2262.00, 
2263.00, 
2264.00, 
2265.00, 
2266.00, 
2267.00, 
2268.00, 
2269.00, 
2270.00, 
2271.00, 
2272.00, 
2273.00, 
2274.00, 
2275.00, 
2276.00, 
2277.00, 
2278.00, 
2279.00, 
2280.00, 
2281.00, 
2282.00, 
2283.00, 
2284.00, 
2285.00, 
2286.00, 
2287.00, 
2288.00, 
2289.00, 
2290.00, 
2291.00, 
2292.00, 
2293.00, 
2294.00, 
2295.00, 
2296.00, 
2297.00, 
2298.00, 
2299.00, 
2300.00, 
2301.00, 
2302.00, 
2303.00, 
2304.00, 
2305.00, 
2306.00, 
2307.00, 
2308.00, 
2309.00, 
2310.00, 
2311.00, 
2312.00, 
2313.00, 
2314.00, 
2315.00, 
2316.00, 
2317.00, 
2318.00, 
2319.00, 
2320.00, 
2321.00, 
2322.00, 
2323.00, 
2324.00, 
2325.00, 
2326.00, 
2327.00, 
2328.00, 
2329.00, 
2330.00, 
2331.00, 
2332.00, 
2333.00, 
2334.00, 
2335.00, 
2336.00, 
2337.00, 
2338.00, 
2339.00, 
2340.00, 
2341.00, 
2342.00, 
2343.00, 
2344.00, 
2345.00, 
2346.00, 
2347.00, 
2348.00, 
2349.00, 
2350.00, 
2351.00, 
2352.00, 
2353.00, 
2354.00, 
2355.00, 
2356.00, 
2357.00, 
2358.00, 
2359.00, 
2360.00, 
2361.00, 
2362.00, 
2363.00, 
2364.00, 
2365.00, 
2366.00, 
2367.00, 
2368.00, 
2369.00, 
2370.00, 
2371.00, 
2372.00, 
2373.00, 
2374.00, 
2375.00, 
2376.00, 
2377.00, 
2378.00, 
2379.00, 
2380.00, 
2381.00, 
2382.00, 
2383.00, 
2384.00, 
2385.00, 
2386.00, 
2387.00, 
2388.00, 
2389.00, 
2390.00, 
2391.00, 
2392.00, 
2393.00, 
2394.00, 
2395.00, 
2396.00, 
2397.00, 
2398.00, 
2399.00, 
2400.00, 
2401.00, 
2402.00, 
2403.00, 
2404.00, 
2405.00, 
2406.00, 
2407.00, 
2408.00, 
2409.00, 
2410.00, 
2411.00, 
2412.00, 
2413.00, 
2414.00, 
2415.00, 
2416.00, 
2417.00, 
2418.00, 
2419.00, 
2420.00, 
2421.00, 
2422.00, 
2423.00, 
2424.00, 
2425.00, 
2426.00, 
2427.00, 
2428.00, 
2429.00, 
2430.00, 
2431.00, 
2432.00, 
2433.00, 
2434.00, 
2435.00, 
2436.00, 
2437.00, 
2438.00, 
2439.00, 
2440.00, 
2441.00, 
2442.00, 
2443.00, 
2444.00, 
2445.00, 
2446.00, 
2447.00, 
2448.00, 
2449.00, 
2450.00, 
2451.00, 
2452.00, 
2453.00, 
2454.00, 
2455.00, 
2456.00, 
2457.00, 
2458.00, 
2459.00, 
2460.00, 
2461.00, 
2462.00, 
2463.00, 
2464.00, 
2465.00, 
2466.00, 
2467.00, 
2468.00, 
2469.00, 
2470.00, 
2471.00, 
2472.00, 
2473.00, 
2474.00, 
2475.00, 
2476.00, 
2477.00, 
2478.00, 
2479.00, 
2480.00, 
2481.00, 
2482.00, 
2483.00, 
2484.00, 
2485.00, 
2486.00, 
2487.00, 
2488.00, 
2489.00, 
2490.00, 
2491.00, 
2492.00, 
2493.00, 
2494.00, 
2495.00, 
2496.00, 
2497.00, 
2498.00, 
2499.00, 
2500.00, 
2501.00, 
2502.00, 
2503.00, 
2504.00, 
2505.00, 
2506.00, 
2507.00, 
2508.00, 
2509.00, 
2510.00, 
2511.00, 
2512.00, 
2513.00, 
2514.00, 
2515.00, 
2516.00, 
2517.00, 
2518.00, 
2519.00, 
2520.00, 
2521.00, 
2522.00, 
2523.00, 
2524.00, 
2525.00, 
2526.00, 
2527.00, 
2528.00, 
2529.00, 
2530.00, 
2531.00, 
2532.00, 
2533.00, 
2534.00, 
2535.00, 
2536.00, 
2537.00, 
2538.00, 
2539.00, 
2540.00, 
2541.00, 
2542.00, 
2543.00, 
2544.00, 
2545.00, 
2546.00, 
2547.00, 
2548.00, 
2549.00, 
2550.00, 
2551.00, 
2552.00, 
2553.00, 
2554.00, 
2555.00, 
2556.00, 
2557.00, 
2558.00, 
2559.00, 
2560.00, 
2561.00, 
2562.00, 
2563.00, 
2564.00, 
2565.00, 
2566.00, 
2567.00, 
2568.00, 
2569.00, 
2570.00, 
2571.00, 
2572.00, 
2573.00, 
2574.00, 
2575.00, 
2576.00, 
2577.00, 
2578.00, 
2579.00, 
2580.00, 
2581.00, 
2582.00, 
2583.00, 
2584.00, 
2585.00, 
2586.00, 
2587.00, 
2588.00, 
2589.00, 
2590.00, 
2591.00, 
2592.00, 
2593.00, 
2594.00, 
2595.00, 
2596.00, 
2597.00, 
2598.00, 
2599.00, 
2600.00, 
