"2cP1 - RawData"
"Wavelength nm.","T%"
200.00,0.001
201.00,0.002
202.00,-0.002
203.00,0.002
204.00,0.002
205.00,0.002
206.00,0.001
207.00,0.001
208.00,0.003
209.00,-0.000
210.00,0.001
211.00,-0.000
212.00,0.002
213.00,0.001
214.00,0.002
215.00,-0.000
216.00,0.001
217.00,0.000
218.00,-0.000
219.00,0.001
220.00,-0.002
221.00,0.001
222.00,0.001
223.00,0.003
224.00,0.001
225.00,-0.001
226.00,-0.001
227.00,-0.001
228.00,0.000
229.00,0.002
230.00,0.001
231.00,-0.000
232.00,0.001
233.00,-0.000
234.00,0.001
235.00,0.001
236.00,-0.000
237.00,0.000
238.00,-0.001
239.00,-0.002
240.00,-0.000
241.00,0.000
242.00,0.002
243.00,0.000
244.00,0.001
245.00,-0.000
246.00,0.001
247.00,0.001
248.00,-0.001
249.00,-0.001
250.00,-0.000
251.00,0.001
252.00,0.001
253.00,0.001
254.00,0.001
255.00,0.002
256.00,-0.000
257.00,0.000
258.00,0.001
259.00,0.002
260.00,0.001
261.00,-0.000
262.00,-0.000
263.00,-0.001
264.00,0.000
265.00,-0.000
266.00,0.001
267.00,0.000
268.00,0.000
269.00,0.001
270.00,-0.001
271.00,-0.000
272.00,-0.001
273.00,-0.001
274.00,0.002
275.00,0.001
276.00,-0.000
277.00,0.000
278.00,0.000
279.00,0.000
280.00,0.000
281.00,0.001
282.00,0.001
283.00,0.000
284.00,0.000
285.00,0.001
286.00,-0.000
287.00,0.001
288.00,-0.001
289.00,0.001
290.00,-0.000
291.00,-0.001
292.00,-0.000
293.00,0.000
294.00,0.001
295.00,0.001
296.00,0.000
297.00,0.000
298.00,0.002
299.00,0.003
300.00,0.002
301.00,0.003
302.00,0.004
303.00,0.009
304.00,0.008
305.00,0.015
306.00,0.026
307.00,0.039
308.00,0.058
309.00,0.088
310.00,0.130
311.00,0.174
312.00,0.241
313.00,0.322
314.00,0.424
315.00,0.546
316.00,0.677
317.00,0.865
318.00,1.074
319.00,1.299
320.00,1.581
321.00,1.891
322.00,2.233
323.00,2.613
324.00,3.016
325.00,3.413
326.00,3.826
327.00,4.320
328.00,4.814
329.00,5.303
330.00,5.833
331.00,6.333
332.00,6.874
333.00,7.449
334.00,7.985
335.00,8.529
336.00,9.064
337.00,9.609
338.00,10.106
339.00,10.613
340.00,11.131
341.00,11.634
342.00,12.011
343.00,12.481
344.00,12.871
345.00,13.268
346.00,13.667
347.00,14.021
348.00,14.369
349.00,14.638
350.00,14.973
351.00,15.222
352.00,15.466
353.00,15.717
354.00,15.954
355.00,16.178
356.00,16.350
357.00,16.518
358.00,16.698
359.00,16.865
360.00,17.005
361.00,17.109
362.00,17.211
363.00,17.368
364.00,17.409
365.00,17.491
366.00,17.539
367.00,17.584
368.00,17.695
369.00,17.671
370.00,17.712
371.00,17.732
372.00,17.707
373.00,17.729
374.00,17.663
375.00,17.670
376.00,17.609
377.00,17.593
378.00,17.553
379.00,17.482
380.00,17.501
381.00,17.425
382.00,17.441
383.00,17.425
384.00,17.422
385.00,17.486
386.00,17.467
387.00,17.505
388.00,17.519
389.00,17.512
390.00,17.524
391.00,17.532
392.00,17.544
393.00,17.526
394.00,17.552
395.00,17.518
396.00,17.523
397.00,17.550
398.00,17.502
399.00,17.503
400.00,17.427
401.00,17.470
402.00,17.467
403.00,17.453
404.00,17.444
405.00,17.419
406.00,17.431
407.00,17.369
408.00,17.381
409.00,17.339
410.00,17.300
411.00,17.291
412.00,17.265
413.00,17.309
414.00,17.262
415.00,17.311
416.00,17.323
417.00,17.313
418.00,17.334
419.00,17.355
420.00,17.375
421.00,17.420
422.00,17.455
423.00,17.460
424.00,17.474
425.00,17.513
426.00,17.536
427.00,17.597
428.00,17.602
429.00,17.672
430.00,17.713
431.00,17.755
432.00,17.817
433.00,17.841
434.00,17.876
435.00,17.961
436.00,18.018
437.00,18.093
438.00,18.150
439.00,18.201
440.00,18.300
441.00,18.357
442.00,18.449
443.00,18.489
444.00,18.613
445.00,18.676
446.00,18.790
447.00,18.821
448.00,18.929
449.00,19.031
450.00,19.082
451.00,19.229
452.00,19.328
453.00,19.447
454.00,19.493
455.00,19.633
456.00,19.722
457.00,19.831
458.00,19.937
459.00,19.985
460.00,20.179
461.00,20.330
462.00,20.425
463.00,20.556
464.00,20.670
465.00,20.772
466.00,20.878
467.00,21.000
468.00,21.092
469.00,21.278
470.00,21.336
471.00,21.414
472.00,21.635
473.00,21.707
474.00,21.853
475.00,22.000
476.00,22.091
477.00,22.255
478.00,22.353
479.00,22.490
480.00,22.650
481.00,22.791
482.00,22.977
483.00,23.123
484.00,23.250
485.00,23.431
486.00,23.574
487.00,23.683
488.00,23.854
489.00,23.971
490.00,24.084
491.00,24.287
492.00,24.400
493.00,24.593
494.00,24.719
495.00,24.809
496.00,24.884
497.00,25.040
498.00,25.199
499.00,25.322
500.00,25.461
501.00,25.565
502.00,25.721
503.00,25.896
504.00,26.002
505.00,26.106
506.00,26.266
507.00,26.383
508.00,26.500
509.00,26.601
510.00,26.799
511.00,26.890
512.00,26.989
513.00,27.165
514.00,27.284
515.00,27.360
516.00,27.517
517.00,27.518
518.00,27.751
519.00,27.816
520.00,27.984
521.00,28.075
522.00,28.127
523.00,28.292
524.00,28.407
525.00,28.489
526.00,28.579
527.00,28.664
528.00,28.763
529.00,28.891
530.00,28.982
531.00,29.117
532.00,29.235
533.00,29.291
534.00,29.389
535.00,29.510
536.00,29.644
537.00,29.689
538.00,29.811
539.00,29.925
540.00,29.948
541.00,30.074
542.00,30.098
543.00,30.185
544.00,30.294
545.00,30.373
546.00,30.449
547.00,30.532
548.00,30.604
549.00,30.680
550.00,30.762
551.00,30.832
552.00,30.912
553.00,30.986
554.00,31.071
555.00,31.145
556.00,31.216
557.00,31.301
558.00,31.356
559.00,31.406
560.00,31.525
561.00,31.583
562.00,31.635
563.00,31.659
564.00,31.718
565.00,31.810
566.00,31.817
567.00,31.837
568.00,31.933
569.00,31.995
570.00,31.991
571.00,32.017
572.00,32.127
573.00,32.099
574.00,32.162
575.00,32.193
576.00,32.241
577.00,32.373
578.00,32.424
579.00,32.548
580.00,32.605
581.00,32.706
582.00,32.778
583.00,32.866
584.00,32.925
585.00,32.974
586.00,33.070
587.00,33.105
588.00,33.224
589.00,33.199
590.00,33.283
591.00,33.371
592.00,33.379
593.00,33.450
594.00,33.481
595.00,33.513
596.00,33.543
597.00,33.591
598.00,33.694
599.00,33.718
600.00,33.778
601.00,33.838
602.00,33.882
603.00,33.962
604.00,34.063
605.00,33.963
606.00,34.063
607.00,34.181
608.00,34.296
609.00,34.302
610.00,34.431
611.00,34.419
612.00,34.477
613.00,34.495
614.00,34.587
615.00,34.624
616.00,34.705
617.00,34.761
618.00,34.855
619.00,34.869
620.00,34.961
621.00,35.029
622.00,35.098
623.00,35.164
624.00,35.270
625.00,35.328
626.00,35.346
627.00,35.407
628.00,35.559
629.00,35.475
630.00,35.617
631.00,35.747
632.00,35.841
633.00,35.923
634.00,35.967
635.00,36.110
636.00,36.114
637.00,36.276
638.00,36.358
639.00,36.419
640.00,36.532
641.00,36.594
642.00,36.702
643.00,36.785
644.00,36.883
645.00,36.949
646.00,37.077
647.00,37.126
648.00,37.254
649.00,37.258
650.00,37.430
651.00,37.483
652.00,37.542
653.00,37.813
654.00,37.819
655.00,37.856
656.00,37.945
657.00,38.177
658.00,38.224
659.00,38.318
660.00,38.424
661.00,38.467
662.00,38.668
663.00,38.721
664.00,38.874
665.00,39.092
666.00,39.009
667.00,39.277
668.00,39.172
669.00,39.454
670.00,39.625
671.00,39.524
672.00,39.667
673.00,39.873
674.00,39.971
675.00,40.074
676.00,40.212
677.00,40.357
678.00,40.302
679.00,40.535
680.00,40.581
681.00,40.712
682.00,40.930
683.00,40.954
684.00,41.084
685.00,41.293
686.00,41.259
687.00,41.374
688.00,41.553
689.00,41.532
690.00,41.767
691.00,41.885
692.00,41.870
693.00,42.008
694.00,42.129
695.00,42.245
696.00,42.340
697.00,42.380
698.00,42.593
699.00,42.735
700.00,42.809
701.00,43.004
702.00,43.030
703.00,43.163
704.00,43.389
705.00,43.398
706.00,43.430
707.00,43.719
708.00,43.537
709.00,43.774
710.00,43.992
711.00,43.830
712.00,43.922
713.00,44.088
714.00,44.127
715.00,44.188
716.00,44.432
717.00,44.429
718.00,44.536
719.00,44.690
720.00,44.694
721.00,49.168
722.00,49.258
723.00,49.306
724.00,49.265
725.00,49.394
726.00,49.427
727.00,49.475
728.00,49.490
729.00,49.548
730.00,49.635
731.00,49.684
732.00,49.659
733.00,49.798
734.00,49.859
735.00,49.865
736.00,49.950
737.00,49.966
738.00,50.056
739.00,50.082
740.00,50.099
741.00,50.167
742.00,50.262
743.00,50.282
744.00,50.299
745.00,50.304
746.00,50.344
747.00,50.404
748.00,50.463
749.00,50.506
750.00,50.486
751.00,50.546
752.00,50.581
753.00,50.493
754.00,50.599
755.00,50.582
756.00,50.605
757.00,50.631
758.00,50.622
759.00,50.695
760.00,50.736
761.00,50.745
762.00,50.740
763.00,50.763
764.00,50.786
765.00,50.806
766.00,50.888
767.00,50.962
768.00,50.990
769.00,50.994
770.00,50.978
771.00,50.957
772.00,51.067
773.00,51.062
774.00,51.173
775.00,51.147
776.00,51.180
777.00,51.224
778.00,51.174
779.00,51.292
780.00,51.272
781.00,51.261
782.00,51.272
783.00,51.310
784.00,51.352
785.00,51.268
786.00,51.278
787.00,51.318
788.00,51.283
789.00,51.248
790.00,51.371
791.00,51.345
792.00,51.307
793.00,51.312
794.00,51.282
795.00,51.336
796.00,51.323
797.00,51.296
798.00,51.305
799.00,51.306
800.00,51.328
801.00,51.285
802.00,51.349
803.00,51.316
804.00,51.168
805.00,51.293
806.00,51.267
807.00,51.339
808.00,51.232
809.00,51.189
810.00,51.272
811.00,51.219
812.00,51.233
813.00,51.224
814.00,51.211
815.00,51.166
816.00,51.272
817.00,51.300
818.00,51.172
819.00,51.217
820.00,51.164
821.00,51.224
822.00,51.125
823.00,51.226
824.00,51.137
825.00,51.233
826.00,51.303
827.00,51.134
828.00,51.139
829.00,51.133
830.00,51.117
831.00,53.516
832.00,53.393
833.00,53.406
834.00,53.409
835.00,53.428
836.00,53.450
837.00,53.414
838.00,53.395
839.00,53.393
840.00,53.375
841.00,53.356
842.00,53.327
843.00,53.318
844.00,53.307
845.00,53.275
846.00,53.285
847.00,53.239
848.00,53.264
849.00,53.215
850.00,53.219
851.00,53.191
852.00,53.114
853.00,53.130
854.00,53.099
855.00,53.031
856.00,53.025
857.00,52.991
858.00,53.013
859.00,52.964
860.00,52.974
861.00,52.942
862.00,52.944
863.00,52.890
864.00,52.913
865.00,52.904
866.00,52.880
867.00,52.866
868.00,52.953
869.00,52.950
870.00,52.847
871.00,52.874
872.00,52.840
873.00,52.859
874.00,52.795
875.00,52.813
876.00,52.821
877.00,52.819
878.00,52.746
879.00,52.755
880.00,52.750
881.00,52.767
882.00,52.744
883.00,52.703
884.00,52.720
885.00,52.692
886.00,52.678
887.00,52.623
888.00,52.595
889.00,52.599
890.00,52.585
891.00,52.583
892.00,52.557
893.00,52.549
894.00,52.509
895.00,52.506
896.00,52.506
897.00,52.499
898.00,52.476
899.00,52.464
900.00,52.436
901.00,52.472
902.00,52.428
903.00,52.427
904.00,52.427
905.00,52.384
906.00,52.384
907.00,52.351
908.00,52.317
909.00,52.312
910.00,52.300
911.00,52.271
912.00,52.240
913.00,52.244
914.00,52.237
915.00,52.205
916.00,52.203
917.00,52.151
918.00,52.152
919.00,52.110
920.00,52.114
921.00,52.095
922.00,52.075
923.00,52.042
924.00,52.011
925.00,52.016
926.00,51.991
927.00,51.979
928.00,51.992
929.00,51.946
930.00,51.943
931.00,51.908
932.00,51.900
933.00,51.906
934.00,51.867
935.00,51.823
936.00,51.833
937.00,51.808
938.00,51.763
939.00,51.716
940.00,51.874
941.00,51.751
942.00,51.727
943.00,51.744
944.00,51.678
945.00,51.703
946.00,51.680
947.00,51.706
948.00,51.640
949.00,51.640
950.00,51.587
951.00,51.596
952.00,51.564
953.00,51.548
954.00,51.491
955.00,51.507
956.00,51.448
957.00,51.418
958.00,51.404
959.00,51.386
960.00,51.354
961.00,51.345
962.00,51.330
963.00,51.283
964.00,51.284
965.00,51.265
966.00,51.282
967.00,51.265
968.00,51.283
969.00,51.237
970.00,51.251
971.00,51.265
972.00,51.225
973.00,51.259
974.00,51.247
975.00,51.245
976.00,51.230
977.00,51.273
978.00,51.275
979.00,51.204
980.00,51.231
981.00,51.238
982.00,51.280
983.00,51.235
984.00,51.247
985.00,51.219
986.00,51.295
987.00,51.257
988.00,51.217
989.00,51.221
990.00,51.186
991.00,51.177
992.00,51.174
993.00,51.184
994.00,51.132
995.00,51.136
996.00,51.135
997.00,51.096
998.00,51.125
999.00,51.107
1000.00,51.060
1001.00,51.040
1002.00,51.036
1003.00,51.075
1004.00,51.037
1005.00,51.017
1006.00,51.025
1007.00,51.021
1008.00,50.986
1009.00,50.980
1010.00,50.972
1011.00,50.922
1012.00,50.940
1013.00,50.910
1014.00,50.914
1015.00,50.914
1016.00,50.908
1017.00,50.856
1018.00,50.846
1019.00,50.848
1020.00,50.814
1021.00,50.821
1022.00,50.790
1023.00,50.786
1024.00,50.779
1025.00,50.750
1026.00,50.759
1027.00,50.707
1028.00,50.735
1029.00,50.685
1030.00,50.679
1031.00,50.671
1032.00,50.630
1033.00,50.633
1034.00,50.615
1035.00,50.592
1036.00,50.558
1037.00,50.536
1038.00,50.518
1039.00,50.516
1040.00,50.473
1041.00,50.453
1042.00,50.440
1043.00,50.422
1044.00,50.436
1045.00,50.394
1046.00,50.435
1047.00,50.432
1048.00,50.434
1049.00,50.423
1050.00,50.446
1051.00,50.456
1052.00,50.477
1053.00,50.476
1054.00,50.483
1055.00,50.491
1056.00,50.502
1057.00,50.512
1058.00,50.491
1059.00,50.515
1060.00,50.477
1061.00,50.493
1062.00,50.486
1063.00,50.480
1064.00,50.462
1065.00,50.483
1066.00,50.454
1067.00,50.447
1068.00,50.456
1069.00,50.440
1070.00,50.401
1071.00,50.390
1072.00,50.390
1073.00,50.384
1074.00,50.371
1075.00,50.360
1076.00,50.384
1077.00,50.363
1078.00,50.338
1079.00,50.324
1080.00,50.332
1081.00,50.313
1082.00,50.319
1083.00,50.297
1084.00,50.311
1085.00,50.287
1086.00,50.290
1087.00,50.275
1088.00,50.256
1089.00,50.248
1090.00,50.231
1091.00,50.234
1092.00,50.264
1093.00,50.210
1094.00,50.201
1095.00,50.172
1096.00,50.182
1097.00,50.171
1098.00,50.169
1099.00,50.139
1100.00,50.146
1101.00,50.138
1102.00,50.127
1103.00,50.109
1104.00,50.103
1105.00,50.096
1106.00,50.075
1107.00,50.070
1108.00,50.104
1109.00,50.070
1110.00,50.062
1111.00,50.019
1112.00,50.028
1113.00,50.019
1114.00,50.015
1115.00,50.000
1116.00,50.017
1117.00,50.001
1118.00,49.982
1119.00,49.985
1120.00,49.998
1121.00,49.963
1122.00,49.979
1123.00,49.971
1124.00,49.950
1125.00,49.931
1126.00,49.924
1127.00,49.920
1128.00,49.933
1129.00,49.909
1130.00,49.902
1131.00,49.897
1132.00,49.894
1133.00,49.877
1134.00,49.870
1135.00,49.849
1136.00,49.869
1137.00,49.836
1138.00,49.848
1139.00,49.841
1140.00,49.850
1141.00,49.845
1142.00,49.856
1143.00,49.842
1144.00,49.828
1145.00,49.819
1146.00,49.813
1147.00,49.816
1148.00,49.800
1149.00,49.808
1150.00,49.797
1151.00,49.774
1152.00,49.799
1153.00,49.789
1154.00,49.777
1155.00,49.778
1156.00,49.774
1157.00,49.777
1158.00,49.763
1159.00,49.746
1160.00,49.746
1161.00,49.757
1162.00,49.748
1163.00,49.762
1164.00,49.757
1165.00,49.758
1166.00,49.745
1167.00,49.744
1168.00,49.755
1169.00,49.761
1170.00,49.733
1171.00,49.725
1172.00,49.712
1173.00,49.708
1174.00,49.711
1175.00,49.714
1176.00,49.709
1177.00,49.694
1178.00,49.706
1179.00,49.695
1180.00,49.707
1181.00,49.697
1182.00,49.700
1183.00,49.715
1184.00,49.698
1185.00,49.693
1186.00,49.684
1187.00,49.679
1188.00,49.655
1189.00,49.675
1190.00,49.653
1191.00,49.657
1192.00,49.648
1193.00,49.666
1194.00,49.665
1195.00,49.636
1196.00,49.670
1197.00,49.679
1198.00,49.664
1199.00,49.657
1200.00,49.664
1201.00,49.664
1202.00,49.663
1203.00,49.641
1204.00,49.655
1205.00,49.658
1206.00,49.655
1207.00,49.653
1208.00,49.641
1209.00,49.667
1210.00,49.634
1211.00,49.656
1212.00,49.639
1213.00,49.633
1214.00,49.647
1215.00,49.620
1216.00,49.644
1217.00,49.614
1218.00,49.631
1219.00,49.647
1220.00,49.633
1221.00,49.647
1222.00,49.629
1223.00,49.640
1224.00,49.627
1225.00,49.628
1226.00,49.618
1227.00,49.634
1228.00,49.629
1229.00,49.647
1230.00,49.640
1231.00,49.635
1232.00,49.668
1233.00,49.665
1234.00,49.666
1235.00,49.651
1236.00,49.654
1237.00,49.636
1238.00,49.653
1239.00,49.655
1240.00,49.674
1241.00,49.680
1242.00,49.675
1243.00,49.689
1244.00,49.686
1245.00,49.684
1246.00,49.690
1247.00,49.679
1248.00,49.681
1249.00,49.692
1250.00,49.670
1251.00,49.692
1252.00,49.695
1253.00,49.679
1254.00,49.694
1255.00,49.704
1256.00,49.673
1257.00,49.686
1258.00,49.669
1259.00,49.675
1260.00,49.728
1261.00,49.708
1262.00,49.735
1263.00,49.724
1264.00,49.720
1265.00,49.724
1266.00,49.727
1267.00,49.744
1268.00,49.744
1269.00,49.719
1270.00,49.761
1271.00,49.753
1272.00,49.764
1273.00,49.762
1274.00,49.795
1275.00,49.791
1276.00,49.793
1277.00,49.781
1278.00,49.802
1279.00,49.796
1280.00,49.783
1281.00,49.801
1282.00,49.797
1283.00,49.800
1284.00,49.821
1285.00,49.792
1286.00,49.793
1287.00,49.815
1288.00,49.792
1289.00,49.805
1290.00,49.832
1291.00,49.831
1292.00,49.818
1293.00,49.805
1294.00,49.812
1295.00,49.866
1296.00,49.841
1297.00,49.853
1298.00,49.847
1299.00,49.853
1300.00,49.854
1301.00,49.839
1302.00,49.852
1303.00,49.872
1304.00,49.847
1305.00,49.866
1306.00,49.879
1307.00,49.896
1308.00,49.886
1309.00,49.898
1310.00,49.911
1311.00,49.907
1312.00,49.914
1313.00,49.903
1314.00,49.966
1315.00,49.940
1316.00,49.925
1317.00,49.954
1318.00,49.972
1319.00,49.948
1320.00,49.971
1321.00,50.126
1322.00,50.147
1323.00,50.134
1324.00,50.138
1325.00,50.117
1326.00,50.149
1327.00,50.116
1328.00,50.133
1329.00,50.113
1330.00,50.124
1331.00,50.125
1332.00,50.123
1333.00,50.165
1334.00,50.150
1335.00,50.140
1336.00,50.177
1337.00,50.200
1338.00,50.245
1339.00,50.285
1340.00,50.337
1341.00,50.396
1342.00,50.470
1343.00,50.519
1344.00,50.595
1345.00,50.640
1346.00,50.665
1347.00,50.733
1348.00,50.723
1349.00,50.737
1350.00,50.776
1351.00,50.760
1352.00,50.793
1353.00,50.854
1354.00,50.824
1355.00,50.811
1356.00,50.827
1357.00,50.812
1358.00,50.843
1359.00,50.832
1360.00,50.800
1361.00,50.819
1362.00,50.885
1363.00,50.861
1364.00,50.931
1365.00,50.841
1366.00,50.896
1367.00,50.857
1368.00,50.802
1369.00,50.834
1370.00,50.848
1371.00,50.849
1372.00,50.854
1373.00,50.792
1374.00,50.816
1375.00,50.807
1376.00,50.788
1377.00,50.824
1378.00,50.799
1379.00,50.930
1380.00,50.965
1381.00,50.633
1382.00,50.701
1383.00,50.988
1384.00,50.764
1385.00,50.725
1386.00,50.835
1387.00,50.751
1388.00,50.676
1389.00,50.726
1390.00,50.809
1391.00,50.826
1392.00,50.752
1393.00,50.769
1394.00,50.824
1395.00,50.722
1396.00,50.859
1397.00,50.815
1398.00,50.851
1399.00,50.862
1400.00,50.714
1401.00,50.793
1402.00,50.907
1403.00,50.856
1404.00,50.749
1405.00,50.804
1406.00,50.789
1407.00,50.859
1408.00,50.817
1409.00,50.828
1410.00,50.783
1411.00,50.832
1412.00,50.878
1413.00,50.853
1414.00,50.829
1415.00,50.877
1416.00,50.905
1417.00,50.909
1418.00,50.916
1419.00,50.891
1420.00,50.937
1421.00,50.934
1422.00,50.989
1423.00,50.978
1424.00,51.007
1425.00,50.991
1426.00,50.995
1427.00,51.042
1428.00,51.019
1429.00,51.040
1430.00,51.071
1431.00,51.073
1432.00,51.084
1433.00,51.109
1434.00,51.105
1435.00,51.142
1436.00,51.156
1437.00,51.126
1438.00,51.159
1439.00,51.193
1440.00,51.180
1441.00,51.233
1442.00,51.247
1443.00,51.254
1444.00,51.253
1445.00,51.265
1446.00,51.264
1447.00,51.289
1448.00,51.285
1449.00,51.339
1450.00,51.321
1451.00,51.356
1452.00,51.374
1453.00,51.392
1454.00,51.395
1455.00,51.419
1456.00,51.449
1457.00,51.462
1458.00,51.448
1459.00,51.467
1460.00,51.476
1461.00,51.468
1462.00,51.513
1463.00,51.523
1464.00,51.497
1465.00,51.534
1466.00,51.522
1467.00,51.544
1468.00,51.603
1469.00,51.589
1470.00,51.599
1471.00,51.635
1472.00,51.635
1473.00,51.641
1474.00,51.678
1475.00,51.684
1476.00,51.708
1477.00,51.699
1478.00,51.709
1479.00,51.736
1480.00,51.716
1481.00,51.733
1482.00,51.759
1483.00,51.752
1484.00,51.790
1485.00,51.813
1486.00,51.815
1487.00,51.831
1488.00,51.839
1489.00,51.854
1490.00,51.853
1491.00,51.860
1492.00,51.851
1493.00,51.880
1494.00,51.888
1495.00,51.898
1496.00,51.897
1497.00,51.917
1498.00,51.920
1499.00,51.957
1500.00,51.967
1501.00, 
1502.00, 
1503.00, 
1504.00, 
1505.00, 
1506.00, 
1507.00, 
1508.00, 
1509.00, 
1510.00, 
1511.00, 
1512.00, 
1513.00, 
1514.00, 
1515.00, 
1516.00, 
1517.00, 
1518.00, 
1519.00, 
1520.00, 
1521.00, 
1522.00, 
1523.00, 
1524.00, 
1525.00, 
1526.00, 
1527.00, 
1528.00, 
1529.00, 
1530.00, 
1531.00, 
1532.00, 
1533.00, 
1534.00, 
1535.00, 
1536.00, 
1537.00, 
1538.00, 
1539.00, 
1540.00, 
1541.00, 
1542.00, 
1543.00, 
1544.00, 
1545.00, 
1546.00, 
1547.00, 
1548.00, 
1549.00, 
1550.00, 
1551.00, 
1552.00, 
1553.00, 
1554.00, 
1555.00, 
1556.00, 
1557.00, 
1558.00, 
1559.00, 
1560.00, 
1561.00, 
1562.00, 
1563.00, 
1564.00, 
1565.00, 
1566.00, 
1567.00, 
1568.00, 
1569.00, 
1570.00, 
1571.00, 
1572.00, 
1573.00, 
1574.00, 
1575.00, 
1576.00, 
1577.00, 
1578.00, 
1579.00, 
1580.00, 
1581.00, 
1582.00, 
1583.00, 
1584.00, 
1585.00, 
1586.00, 
1587.00, 
1588.00, 
1589.00, 
1590.00, 
1591.00, 
1592.00, 
1593.00, 
1594.00, 
1595.00, 
1596.00, 
1597.00, 
1598.00, 
1599.00, 
1600.00, 
1601.00, 
1602.00, 
1603.00, 
1604.00, 
1605.00, 
1606.00, 
1607.00, 
1608.00, 
1609.00, 
1610.00, 
1611.00, 
1612.00, 
1613.00, 
1614.00, 
1615.00, 
1616.00, 
1617.00, 
1618.00, 
1619.00, 
1620.00, 
1621.00, 
1622.00, 
1623.00, 
1624.00, 
1625.00, 
1626.00, 
1627.00, 
1628.00, 
1629.00, 
1630.00, 
1631.00, 
1632.00, 
1633.00, 
1634.00, 
1635.00, 
1636.00, 
1637.00, 
1638.00, 
1639.00, 
1640.00, 
1641.00, 
1642.00, 
1643.00, 
1644.00, 
1645.00, 
1646.00, 
1647.00, 
1648.00, 
1649.00, 
1650.00, 
1651.00, 
1652.00, 
1653.00, 
1654.00, 
1655.00, 
1656.00, 
1657.00, 
1658.00, 
1659.00, 
1660.00, 
1661.00, 
1662.00, 
1663.00, 
1664.00, 
1665.00, 
1666.00, 
1667.00, 
1668.00, 
1669.00, 
1670.00, 
1671.00, 
1672.00, 
1673.00, 
1674.00, 
1675.00, 
1676.00, 
1677.00, 
1678.00, 
1679.00, 
1680.00, 
1681.00, 
1682.00, 
1683.00, 
1684.00, 
1685.00, 
1686.00, 
1687.00, 
1688.00, 
1689.00, 
1690.00, 
1691.00, 
1692.00, 
1693.00, 
1694.00, 
1695.00, 
1696.00, 
1697.00, 
1698.00, 
1699.00, 
1700.00, 
1701.00, 
1702.00, 
1703.00, 
1704.00, 
1705.00, 
1706.00, 
1707.00, 
1708.00, 
1709.00, 
1710.00, 
1711.00, 
1712.00, 
1713.00, 
1714.00, 
1715.00, 
1716.00, 
1717.00, 
1718.00, 
1719.00, 
1720.00, 
1721.00, 
1722.00, 
1723.00, 
1724.00, 
1725.00, 
1726.00, 
1727.00, 
1728.00, 
1729.00, 
1730.00, 
1731.00, 
1732.00, 
1733.00, 
1734.00, 
1735.00, 
1736.00, 
1737.00, 
1738.00, 
1739.00, 
1740.00, 
1741.00, 
1742.00, 
1743.00, 
1744.00, 
1745.00, 
1746.00, 
1747.00, 
1748.00, 
1749.00, 
1750.00, 
1751.00, 
1752.00, 
1753.00, 
1754.00, 
1755.00, 
1756.00, 
1757.00, 
1758.00, 
1759.00, 
1760.00, 
1761.00, 
1762.00, 
1763.00, 
1764.00, 
1765.00, 
1766.00, 
1767.00, 
1768.00, 
1769.00, 
1770.00, 
1771.00, 
1772.00, 
1773.00, 
1774.00, 
1775.00, 
1776.00, 
1777.00, 
1778.00, 
1779.00, 
1780.00, 
1781.00, 
1782.00, 
1783.00, 
1784.00, 
1785.00, 
1786.00, 
1787.00, 
1788.00, 
1789.00, 
1790.00, 
1791.00, 
1792.00, 
1793.00, 
1794.00, 
1795.00, 
1796.00, 
1797.00, 
1798.00, 
1799.00, 
1800.00, 
1801.00, 
1802.00, 
1803.00, 
1804.00, 
1805.00, 
1806.00, 
1807.00, 
1808.00, 
1809.00, 
1810.00, 
1811.00, 
1812.00, 
1813.00, 
1814.00, 
1815.00, 
1816.00, 
1817.00, 
1818.00, 
1819.00, 
1820.00, 
1821.00, 
1822.00, 
1823.00, 
1824.00, 
1825.00, 
1826.00, 
1827.00, 
1828.00, 
1829.00, 
1830.00, 
1831.00, 
1832.00, 
1833.00, 
1834.00, 
1835.00, 
1836.00, 
1837.00, 
1838.00, 
1839.00, 
1840.00, 
1841.00, 
1842.00, 
1843.00, 
1844.00, 
1845.00, 
1846.00, 
1847.00, 
1848.00, 
1849.00, 
1850.00, 
1851.00, 
1852.00, 
1853.00, 
1854.00, 
1855.00, 
1856.00, 
1857.00, 
1858.00, 
1859.00, 
1860.00, 
1861.00, 
1862.00, 
1863.00, 
1864.00, 
1865.00, 
1866.00, 
1867.00, 
1868.00, 
1869.00, 
1870.00, 
1871.00, 
1872.00, 
1873.00, 
1874.00, 
1875.00, 
1876.00, 
1877.00, 
1878.00, 
1879.00, 
1880.00, 
1881.00, 
1882.00, 
1883.00, 
1884.00, 
1885.00, 
1886.00, 
1887.00, 
1888.00, 
1889.00, 
1890.00, 
1891.00, 
1892.00, 
1893.00, 
1894.00, 
1895.00, 
1896.00, 
1897.00, 
1898.00, 
1899.00, 
1900.00, 
1901.00, 
1902.00, 
1903.00, 
1904.00, 
1905.00, 
1906.00, 
1907.00, 
1908.00, 
1909.00, 
1910.00, 
1911.00, 
1912.00, 
1913.00, 
1914.00, 
1915.00, 
1916.00, 
1917.00, 
1918.00, 
1919.00, 
1920.00, 
1921.00, 
1922.00, 
1923.00, 
1924.00, 
1925.00, 
1926.00, 
1927.00, 
1928.00, 
1929.00, 
1930.00, 
1931.00, 
1932.00, 
1933.00, 
1934.00, 
1935.00, 
1936.00, 
1937.00, 
1938.00, 
1939.00, 
1940.00, 
1941.00, 
1942.00, 
1943.00, 
1944.00, 
1945.00, 
1946.00, 
1947.00, 
1948.00, 
1949.00, 
1950.00, 
1951.00, 
1952.00, 
1953.00, 
1954.00, 
1955.00, 
1956.00, 
1957.00, 
1958.00, 
1959.00, 
1960.00, 
1961.00, 
1962.00, 
1963.00, 
1964.00, 
1965.00, 
1966.00, 
1967.00, 
1968.00, 
1969.00, 
1970.00, 
1971.00, 
1972.00, 
1973.00, 
1974.00, 
1975.00, 
1976.00, 
1977.00, 
1978.00, 
1979.00, 
1980.00, 
1981.00, 
1982.00, 
1983.00, 
1984.00, 
1985.00, 
1986.00, 
1987.00, 
1988.00, 
1989.00, 
1990.00, 
1991.00, 
1992.00, 
1993.00, 
1994.00, 
1995.00, 
1996.00, 
1997.00, 
1998.00, 
1999.00, 
2000.00, 
2001.00, 
2002.00, 
2003.00, 
2004.00, 
2005.00, 
2006.00, 
2007.00, 
2008.00, 
2009.00, 
2010.00, 
2011.00, 
2012.00, 
2013.00, 
2014.00, 
2015.00, 
2016.00, 
2017.00, 
2018.00, 
2019.00, 
2020.00, 
2021.00, 
2022.00, 
2023.00, 
2024.00, 
2025.00, 
2026.00, 
2027.00, 
2028.00, 
2029.00, 
2030.00, 
2031.00, 
2032.00, 
2033.00, 
2034.00, 
2035.00, 
2036.00, 
2037.00, 
2038.00, 
2039.00, 
2040.00, 
2041.00, 
2042.00, 
2043.00, 
2044.00, 
2045.00, 
2046.00, 
2047.00, 
2048.00, 
2049.00, 
2050.00, 
2051.00, 
2052.00, 
2053.00, 
2054.00, 
2055.00, 
2056.00, 
2057.00, 
2058.00, 
2059.00, 
2060.00, 
2061.00, 
2062.00, 
2063.00, 
2064.00, 
2065.00, 
2066.00, 
2067.00, 
2068.00, 
2069.00, 
2070.00, 
2071.00, 
2072.00, 
2073.00, 
2074.00, 
2075.00, 
2076.00, 
2077.00, 
2078.00, 
2079.00, 
2080.00, 
2081.00, 
2082.00, 
2083.00, 
2084.00, 
2085.00, 
2086.00, 
2087.00, 
2088.00, 
2089.00, 
2090.00, 
2091.00, 
2092.00, 
2093.00, 
2094.00, 
2095.00, 
2096.00, 
2097.00, 
2098.00, 
2099.00, 
2100.00, 
2101.00, 
2102.00, 
2103.00, 
2104.00, 
2105.00, 
2106.00, 
2107.00, 
2108.00, 
2109.00, 
2110.00, 
2111.00, 
2112.00, 
2113.00, 
2114.00, 
2115.00, 
2116.00, 
2117.00, 
2118.00, 
2119.00, 
2120.00, 
2121.00, 
2122.00, 
2123.00, 
2124.00, 
2125.00, 
2126.00, 
2127.00, 
2128.00, 
2129.00, 
2130.00, 
2131.00, 
2132.00, 
2133.00, 
2134.00, 
2135.00, 
2136.00, 
2137.00, 
2138.00, 
2139.00, 
2140.00, 
2141.00, 
2142.00, 
2143.00, 
2144.00, 
2145.00, 
2146.00, 
2147.00, 
2148.00, 
2149.00, 
2150.00, 
2151.00, 
2152.00, 
2153.00, 
2154.00, 
2155.00, 
2156.00, 
2157.00, 
2158.00, 
2159.00, 
2160.00, 
2161.00, 
2162.00, 
2163.00, 
2164.00, 
2165.00, 
2166.00, 
2167.00, 
2168.00, 
2169.00, 
2170.00, 
2171.00, 
2172.00, 
2173.00, 
2174.00, 
2175.00, 
2176.00, 
2177.00, 
2178.00, 
2179.00, 
2180.00, 
2181.00, 
2182.00, 
2183.00, 
2184.00, 
2185.00, 
2186.00, 
2187.00, 
2188.00, 
2189.00, 
2190.00, 
2191.00, 
2192.00, 
2193.00, 
2194.00, 
2195.00, 
2196.00, 
2197.00, 
2198.00, 
2199.00, 
2200.00, 
2201.00, 
2202.00, 
2203.00, 
2204.00, 
2205.00, 
2206.00, 
2207.00, 
2208.00, 
2209.00, 
2210.00, 
2211.00, 
2212.00, 
2213.00, 
2214.00, 
2215.00, 
2216.00, 
2217.00, 
2218.00, 
2219.00, 
2220.00, 
2221.00, 
2222.00, 
2223.00, 
2224.00, 
2225.00, 
2226.00, 
2227.00, 
2228.00, 
2229.00, 
2230.00, 
2231.00, 
2232.00, 
2233.00, 
2234.00, 
2235.00, 
2236.00, 
2237.00, 
2238.00, 
2239.00, 
2240.00, 
2241.00, 
2242.00, 
2243.00, 
2244.00, 
2245.00, 
2246.00, 
2247.00, 
2248.00, 
2249.00, 
2250.00, 
2251.00, 
2252.00, 
2253.00, 
2254.00, 
2255.00, 
2256.00, 
2257.00, 
2258.00, 
2259.00, 
2260.00, 
2261.00, 
2262.00, 
2263.00, 
2264.00, 
2265.00, 
2266.00, 
2267.00, 
2268.00, 
2269.00, 
2270.00, 
2271.00, 
2272.00, 
2273.00, 
2274.00, 
2275.00, 
2276.00, 
2277.00, 
2278.00, 
2279.00, 
2280.00, 
2281.00, 
2282.00, 
2283.00, 
2284.00, 
2285.00, 
2286.00, 
2287.00, 
2288.00, 
2289.00, 
2290.00, 
2291.00, 
2292.00, 
2293.00, 
2294.00, 
2295.00, 
2296.00, 
2297.00, 
2298.00, 
2299.00, 
2300.00, 
2301.00, 
2302.00, 
2303.00, 
2304.00, 
2305.00, 
2306.00, 
2307.00, 
2308.00, 
2309.00, 
2310.00, 
2311.00, 
2312.00, 
2313.00, 
2314.00, 
2315.00, 
2316.00, 
2317.00, 
2318.00, 
2319.00, 
2320.00, 
2321.00, 
2322.00, 
2323.00, 
2324.00, 
2325.00, 
2326.00, 
2327.00, 
2328.00, 
2329.00, 
2330.00, 
2331.00, 
2332.00, 
2333.00, 
2334.00, 
2335.00, 
2336.00, 
2337.00, 
2338.00, 
2339.00, 
2340.00, 
2341.00, 
2342.00, 
2343.00, 
2344.00, 
2345.00, 
2346.00, 
2347.00, 
2348.00, 
2349.00, 
2350.00, 
2351.00, 
2352.00, 
2353.00, 
2354.00, 
2355.00, 
2356.00, 
2357.00, 
2358.00, 
2359.00, 
2360.00, 
2361.00, 
2362.00, 
2363.00, 
2364.00, 
2365.00, 
2366.00, 
2367.00, 
2368.00, 
2369.00, 
2370.00, 
2371.00, 
2372.00, 
2373.00, 
2374.00, 
2375.00, 
2376.00, 
2377.00, 
2378.00, 
2379.00, 
2380.00, 
2381.00, 
2382.00, 
2383.00, 
2384.00, 
2385.00, 
2386.00, 
2387.00, 
2388.00, 
2389.00, 
2390.00, 
2391.00, 
2392.00, 
2393.00, 
2394.00, 
2395.00, 
2396.00, 
2397.00, 
2398.00, 
2399.00, 
2400.00, 
2401.00, 
2402.00, 
2403.00, 
2404.00, 
2405.00, 
2406.00, 
2407.00, 
2408.00, 
2409.00, 
2410.00, 
2411.00, 
2412.00, 
2413.00, 
2414.00, 
2415.00, 
2416.00, 
2417.00, 
2418.00, 
2419.00, 
2420.00, 
2421.00, 
2422.00, 
2423.00, 
2424.00, 
2425.00, 
2426.00, 
2427.00, 
2428.00, 
2429.00, 
2430.00, 
2431.00, 
2432.00, 
2433.00, 
2434.00, 
2435.00, 
2436.00, 
2437.00, 
2438.00, 
2439.00, 
2440.00, 
2441.00, 
2442.00, 
2443.00, 
2444.00, 
2445.00, 
2446.00, 
2447.00, 
2448.00, 
2449.00, 
2450.00, 
2451.00, 
2452.00, 
2453.00, 
2454.00, 
2455.00, 
2456.00, 
2457.00, 
2458.00, 
2459.00, 
2460.00, 
2461.00, 
2462.00, 
2463.00, 
2464.00, 
2465.00, 
2466.00, 
2467.00, 
2468.00, 
2469.00, 
2470.00, 
2471.00, 
2472.00, 
2473.00, 
2474.00, 
2475.00, 
2476.00, 
2477.00, 
2478.00, 
2479.00, 
2480.00, 
2481.00, 
2482.00, 
2483.00, 
2484.00, 
2485.00, 
2486.00, 
2487.00, 
2488.00, 
2489.00, 
2490.00, 
2491.00, 
2492.00, 
2493.00, 
2494.00, 
2495.00, 
2496.00, 
2497.00, 
2498.00, 
2499.00, 
2500.00, 
2501.00, 
2502.00, 
2503.00, 
2504.00, 
2505.00, 
2506.00, 
2507.00, 
2508.00, 
2509.00, 
2510.00, 
2511.00, 
2512.00, 
2513.00, 
2514.00, 
2515.00, 
2516.00, 
2517.00, 
2518.00, 
2519.00, 
2520.00, 
2521.00, 
2522.00, 
2523.00, 
2524.00, 
2525.00, 
2526.00, 
2527.00, 
2528.00, 
2529.00, 
2530.00, 
2531.00, 
2532.00, 
2533.00, 
2534.00, 
2535.00, 
2536.00, 
2537.00, 
2538.00, 
2539.00, 
2540.00, 
2541.00, 
2542.00, 
2543.00, 
2544.00, 
2545.00, 
2546.00, 
2547.00, 
2548.00, 
2549.00, 
2550.00, 
2551.00, 
2552.00, 
2553.00, 
2554.00, 
2555.00, 
2556.00, 
2557.00, 
2558.00, 
2559.00, 
2560.00, 
2561.00, 
2562.00, 
2563.00, 
2564.00, 
2565.00, 
2566.00, 
2567.00, 
2568.00, 
2569.00, 
2570.00, 
2571.00, 
2572.00, 
2573.00, 
2574.00, 
2575.00, 
2576.00, 
2577.00, 
2578.00, 
2579.00, 
2580.00, 
2581.00, 
2582.00, 
2583.00, 
2584.00, 
2585.00, 
2586.00, 
2587.00, 
2588.00, 
2589.00, 
2590.00, 
2591.00, 
2592.00, 
2593.00, 
2594.00, 
2595.00, 
2596.00, 
2597.00, 
2598.00, 
2599.00, 
2600.00, 
