"2cP2 - RawData"
"Wavelength nm.","T%"
200.00,0.001
201.00,0.000
202.00,0.002
203.00,-0.001
204.00,0.000
205.00,0.002
206.00,0.002
207.00,0.001
208.00,0.000
209.00,0.002
210.00,0.001
211.00,0.000
212.00,0.000
213.00,-0.001
214.00,0.002
215.00,0.000
216.00,0.000
217.00,0.002
218.00,0.003
219.00,0.001
220.00,0.000
221.00,0.001
222.00,0.000
223.00,0.002
224.00,0.002
225.00,0.002
226.00,0.002
227.00,-0.001
228.00,0.002
229.00,0.001
230.00,0.002
231.00,-0.001
232.00,-0.000
233.00,-0.000
234.00,-0.000
235.00,0.001
236.00,0.001
237.00,-0.001
238.00,0.002
239.00,0.000
240.00,-0.001
241.00,0.001
242.00,0.001
243.00,0.003
244.00,-0.000
245.00,-0.002
246.00,0.000
247.00,0.001
248.00,-0.000
249.00,0.001
250.00,0.001
251.00,0.001
252.00,-0.001
253.00,0.001
254.00,-0.000
255.00,-0.000
256.00,0.001
257.00,0.001
258.00,0.000
259.00,-0.000
260.00,0.001
261.00,0.001
262.00,0.001
263.00,-0.001
264.00,0.000
265.00,-0.001
266.00,0.001
267.00,-0.000
268.00,0.001
269.00,0.000
270.00,0.001
271.00,0.000
272.00,-0.001
273.00,0.000
274.00,-0.001
275.00,0.001
276.00,-0.001
277.00,-0.000
278.00,0.000
279.00,-0.000
280.00,0.001
281.00,-0.001
282.00,0.000
283.00,-0.000
284.00,-0.001
285.00,0.001
286.00,0.001
287.00,-0.001
288.00,0.000
289.00,-0.002
290.00,-0.002
291.00,0.001
292.00,0.001
293.00,0.002
294.00,-0.001
295.00,-0.001
296.00,0.000
297.00,0.000
298.00,0.003
299.00,0.001
300.00,0.003
301.00,0.005
302.00,0.007
303.00,0.010
304.00,0.017
305.00,0.028
306.00,0.043
307.00,0.064
308.00,0.101
309.00,0.149
310.00,0.213
311.00,0.297
312.00,0.402
313.00,0.537
314.00,0.709
315.00,0.920
316.00,1.158
317.00,1.468
318.00,1.817
319.00,2.226
320.00,2.708
321.00,3.218
322.00,3.799
323.00,4.469
324.00,5.174
325.00,5.892
326.00,6.598
327.00,7.485
328.00,8.374
329.00,9.131
330.00,10.123
331.00,11.078
332.00,11.998
333.00,13.038
334.00,13.922
335.00,14.867
336.00,15.842
337.00,16.801
338.00,17.768
339.00,18.692
340.00,19.568
341.00,20.521
342.00,21.251
343.00,22.067
344.00,22.806
345.00,23.545
346.00,24.284
347.00,24.955
348.00,25.576
349.00,26.189
350.00,26.777
351.00,27.256
352.00,27.760
353.00,28.279
354.00,28.701
355.00,29.150
356.00,29.466
357.00,29.942
358.00,30.317
359.00,30.646
360.00,30.914
361.00,31.199
362.00,31.380
363.00,31.718
364.00,31.897
365.00,32.093
366.00,32.293
367.00,32.395
368.00,32.586
369.00,32.651
370.00,32.767
371.00,32.837
372.00,32.842
373.00,32.954
374.00,32.943
375.00,32.933
376.00,32.916
377.00,32.917
378.00,32.890
379.00,32.891
380.00,32.763
381.00,32.826
382.00,32.907
383.00,32.960
384.00,32.993
385.00,33.140
386.00,33.169
387.00,33.237
388.00,33.290
389.00,33.380
390.00,33.448
391.00,33.478
392.00,33.594
393.00,33.579
394.00,33.574
395.00,33.643
396.00,33.663
397.00,33.680
398.00,33.698
399.00,33.680
400.00,33.738
401.00,33.734
402.00,33.701
403.00,33.720
404.00,33.715
405.00,33.684
406.00,33.680
407.00,33.619
408.00,33.625
409.00,33.558
410.00,33.475
411.00,33.405
412.00,33.429
413.00,33.484
414.00,33.423
415.00,33.465
416.00,33.458
417.00,33.431
418.00,33.474
419.00,33.490
420.00,33.482
421.00,33.573
422.00,33.633
423.00,33.584
424.00,33.659
425.00,33.657
426.00,33.663
427.00,33.724
428.00,33.759
429.00,33.779
430.00,33.807
431.00,33.878
432.00,33.881
433.00,33.917
434.00,33.859
435.00,33.960
436.00,34.025
437.00,34.070
438.00,34.075
439.00,34.075
440.00,34.212
441.00,34.258
442.00,34.335
443.00,34.363
444.00,34.473
445.00,34.493
446.00,34.572
447.00,34.611
448.00,34.708
449.00,34.758
450.00,34.859
451.00,34.958
452.00,35.025
453.00,35.106
454.00,35.057
455.00,35.271
456.00,35.292
457.00,35.448
458.00,35.513
459.00,35.567
460.00,35.650
461.00,35.781
462.00,35.872
463.00,35.934
464.00,36.014
465.00,36.126
466.00,36.205
467.00,36.267
468.00,36.330
469.00,36.460
470.00,36.499
471.00,36.609
472.00,36.662
473.00,36.725
474.00,36.824
475.00,36.949
476.00,37.007
477.00,37.098
478.00,37.210
479.00,37.314
480.00,37.408
481.00,37.554
482.00,37.657
483.00,37.809
484.00,37.873
485.00,38.042
486.00,38.087
487.00,38.217
488.00,38.333
489.00,38.405
490.00,38.487
491.00,38.638
492.00,38.703
493.00,38.881
494.00,39.001
495.00,39.015
496.00,39.035
497.00,39.156
498.00,39.297
499.00,39.364
500.00,39.422
501.00,39.480
502.00,39.615
503.00,39.713
504.00,39.789
505.00,39.856
506.00,39.950
507.00,40.040
508.00,40.166
509.00,40.231
510.00,40.349
511.00,40.339
512.00,40.406
513.00,40.602
514.00,40.737
515.00,40.769
516.00,40.878
517.00,40.940
518.00,41.044
519.00,41.105
520.00,41.232
521.00,41.257
522.00,41.313
523.00,41.482
524.00,41.470
525.00,41.600
526.00,41.598
527.00,41.675
528.00,41.707
529.00,41.825
530.00,41.919
531.00,41.950
532.00,42.063
533.00,42.139
534.00,42.145
535.00,42.252
536.00,42.368
537.00,42.382
538.00,42.428
539.00,42.521
540.00,42.511
541.00,42.658
542.00,42.681
543.00,42.792
544.00,42.746
545.00,42.846
546.00,42.967
547.00,42.966
548.00,43.016
549.00,43.103
550.00,43.129
551.00,43.129
552.00,43.240
553.00,43.312
554.00,43.334
555.00,43.383
556.00,43.413
557.00,43.545
558.00,43.546
559.00,43.643
560.00,43.665
561.00,43.697
562.00,43.762
563.00,43.741
564.00,43.847
565.00,43.918
566.00,43.882
567.00,43.916
568.00,43.959
569.00,44.003
570.00,44.007
571.00,44.029
572.00,44.075
573.00,44.041
574.00,44.109
575.00,44.197
576.00,44.207
577.00,44.224
578.00,44.309
579.00,44.458
580.00,44.396
581.00,44.500
582.00,44.613
583.00,44.605
584.00,44.672
585.00,44.774
586.00,44.793
587.00,44.867
588.00,44.946
589.00,44.969
590.00,45.018
591.00,45.060
592.00,45.044
593.00,45.050
594.00,45.099
595.00,45.078
596.00,45.161
597.00,45.179
598.00,45.206
599.00,45.297
600.00,45.346
601.00,45.336
602.00,45.434
603.00,45.402
604.00,45.497
605.00,45.454
606.00,45.447
607.00,45.601
608.00,45.581
609.00,45.622
610.00,45.760
611.00,45.641
612.00,45.665
613.00,45.703
614.00,45.749
615.00,45.711
616.00,45.828
617.00,45.791
618.00,45.865
619.00,45.922
620.00,45.944
621.00,45.959
622.00,45.948
623.00,45.992
624.00,46.083
625.00,46.122
626.00,46.162
627.00,46.199
628.00,46.267
629.00,46.278
630.00,46.320
631.00,46.275
632.00,46.396
633.00,46.362
634.00,46.392
635.00,46.499
636.00,46.517
637.00,46.636
638.00,46.647
639.00,46.668
640.00,46.733
641.00,46.790
642.00,46.808
643.00,46.838
644.00,46.844
645.00,46.910
646.00,46.971
647.00,46.980
648.00,47.107
649.00,47.006
650.00,47.104
651.00,47.137
652.00,47.179
653.00,47.350
654.00,47.282
655.00,47.242
656.00,47.306
657.00,47.508
658.00,47.486
659.00,47.355
660.00,47.463
661.00,47.615
662.00,47.677
663.00,47.612
664.00,47.715
665.00,47.928
666.00,47.822
667.00,47.958
668.00,47.900
669.00,48.110
670.00,48.122
671.00,47.956
672.00,47.938
673.00,48.135
674.00,48.156
675.00,48.180
676.00,48.249
677.00,48.373
678.00,48.296
679.00,48.438
680.00,48.457
681.00,48.373
682.00,48.556
683.00,48.503
684.00,48.455
685.00,48.762
686.00,48.686
687.00,48.557
688.00,48.742
689.00,48.748
690.00,48.748
691.00,48.956
692.00,48.835
693.00,48.831
694.00,48.901
695.00,49.000
696.00,48.913
697.00,49.019
698.00,48.997
699.00,49.046
700.00,49.432
701.00,49.351
702.00,49.197
703.00,49.345
704.00,49.529
705.00,49.325
706.00,49.405
707.00,49.538
708.00,49.487
709.00,49.394
710.00,49.521
711.00,49.436
712.00,49.549
713.00,49.546
714.00,49.551
715.00,49.624
716.00,49.623
717.00,49.619
718.00,49.703
719.00,49.731
720.00,49.635
721.00,54.577
722.00,54.558
723.00,54.509
724.00,54.520
725.00,54.459
726.00,54.459
727.00,54.453
728.00,54.362
729.00,54.424
730.00,54.340
731.00,54.341
732.00,54.307
733.00,54.276
734.00,54.257
735.00,54.252
736.00,54.281
737.00,54.272
738.00,54.307
739.00,54.313
740.00,54.255
741.00,54.281
742.00,54.230
743.00,54.204
744.00,54.103
745.00,54.187
746.00,54.075
747.00,54.096
748.00,54.030
749.00,54.090
750.00,53.997
751.00,54.036
752.00,54.031
753.00,53.900
754.00,53.919
755.00,53.893
756.00,53.811
757.00,53.889
758.00,53.792
759.00,53.792
760.00,53.837
761.00,53.730
762.00,53.738
763.00,53.735
764.00,53.695
765.00,53.676
766.00,53.741
767.00,53.698
768.00,53.693
769.00,53.690
770.00,53.624
771.00,53.586
772.00,53.651
773.00,53.606
774.00,53.633
775.00,53.581
776.00,53.534
777.00,53.516
778.00,53.514
779.00,53.548
780.00,53.500
781.00,53.425
782.00,53.456
783.00,53.416
784.00,53.429
785.00,53.393
786.00,53.356
787.00,53.389
788.00,53.301
789.00,53.245
790.00,53.300
791.00,53.275
792.00,53.292
793.00,53.270
794.00,53.158
795.00,53.173
796.00,53.100
797.00,53.041
798.00,53.075
799.00,53.014
800.00,52.979
801.00,52.953
802.00,52.916
803.00,52.959
804.00,52.831
805.00,52.818
806.00,52.815
807.00,52.803
808.00,52.823
809.00,52.741
810.00,52.777
811.00,52.622
812.00,52.696
813.00,52.611
814.00,52.637
815.00,52.666
816.00,52.693
817.00,52.643
818.00,52.479
819.00,52.535
820.00,52.494
821.00,52.552
822.00,52.457
823.00,52.491
824.00,52.393
825.00,52.346
826.00,52.476
827.00,52.321
828.00,52.300
829.00,52.220
830.00,52.277
831.00,54.656
832.00,54.538
833.00,54.578
834.00,54.557
835.00,54.544
836.00,54.543
837.00,54.499
838.00,54.467
839.00,54.387
840.00,54.378
841.00,54.362
842.00,54.334
843.00,54.327
844.00,54.286
845.00,54.240
846.00,54.239
847.00,54.202
848.00,54.172
849.00,54.139
850.00,54.071
851.00,54.058
852.00,54.013
853.00,53.928
854.00,53.904
855.00,53.880
856.00,53.847
857.00,53.803
858.00,53.840
859.00,53.775
860.00,53.762
861.00,53.763
862.00,53.725
863.00,53.655
864.00,53.683
865.00,53.654
866.00,53.568
867.00,53.565
868.00,53.678
869.00,53.635
870.00,53.554
871.00,53.549
872.00,53.519
873.00,53.540
874.00,53.497
875.00,53.503
876.00,53.479
877.00,53.507
878.00,53.423
879.00,53.429
880.00,53.400
881.00,53.378
882.00,53.407
883.00,53.329
884.00,53.302
885.00,53.263
886.00,53.238
887.00,53.216
888.00,53.227
889.00,53.227
890.00,53.177
891.00,53.145
892.00,53.148
893.00,53.118
894.00,53.084
895.00,52.985
896.00,53.057
897.00,53.051
898.00,53.006
899.00,53.007
900.00,52.978
901.00,53.011
902.00,53.003
903.00,52.967
904.00,52.937
905.00,52.890
906.00,52.901
907.00,52.877
908.00,52.833
909.00,52.797
910.00,52.773
911.00,52.763
912.00,52.751
913.00,52.742
914.00,52.738
915.00,52.676
916.00,52.640
917.00,52.611
918.00,52.619
919.00,52.566
920.00,52.568
921.00,52.528
922.00,52.585
923.00,52.489
924.00,52.497
925.00,52.475
926.00,52.456
927.00,52.413
928.00,52.438
929.00,52.357
930.00,52.339
931.00,52.324
932.00,52.285
933.00,52.283
934.00,52.274
935.00,52.264
936.00,52.210
937.00,52.165
938.00,52.180
939.00,52.167
940.00,52.173
941.00,52.137
942.00,52.114
943.00,52.107
944.00,52.032
945.00,52.068
946.00,52.036
947.00,52.051
948.00,52.002
949.00,51.983
950.00,51.955
951.00,51.942
952.00,51.920
953.00,51.916
954.00,51.860
955.00,51.825
956.00,51.794
957.00,51.771
958.00,51.750
959.00,51.738
960.00,51.701
961.00,51.682
962.00,51.678
963.00,51.630
964.00,51.636
965.00,51.622
966.00,51.611
967.00,51.575
968.00,51.627
969.00,51.566
970.00,51.577
971.00,51.581
972.00,51.543
973.00,51.585
974.00,51.556
975.00,51.564
976.00,51.554
977.00,51.567
978.00,51.585
979.00,51.560
980.00,51.565
981.00,51.547
982.00,51.548
983.00,51.555
984.00,51.541
985.00,51.535
986.00,51.545
987.00,51.553
988.00,51.506
989.00,51.522
990.00,51.504
991.00,51.474
992.00,51.474
993.00,51.461
994.00,51.444
995.00,51.438
996.00,51.437
997.00,51.385
998.00,51.412
999.00,51.389
1000.00,51.383
1001.00,51.378
1002.00,51.326
1003.00,51.348
1004.00,51.302
1005.00,51.284
1006.00,51.278
1007.00,51.270
1008.00,51.258
1009.00,51.243
1010.00,51.241
1011.00,51.210
1012.00,51.216
1013.00,51.181
1014.00,51.168
1015.00,51.172
1016.00,51.131
1017.00,51.134
1018.00,51.108
1019.00,51.117
1020.00,51.090
1021.00,51.075
1022.00,51.062
1023.00,51.048
1024.00,51.005
1025.00,50.993
1026.00,51.021
1027.00,50.952
1028.00,50.964
1029.00,50.965
1030.00,50.925
1031.00,50.942
1032.00,50.899
1033.00,50.898
1034.00,50.886
1035.00,50.829
1036.00,50.797
1037.00,50.799
1038.00,50.761
1039.00,50.749
1040.00,50.711
1041.00,50.700
1042.00,50.692
1043.00,50.671
1044.00,50.682
1045.00,50.646
1046.00,50.638
1047.00,50.639
1048.00,50.674
1049.00,50.657
1050.00,50.686
1051.00,50.679
1052.00,50.714
1053.00,50.701
1054.00,50.711
1055.00,50.708
1056.00,50.726
1057.00,50.722
1058.00,50.732
1059.00,50.730
1060.00,50.729
1061.00,50.732
1062.00,50.689
1063.00,50.694
1064.00,50.705
1065.00,50.710
1066.00,50.673
1067.00,50.692
1068.00,50.681
1069.00,50.667
1070.00,50.640
1071.00,50.631
1072.00,50.628
1073.00,50.610
1074.00,50.612
1075.00,50.615
1076.00,50.617
1077.00,50.602
1078.00,50.585
1079.00,50.555
1080.00,50.568
1081.00,50.560
1082.00,50.560
1083.00,50.543
1084.00,50.540
1085.00,50.505
1086.00,50.529
1087.00,50.492
1088.00,50.487
1089.00,50.488
1090.00,50.469
1091.00,50.442
1092.00,50.461
1093.00,50.419
1094.00,50.420
1095.00,50.396
1096.00,50.403
1097.00,50.404
1098.00,50.387
1099.00,50.377
1100.00,50.383
1101.00,50.351
1102.00,50.354
1103.00,50.332
1104.00,50.349
1105.00,50.342
1106.00,50.313
1107.00,50.298
1108.00,50.311
1109.00,50.282
1110.00,50.289
1111.00,50.274
1112.00,50.257
1113.00,50.239
1114.00,50.241
1115.00,50.227
1116.00,50.236
1117.00,50.209
1118.00,50.209
1119.00,50.211
1120.00,50.201
1121.00,50.177
1122.00,50.190
1123.00,50.156
1124.00,50.166
1125.00,50.160
1126.00,50.164
1127.00,50.165
1128.00,50.172
1129.00,50.145
1130.00,50.147
1131.00,50.116
1132.00,50.125
1133.00,50.118
1134.00,50.099
1135.00,50.087
1136.00,50.113
1137.00,50.076
1138.00,50.071
1139.00,50.069
1140.00,50.070
1141.00,50.074
1142.00,50.062
1143.00,50.049
1144.00,50.043
1145.00,50.026
1146.00,50.020
1147.00,50.032
1148.00,50.037
1149.00,50.027
1150.00,50.020
1151.00,50.015
1152.00,50.031
1153.00,50.004
1154.00,50.004
1155.00,49.995
1156.00,49.981
1157.00,49.981
1158.00,49.974
1159.00,49.967
1160.00,49.968
1161.00,49.972
1162.00,49.955
1163.00,49.976
1164.00,49.946
1165.00,49.949
1166.00,49.943
1167.00,49.927
1168.00,49.941
1169.00,49.941
1170.00,49.937
1171.00,49.934
1172.00,49.925
1173.00,49.917
1174.00,49.946
1175.00,49.939
1176.00,49.934
1177.00,49.922
1178.00,49.921
1179.00,49.932
1180.00,49.941
1181.00,49.936
1182.00,49.931
1183.00,49.915
1184.00,49.916
1185.00,49.933
1186.00,49.916
1187.00,49.913
1188.00,49.896
1189.00,49.904
1190.00,49.885
1191.00,49.900
1192.00,49.876
1193.00,49.901
1194.00,49.893
1195.00,49.877
1196.00,49.923
1197.00,49.917
1198.00,49.899
1199.00,49.875
1200.00,49.865
1201.00,49.893
1202.00,49.895
1203.00,49.889
1204.00,49.888
1205.00,49.893
1206.00,49.876
1207.00,49.887
1208.00,49.861
1209.00,49.885
1210.00,49.874
1211.00,49.874
1212.00,49.874
1213.00,49.859
1214.00,49.862
1215.00,49.855
1216.00,49.862
1217.00,49.846
1218.00,49.859
1219.00,49.844
1220.00,49.831
1221.00,49.852
1222.00,49.852
1223.00,49.852
1224.00,49.859
1225.00,49.879
1226.00,49.842
1227.00,49.879
1228.00,49.886
1229.00,49.878
1230.00,49.877
1231.00,49.881
1232.00,49.917
1233.00,49.903
1234.00,49.911
1235.00,49.893
1236.00,49.894
1237.00,49.876
1238.00,49.901
1239.00,49.883
1240.00,49.892
1241.00,49.879
1242.00,49.888
1243.00,49.906
1244.00,49.881
1245.00,49.911
1246.00,49.906
1247.00,49.910
1248.00,49.912
1249.00,49.920
1250.00,49.912
1251.00,49.946
1252.00,49.935
1253.00,49.903
1254.00,49.934
1255.00,49.963
1256.00,49.911
1257.00,49.960
1258.00,49.954
1259.00,49.945
1260.00,49.955
1261.00,49.935
1262.00,49.972
1263.00,49.934
1264.00,49.943
1265.00,49.952
1266.00,49.938
1267.00,49.962
1268.00,49.988
1269.00,49.973
1270.00,50.011
1271.00,49.995
1272.00,49.990
1273.00,49.994
1274.00,49.999
1275.00,49.990
1276.00,50.002
1277.00,49.987
1278.00,50.025
1279.00,50.006
1280.00,50.004
1281.00,50.025
1282.00,50.045
1283.00,50.033
1284.00,50.058
1285.00,50.034
1286.00,49.998
1287.00,50.031
1288.00,50.014
1289.00,49.999
1290.00,50.028
1291.00,50.037
1292.00,50.047
1293.00,50.028
1294.00,50.042
1295.00,50.101
1296.00,50.054
1297.00,50.088
1298.00,50.096
1299.00,50.099
1300.00,50.103
1301.00,50.105
1302.00,50.132
1303.00,50.126
1304.00,50.102
1305.00,50.125
1306.00,50.139
1307.00,50.138
1308.00,50.131
1309.00,50.163
1310.00,50.155
1311.00,50.151
1312.00,50.163
1313.00,50.158
1314.00,50.201
1315.00,50.174
1316.00,50.165
1317.00,50.203
1318.00,50.203
1319.00,50.196
1320.00,50.217
1321.00,50.329
1322.00,50.365
1323.00,50.336
1324.00,50.317
1325.00,50.331
1326.00,50.368
1327.00,50.330
1328.00,50.345
1329.00,50.327
1330.00,50.336
1331.00,50.348
1332.00,50.335
1333.00,50.342
1334.00,50.339
1335.00,50.339
1336.00,50.376
1337.00,50.417
1338.00,50.473
1339.00,50.516
1340.00,50.555
1341.00,50.636
1342.00,50.728
1343.00,50.735
1344.00,50.798
1345.00,50.873
1346.00,50.889
1347.00,50.957
1348.00,50.941
1349.00,51.004
1350.00,50.995
1351.00,51.008
1352.00,51.035
1353.00,51.098
1354.00,51.076
1355.00,51.057
1356.00,51.017
1357.00,51.012
1358.00,51.069
1359.00,51.076
1360.00,51.055
1361.00,51.106
1362.00,50.924
1363.00,51.097
1364.00,51.169
1365.00,51.083
1366.00,51.117
1367.00,51.064
1368.00,50.998
1369.00,51.057
1370.00,51.081
1371.00,51.102
1372.00,51.081
1373.00,51.032
1374.00,51.036
1375.00,51.100
1376.00,51.009
1377.00,51.078
1378.00,51.062
1379.00,51.025
1380.00,51.053
1381.00,51.051
1382.00,50.993
1383.00,51.184
1384.00,51.003
1385.00,50.976
1386.00,51.103
1387.00,51.030
1388.00,50.938
1389.00,50.976
1390.00,51.095
1391.00,51.091
1392.00,50.921
1393.00,51.046
1394.00,51.084
1395.00,50.985
1396.00,50.996
1397.00,51.041
1398.00,51.057
1399.00,51.037
1400.00,50.973
1401.00,51.010
1402.00,51.126
1403.00,51.080
1404.00,50.964
1405.00,51.038
1406.00,51.050
1407.00,51.087
1408.00,51.100
1409.00,51.069
1410.00,51.078
1411.00,51.104
1412.00,51.133
1413.00,51.130
1414.00,51.081
1415.00,51.112
1416.00,51.141
1417.00,51.134
1418.00,51.146
1419.00,51.121
1420.00,51.151
1421.00,51.152
1422.00,51.237
1423.00,51.222
1424.00,51.258
1425.00,51.224
1426.00,51.262
1427.00,51.292
1428.00,51.262
1429.00,51.287
1430.00,51.360
1431.00,51.308
1432.00,51.318
1433.00,51.357
1434.00,51.344
1435.00,51.380
1436.00,51.396
1437.00,51.400
1438.00,51.401
1439.00,51.423
1440.00,51.442
1441.00,51.479
1442.00,51.447
1443.00,51.498
1444.00,51.506
1445.00,51.497
1446.00,51.515
1447.00,51.553
1448.00,51.558
1449.00,51.612
1450.00,51.566
1451.00,51.603
1452.00,51.624
1453.00,51.632
1454.00,51.644
1455.00,51.667
1456.00,51.658
1457.00,51.700
1458.00,51.683
1459.00,51.707
1460.00,51.727
1461.00,51.735
1462.00,51.766
1463.00,51.800
1464.00,51.766
1465.00,51.789
1466.00,51.787
1467.00,51.803
1468.00,51.847
1469.00,51.843
1470.00,51.860
1471.00,51.882
1472.00,51.868
1473.00,51.893
1474.00,51.936
1475.00,51.919
1476.00,51.942
1477.00,51.941
1478.00,51.944
1479.00,51.971
1480.00,51.968
1481.00,51.984
1482.00,51.988
1483.00,51.984
1484.00,52.023
1485.00,52.055
1486.00,52.027
1487.00,52.069
1488.00,52.081
1489.00,52.074
1490.00,52.082
1491.00,52.102
1492.00,52.110
1493.00,52.148
1494.00,52.144
1495.00,52.168
1496.00,52.172
1497.00,52.166
1498.00,52.165
1499.00,52.198
1500.00,52.198
1501.00, 
1502.00, 
1503.00, 
1504.00, 
1505.00, 
1506.00, 
1507.00, 
1508.00, 
1509.00, 
1510.00, 
1511.00, 
1512.00, 
1513.00, 
1514.00, 
1515.00, 
1516.00, 
1517.00, 
1518.00, 
1519.00, 
1520.00, 
1521.00, 
1522.00, 
1523.00, 
1524.00, 
1525.00, 
1526.00, 
1527.00, 
1528.00, 
1529.00, 
1530.00, 
1531.00, 
1532.00, 
1533.00, 
1534.00, 
1535.00, 
1536.00, 
1537.00, 
1538.00, 
1539.00, 
1540.00, 
1541.00, 
1542.00, 
1543.00, 
1544.00, 
1545.00, 
1546.00, 
1547.00, 
1548.00, 
1549.00, 
1550.00, 
1551.00, 
1552.00, 
1553.00, 
1554.00, 
1555.00, 
1556.00, 
1557.00, 
1558.00, 
1559.00, 
1560.00, 
1561.00, 
1562.00, 
1563.00, 
1564.00, 
1565.00, 
1566.00, 
1567.00, 
1568.00, 
1569.00, 
1570.00, 
1571.00, 
1572.00, 
1573.00, 
1574.00, 
1575.00, 
1576.00, 
1577.00, 
1578.00, 
1579.00, 
1580.00, 
1581.00, 
1582.00, 
1583.00, 
1584.00, 
1585.00, 
1586.00, 
1587.00, 
1588.00, 
1589.00, 
1590.00, 
1591.00, 
1592.00, 
1593.00, 
1594.00, 
1595.00, 
1596.00, 
1597.00, 
1598.00, 
1599.00, 
1600.00, 
1601.00, 
1602.00, 
1603.00, 
1604.00, 
1605.00, 
1606.00, 
1607.00, 
1608.00, 
1609.00, 
1610.00, 
1611.00, 
1612.00, 
1613.00, 
1614.00, 
1615.00, 
1616.00, 
1617.00, 
1618.00, 
1619.00, 
1620.00, 
1621.00, 
1622.00, 
1623.00, 
1624.00, 
1625.00, 
1626.00, 
1627.00, 
1628.00, 
1629.00, 
1630.00, 
1631.00, 
1632.00, 
1633.00, 
1634.00, 
1635.00, 
1636.00, 
1637.00, 
1638.00, 
1639.00, 
1640.00, 
1641.00, 
1642.00, 
1643.00, 
1644.00, 
1645.00, 
1646.00, 
1647.00, 
1648.00, 
1649.00, 
1650.00, 
1651.00, 
1652.00, 
1653.00, 
1654.00, 
1655.00, 
1656.00, 
1657.00, 
1658.00, 
1659.00, 
1660.00, 
1661.00, 
1662.00, 
1663.00, 
1664.00, 
1665.00, 
1666.00, 
1667.00, 
1668.00, 
1669.00, 
1670.00, 
1671.00, 
1672.00, 
1673.00, 
1674.00, 
1675.00, 
1676.00, 
1677.00, 
1678.00, 
1679.00, 
1680.00, 
1681.00, 
1682.00, 
1683.00, 
1684.00, 
1685.00, 
1686.00, 
1687.00, 
1688.00, 
1689.00, 
1690.00, 
1691.00, 
1692.00, 
1693.00, 
1694.00, 
1695.00, 
1696.00, 
1697.00, 
1698.00, 
1699.00, 
1700.00, 
1701.00, 
1702.00, 
1703.00, 
1704.00, 
1705.00, 
1706.00, 
1707.00, 
1708.00, 
1709.00, 
1710.00, 
1711.00, 
1712.00, 
1713.00, 
1714.00, 
1715.00, 
1716.00, 
1717.00, 
1718.00, 
1719.00, 
1720.00, 
1721.00, 
1722.00, 
1723.00, 
1724.00, 
1725.00, 
1726.00, 
1727.00, 
1728.00, 
1729.00, 
1730.00, 
1731.00, 
1732.00, 
1733.00, 
1734.00, 
1735.00, 
1736.00, 
1737.00, 
1738.00, 
1739.00, 
1740.00, 
1741.00, 
1742.00, 
1743.00, 
1744.00, 
1745.00, 
1746.00, 
1747.00, 
1748.00, 
1749.00, 
1750.00, 
1751.00, 
1752.00, 
1753.00, 
1754.00, 
1755.00, 
1756.00, 
1757.00, 
1758.00, 
1759.00, 
1760.00, 
1761.00, 
1762.00, 
1763.00, 
1764.00, 
1765.00, 
1766.00, 
1767.00, 
1768.00, 
1769.00, 
1770.00, 
1771.00, 
1772.00, 
1773.00, 
1774.00, 
1775.00, 
1776.00, 
1777.00, 
1778.00, 
1779.00, 
1780.00, 
1781.00, 
1782.00, 
1783.00, 
1784.00, 
1785.00, 
1786.00, 
1787.00, 
1788.00, 
1789.00, 
1790.00, 
1791.00, 
1792.00, 
1793.00, 
1794.00, 
1795.00, 
1796.00, 
1797.00, 
1798.00, 
1799.00, 
1800.00, 
1801.00, 
1802.00, 
1803.00, 
1804.00, 
1805.00, 
1806.00, 
1807.00, 
1808.00, 
1809.00, 
1810.00, 
1811.00, 
1812.00, 
1813.00, 
1814.00, 
1815.00, 
1816.00, 
1817.00, 
1818.00, 
1819.00, 
1820.00, 
1821.00, 
1822.00, 
1823.00, 
1824.00, 
1825.00, 
1826.00, 
1827.00, 
1828.00, 
1829.00, 
1830.00, 
1831.00, 
1832.00, 
1833.00, 
1834.00, 
1835.00, 
1836.00, 
1837.00, 
1838.00, 
1839.00, 
1840.00, 
1841.00, 
1842.00, 
1843.00, 
1844.00, 
1845.00, 
1846.00, 
1847.00, 
1848.00, 
1849.00, 
1850.00, 
1851.00, 
1852.00, 
1853.00, 
1854.00, 
1855.00, 
1856.00, 
1857.00, 
1858.00, 
1859.00, 
1860.00, 
1861.00, 
1862.00, 
1863.00, 
1864.00, 
1865.00, 
1866.00, 
1867.00, 
1868.00, 
1869.00, 
1870.00, 
1871.00, 
1872.00, 
1873.00, 
1874.00, 
1875.00, 
1876.00, 
1877.00, 
1878.00, 
1879.00, 
1880.00, 
1881.00, 
1882.00, 
1883.00, 
1884.00, 
1885.00, 
1886.00, 
1887.00, 
1888.00, 
1889.00, 
1890.00, 
1891.00, 
1892.00, 
1893.00, 
1894.00, 
1895.00, 
1896.00, 
1897.00, 
1898.00, 
1899.00, 
1900.00, 
1901.00, 
1902.00, 
1903.00, 
1904.00, 
1905.00, 
1906.00, 
1907.00, 
1908.00, 
1909.00, 
1910.00, 
1911.00, 
1912.00, 
1913.00, 
1914.00, 
1915.00, 
1916.00, 
1917.00, 
1918.00, 
1919.00, 
1920.00, 
1921.00, 
1922.00, 
1923.00, 
1924.00, 
1925.00, 
1926.00, 
1927.00, 
1928.00, 
1929.00, 
1930.00, 
1931.00, 
1932.00, 
1933.00, 
1934.00, 
1935.00, 
1936.00, 
1937.00, 
1938.00, 
1939.00, 
1940.00, 
1941.00, 
1942.00, 
1943.00, 
1944.00, 
1945.00, 
1946.00, 
1947.00, 
1948.00, 
1949.00, 
1950.00, 
1951.00, 
1952.00, 
1953.00, 
1954.00, 
1955.00, 
1956.00, 
1957.00, 
1958.00, 
1959.00, 
1960.00, 
1961.00, 
1962.00, 
1963.00, 
1964.00, 
1965.00, 
1966.00, 
1967.00, 
1968.00, 
1969.00, 
1970.00, 
1971.00, 
1972.00, 
1973.00, 
1974.00, 
1975.00, 
1976.00, 
1977.00, 
1978.00, 
1979.00, 
1980.00, 
1981.00, 
1982.00, 
1983.00, 
1984.00, 
1985.00, 
1986.00, 
1987.00, 
1988.00, 
1989.00, 
1990.00, 
1991.00, 
1992.00, 
1993.00, 
1994.00, 
1995.00, 
1996.00, 
1997.00, 
1998.00, 
1999.00, 
2000.00, 
2001.00, 
2002.00, 
2003.00, 
2004.00, 
2005.00, 
2006.00, 
2007.00, 
2008.00, 
2009.00, 
2010.00, 
2011.00, 
2012.00, 
2013.00, 
2014.00, 
2015.00, 
2016.00, 
2017.00, 
2018.00, 
2019.00, 
2020.00, 
2021.00, 
2022.00, 
2023.00, 
2024.00, 
2025.00, 
2026.00, 
2027.00, 
2028.00, 
2029.00, 
2030.00, 
2031.00, 
2032.00, 
2033.00, 
2034.00, 
2035.00, 
2036.00, 
2037.00, 
2038.00, 
2039.00, 
2040.00, 
2041.00, 
2042.00, 
2043.00, 
2044.00, 
2045.00, 
2046.00, 
2047.00, 
2048.00, 
2049.00, 
2050.00, 
2051.00, 
2052.00, 
2053.00, 
2054.00, 
2055.00, 
2056.00, 
2057.00, 
2058.00, 
2059.00, 
2060.00, 
2061.00, 
2062.00, 
2063.00, 
2064.00, 
2065.00, 
2066.00, 
2067.00, 
2068.00, 
2069.00, 
2070.00, 
2071.00, 
2072.00, 
2073.00, 
2074.00, 
2075.00, 
2076.00, 
2077.00, 
2078.00, 
2079.00, 
2080.00, 
2081.00, 
2082.00, 
2083.00, 
2084.00, 
2085.00, 
2086.00, 
2087.00, 
2088.00, 
2089.00, 
2090.00, 
2091.00, 
2092.00, 
2093.00, 
2094.00, 
2095.00, 
2096.00, 
2097.00, 
2098.00, 
2099.00, 
2100.00, 
2101.00, 
2102.00, 
2103.00, 
2104.00, 
2105.00, 
2106.00, 
2107.00, 
2108.00, 
2109.00, 
2110.00, 
2111.00, 
2112.00, 
2113.00, 
2114.00, 
2115.00, 
2116.00, 
2117.00, 
2118.00, 
2119.00, 
2120.00, 
2121.00, 
2122.00, 
2123.00, 
2124.00, 
2125.00, 
2126.00, 
2127.00, 
2128.00, 
2129.00, 
2130.00, 
2131.00, 
2132.00, 
2133.00, 
2134.00, 
2135.00, 
2136.00, 
2137.00, 
2138.00, 
2139.00, 
2140.00, 
2141.00, 
2142.00, 
2143.00, 
2144.00, 
2145.00, 
2146.00, 
2147.00, 
2148.00, 
2149.00, 
2150.00, 
2151.00, 
2152.00, 
2153.00, 
2154.00, 
2155.00, 
2156.00, 
2157.00, 
2158.00, 
2159.00, 
2160.00, 
2161.00, 
2162.00, 
2163.00, 
2164.00, 
2165.00, 
2166.00, 
2167.00, 
2168.00, 
2169.00, 
2170.00, 
2171.00, 
2172.00, 
2173.00, 
2174.00, 
2175.00, 
2176.00, 
2177.00, 
2178.00, 
2179.00, 
2180.00, 
2181.00, 
2182.00, 
2183.00, 
2184.00, 
2185.00, 
2186.00, 
2187.00, 
2188.00, 
2189.00, 
2190.00, 
2191.00, 
2192.00, 
2193.00, 
2194.00, 
2195.00, 
2196.00, 
2197.00, 
2198.00, 
2199.00, 
2200.00, 
2201.00, 
2202.00, 
2203.00, 
2204.00, 
2205.00, 
2206.00, 
2207.00, 
2208.00, 
2209.00, 
2210.00, 
2211.00, 
2212.00, 
2213.00, 
2214.00, 
2215.00, 
2216.00, 
2217.00, 
2218.00, 
2219.00, 
2220.00, 
2221.00, 
2222.00, 
2223.00, 
2224.00, 
2225.00, 
2226.00, 
2227.00, 
2228.00, 
2229.00, 
2230.00, 
2231.00, 
2232.00, 
2233.00, 
2234.00, 
2235.00, 
2236.00, 
2237.00, 
2238.00, 
2239.00, 
2240.00, 
2241.00, 
2242.00, 
2243.00, 
2244.00, 
2245.00, 
2246.00, 
2247.00, 
2248.00, 
2249.00, 
2250.00, 
2251.00, 
2252.00, 
2253.00, 
2254.00, 
2255.00, 
2256.00, 
2257.00, 
2258.00, 
2259.00, 
2260.00, 
2261.00, 
2262.00, 
2263.00, 
2264.00, 
2265.00, 
2266.00, 
2267.00, 
2268.00, 
2269.00, 
2270.00, 
2271.00, 
2272.00, 
2273.00, 
2274.00, 
2275.00, 
2276.00, 
2277.00, 
2278.00, 
2279.00, 
2280.00, 
2281.00, 
2282.00, 
2283.00, 
2284.00, 
2285.00, 
2286.00, 
2287.00, 
2288.00, 
2289.00, 
2290.00, 
2291.00, 
2292.00, 
2293.00, 
2294.00, 
2295.00, 
2296.00, 
2297.00, 
2298.00, 
2299.00, 
2300.00, 
2301.00, 
2302.00, 
2303.00, 
2304.00, 
2305.00, 
2306.00, 
2307.00, 
2308.00, 
2309.00, 
2310.00, 
2311.00, 
2312.00, 
2313.00, 
2314.00, 
2315.00, 
2316.00, 
2317.00, 
2318.00, 
2319.00, 
2320.00, 
2321.00, 
2322.00, 
2323.00, 
2324.00, 
2325.00, 
2326.00, 
2327.00, 
2328.00, 
2329.00, 
2330.00, 
2331.00, 
2332.00, 
2333.00, 
2334.00, 
2335.00, 
2336.00, 
2337.00, 
2338.00, 
2339.00, 
2340.00, 
2341.00, 
2342.00, 
2343.00, 
2344.00, 
2345.00, 
2346.00, 
2347.00, 
2348.00, 
2349.00, 
2350.00, 
2351.00, 
2352.00, 
2353.00, 
2354.00, 
2355.00, 
2356.00, 
2357.00, 
2358.00, 
2359.00, 
2360.00, 
2361.00, 
2362.00, 
2363.00, 
2364.00, 
2365.00, 
2366.00, 
2367.00, 
2368.00, 
2369.00, 
2370.00, 
2371.00, 
2372.00, 
2373.00, 
2374.00, 
2375.00, 
2376.00, 
2377.00, 
2378.00, 
2379.00, 
2380.00, 
2381.00, 
2382.00, 
2383.00, 
2384.00, 
2385.00, 
2386.00, 
2387.00, 
2388.00, 
2389.00, 
2390.00, 
2391.00, 
2392.00, 
2393.00, 
2394.00, 
2395.00, 
2396.00, 
2397.00, 
2398.00, 
2399.00, 
2400.00, 
2401.00, 
2402.00, 
2403.00, 
2404.00, 
2405.00, 
2406.00, 
2407.00, 
2408.00, 
2409.00, 
2410.00, 
2411.00, 
2412.00, 
2413.00, 
2414.00, 
2415.00, 
2416.00, 
2417.00, 
2418.00, 
2419.00, 
2420.00, 
2421.00, 
2422.00, 
2423.00, 
2424.00, 
2425.00, 
2426.00, 
2427.00, 
2428.00, 
2429.00, 
2430.00, 
2431.00, 
2432.00, 
2433.00, 
2434.00, 
2435.00, 
2436.00, 
2437.00, 
2438.00, 
2439.00, 
2440.00, 
2441.00, 
2442.00, 
2443.00, 
2444.00, 
2445.00, 
2446.00, 
2447.00, 
2448.00, 
2449.00, 
2450.00, 
2451.00, 
2452.00, 
2453.00, 
2454.00, 
2455.00, 
2456.00, 
2457.00, 
2458.00, 
2459.00, 
2460.00, 
2461.00, 
2462.00, 
2463.00, 
2464.00, 
2465.00, 
2466.00, 
2467.00, 
2468.00, 
2469.00, 
2470.00, 
2471.00, 
2472.00, 
2473.00, 
2474.00, 
2475.00, 
2476.00, 
2477.00, 
2478.00, 
2479.00, 
2480.00, 
2481.00, 
2482.00, 
2483.00, 
2484.00, 
2485.00, 
2486.00, 
2487.00, 
2488.00, 
2489.00, 
2490.00, 
2491.00, 
2492.00, 
2493.00, 
2494.00, 
2495.00, 
2496.00, 
2497.00, 
2498.00, 
2499.00, 
2500.00, 
2501.00, 
2502.00, 
2503.00, 
2504.00, 
2505.00, 
2506.00, 
2507.00, 
2508.00, 
2509.00, 
2510.00, 
2511.00, 
2512.00, 
2513.00, 
2514.00, 
2515.00, 
2516.00, 
2517.00, 
2518.00, 
2519.00, 
2520.00, 
2521.00, 
2522.00, 
2523.00, 
2524.00, 
2525.00, 
2526.00, 
2527.00, 
2528.00, 
2529.00, 
2530.00, 
2531.00, 
2532.00, 
2533.00, 
2534.00, 
2535.00, 
2536.00, 
2537.00, 
2538.00, 
2539.00, 
2540.00, 
2541.00, 
2542.00, 
2543.00, 
2544.00, 
2545.00, 
2546.00, 
2547.00, 
2548.00, 
2549.00, 
2550.00, 
2551.00, 
2552.00, 
2553.00, 
2554.00, 
2555.00, 
2556.00, 
2557.00, 
2558.00, 
2559.00, 
2560.00, 
2561.00, 
2562.00, 
2563.00, 
2564.00, 
2565.00, 
2566.00, 
2567.00, 
2568.00, 
2569.00, 
2570.00, 
2571.00, 
2572.00, 
2573.00, 
2574.00, 
2575.00, 
2576.00, 
2577.00, 
2578.00, 
2579.00, 
2580.00, 
2581.00, 
2582.00, 
2583.00, 
2584.00, 
2585.00, 
2586.00, 
2587.00, 
2588.00, 
2589.00, 
2590.00, 
2591.00, 
2592.00, 
2593.00, 
2594.00, 
2595.00, 
2596.00, 
2597.00, 
2598.00, 
2599.00, 
2600.00, 
