"2cP3 - RawData"
"Wavelength nm.","T%"
200.00,0.001
201.00,-0.001
202.00,0.003
203.00,0.002
204.00,0.000
205.00,0.002
206.00,0.001
207.00,-0.001
208.00,0.001
209.00,0.001
210.00,-0.001
211.00,-0.000
212.00,0.003
213.00,0.002
214.00,-0.000
215.00,0.001
216.00,0.000
217.00,0.002
218.00,0.001
219.00,0.000
220.00,0.000
221.00,0.001
222.00,-0.000
223.00,0.002
224.00,-0.000
225.00,0.002
226.00,-0.002
227.00,0.000
228.00,0.002
229.00,-0.000
230.00,-0.001
231.00,-0.002
232.00,0.000
233.00,0.000
234.00,0.000
235.00,0.001
236.00,0.003
237.00,0.001
238.00,0.001
239.00,0.001
240.00,-0.001
241.00,0.001
242.00,0.001
243.00,-0.001
244.00,-0.001
245.00,0.000
246.00,-0.000
247.00,0.002
248.00,0.000
249.00,0.001
250.00,-0.000
251.00,0.001
252.00,-0.000
253.00,-0.000
254.00,0.001
255.00,0.000
256.00,0.001
257.00,-0.001
258.00,-0.002
259.00,-0.001
260.00,0.000
261.00,-0.000
262.00,-0.001
263.00,0.000
264.00,0.001
265.00,0.001
266.00,0.000
267.00,-0.002
268.00,-0.001
269.00,0.000
270.00,0.001
271.00,0.001
272.00,0.000
273.00,0.000
274.00,-0.001
275.00,0.001
276.00,0.001
277.00,0.001
278.00,0.001
279.00,-0.000
280.00,0.001
281.00,0.000
282.00,0.000
283.00,-0.003
284.00,-0.000
285.00,0.001
286.00,0.001
287.00,-0.001
288.00,0.001
289.00,-0.000
290.00,-0.000
291.00,-0.000
292.00,0.001
293.00,0.002
294.00,0.000
295.00,-0.001
296.00,-0.002
297.00,0.001
298.00,0.001
299.00,0.000
300.00,0.003
301.00,0.003
302.00,0.007
303.00,0.006
304.00,0.011
305.00,0.020
306.00,0.029
307.00,0.044
308.00,0.064
309.00,0.102
310.00,0.141
311.00,0.196
312.00,0.266
313.00,0.357
314.00,0.466
315.00,0.608
316.00,0.759
317.00,0.969
318.00,1.194
319.00,1.458
320.00,1.771
321.00,2.096
322.00,2.491
323.00,2.926
324.00,3.373
325.00,3.834
326.00,4.301
327.00,4.860
328.00,5.424
329.00,5.964
330.00,6.578
331.00,7.065
332.00,7.754
333.00,8.387
334.00,8.996
335.00,9.640
336.00,10.244
337.00,10.872
338.00,11.477
339.00,12.027
340.00,12.579
341.00,13.172
342.00,13.655
343.00,14.153
344.00,14.633
345.00,15.060
346.00,15.542
347.00,15.973
348.00,16.347
349.00,16.701
350.00,17.068
351.00,17.373
352.00,17.652
353.00,17.967
354.00,18.215
355.00,18.473
356.00,18.709
357.00,18.940
358.00,19.152
359.00,19.328
360.00,19.488
361.00,19.638
362.00,19.760
363.00,19.911
364.00,20.018
365.00,20.105
366.00,20.209
367.00,20.285
368.00,20.366
369.00,20.415
370.00,20.380
371.00,20.479
372.00,20.444
373.00,20.467
374.00,20.450
375.00,20.469
376.00,20.429
377.00,20.401
378.00,20.377
379.00,20.309
380.00,20.266
381.00,20.219
382.00,20.249
383.00,20.280
384.00,20.317
385.00,20.387
386.00,20.396
387.00,20.419
388.00,20.407
389.00,20.446
390.00,20.461
391.00,20.480
392.00,20.508
393.00,20.465
394.00,20.474
395.00,20.440
396.00,20.485
397.00,20.506
398.00,20.502
399.00,20.454
400.00,20.503
401.00,20.477
402.00,20.491
403.00,20.482
404.00,20.472
405.00,20.429
406.00,20.455
407.00,20.360
408.00,20.379
409.00,20.390
410.00,20.285
411.00,20.291
412.00,20.230
413.00,20.331
414.00,20.296
415.00,20.309
416.00,20.336
417.00,20.326
418.00,20.369
419.00,20.371
420.00,20.352
421.00,20.443
422.00,20.473
423.00,20.471
424.00,20.512
425.00,20.540
426.00,20.564
427.00,20.595
428.00,20.653
429.00,20.667
430.00,20.723
431.00,20.761
432.00,20.794
433.00,20.857
434.00,20.877
435.00,20.956
436.00,21.019
437.00,21.092
438.00,21.151
439.00,21.189
440.00,21.247
441.00,21.336
442.00,21.432
443.00,21.479
444.00,21.576
445.00,21.647
446.00,21.725
447.00,21.775
448.00,21.891
449.00,21.975
450.00,22.058
451.00,22.176
452.00,22.279
453.00,22.356
454.00,22.439
455.00,22.584
456.00,22.657
457.00,22.792
458.00,22.894
459.00,23.002
460.00,23.100
461.00,23.265
462.00,23.355
463.00,23.454
464.00,23.584
465.00,23.663
466.00,23.795
467.00,23.897
468.00,23.977
469.00,24.124
470.00,24.191
471.00,24.354
472.00,24.469
473.00,24.557
474.00,24.679
475.00,24.833
476.00,24.916
477.00,25.066
478.00,25.169
479.00,25.325
480.00,25.466
481.00,25.620
482.00,25.767
483.00,25.905
484.00,26.046
485.00,26.208
486.00,26.336
487.00,26.473
488.00,26.621
489.00,26.765
490.00,26.875
491.00,27.057
492.00,27.145
493.00,27.321
494.00,27.460
495.00,27.491
496.00,27.626
497.00,27.738
498.00,27.867
499.00,28.012
500.00,28.102
501.00,28.244
502.00,28.413
503.00,28.508
504.00,28.657
505.00,28.753
506.00,28.892
507.00,29.029
508.00,29.132
509.00,29.249
510.00,29.445
511.00,29.517
512.00,29.640
513.00,29.750
514.00,29.909
515.00,29.986
516.00,30.094
517.00,30.169
518.00,30.333
519.00,30.464
520.00,30.594
521.00,30.659
522.00,30.771
523.00,30.887
524.00,30.979
525.00,31.164
526.00,31.213
527.00,31.304
528.00,31.319
529.00,31.491
530.00,31.625
531.00,31.668
532.00,31.824
533.00,31.913
534.00,31.989
535.00,32.081
536.00,32.217
537.00,32.260
538.00,32.380
539.00,32.494
540.00,32.487
541.00,32.629
542.00,32.697
543.00,32.766
544.00,32.887
545.00,32.937
546.00,33.008
547.00,33.118
548.00,33.130
549.00,33.234
550.00,33.337
551.00,33.333
552.00,33.418
553.00,33.512
554.00,33.561
555.00,33.732
556.00,33.752
557.00,33.826
558.00,33.929
559.00,33.974
560.00,34.061
561.00,34.113
562.00,34.190
563.00,34.210
564.00,34.303
565.00,34.391
566.00,34.402
567.00,34.451
568.00,34.485
569.00,34.576
570.00,34.630
571.00,34.673
572.00,34.739
573.00,34.740
574.00,34.843
575.00,34.876
576.00,34.968
577.00,35.011
578.00,35.057
579.00,35.167
580.00,35.224
581.00,35.303
582.00,35.334
583.00,35.425
584.00,35.485
585.00,35.509
586.00,35.586
587.00,35.628
588.00,35.797
589.00,35.878
590.00,35.908
591.00,35.972
592.00,36.039
593.00,36.036
594.00,36.082
595.00,36.096
596.00,36.162
597.00,36.223
598.00,36.281
599.00,36.356
600.00,36.439
601.00,36.422
602.00,36.557
603.00,36.619
604.00,36.682
605.00,36.706
606.00,36.708
607.00,36.843
608.00,36.890
609.00,36.925
610.00,37.060
611.00,37.020
612.00,37.029
613.00,37.093
614.00,37.210
615.00,37.210
616.00,37.321
617.00,37.371
618.00,37.383
619.00,37.483
620.00,37.541
621.00,37.612
622.00,37.676
623.00,37.758
624.00,37.847
625.00,37.890
626.00,37.973
627.00,38.004
628.00,38.046
629.00,38.157
630.00,38.202
631.00,38.225
632.00,38.348
633.00,38.413
634.00,38.387
635.00,38.569
636.00,38.666
637.00,38.633
638.00,38.800
639.00,38.877
640.00,38.973
641.00,39.090
642.00,39.068
643.00,39.172
644.00,39.244
645.00,39.346
646.00,39.460
647.00,39.531
648.00,39.707
649.00,39.684
650.00,39.801
651.00,39.869
652.00,39.919
653.00,40.176
654.00,40.142
655.00,40.236
656.00,40.306
657.00,40.477
658.00,40.509
659.00,40.487
660.00,40.786
661.00,40.860
662.00,40.930
663.00,40.945
664.00,41.098
665.00,41.308
666.00,41.178
667.00,41.466
668.00,41.335
669.00,41.590
670.00,41.707
671.00,41.641
672.00,41.966
673.00,41.909
674.00,42.011
675.00,42.100
676.00,42.221
677.00,42.374
678.00,42.325
679.00,42.449
680.00,42.538
681.00,42.606
682.00,42.794
683.00,42.781
684.00,42.979
685.00,43.184
686.00,43.198
687.00,43.157
688.00,43.393
689.00,43.413
690.00,43.477
691.00,43.731
692.00,43.600
693.00,43.774
694.00,43.734
695.00,43.855
696.00,43.803
697.00,44.010
698.00,44.018
699.00,44.042
700.00,44.598
701.00,44.732
702.00,44.590
703.00,44.699
704.00,44.941
705.00,44.834
706.00,44.883
707.00,45.191
708.00,45.082
709.00,45.222
710.00,45.400
711.00,45.288
712.00,45.316
713.00,45.414
714.00,45.479
715.00,45.617
716.00,45.654
717.00,45.717
718.00,45.753
719.00,45.811
720.00,45.882
721.00,50.599
722.00,50.619
723.00,50.629
724.00,50.710
725.00,50.704
726.00,50.726
727.00,50.744
728.00,50.775
729.00,50.740
730.00,50.875
731.00,50.863
732.00,50.868
733.00,50.963
734.00,50.966
735.00,51.080
736.00,51.146
737.00,51.170
738.00,51.188
739.00,51.184
740.00,51.199
741.00,51.298
742.00,51.325
743.00,51.314
744.00,51.298
745.00,51.442
746.00,51.349
747.00,51.300
748.00,51.431
749.00,51.423
750.00,51.402
751.00,51.484
752.00,51.476
753.00,51.374
754.00,51.510
755.00,51.456
756.00,51.468
757.00,51.511
758.00,51.523
759.00,51.573
760.00,51.490
761.00,51.638
762.00,51.521
763.00,51.576
764.00,51.621
765.00,51.637
766.00,51.710
767.00,51.705
768.00,51.731
769.00,51.774
770.00,51.730
771.00,51.711
772.00,51.784
773.00,51.829
774.00,51.877
775.00,51.812
776.00,51.850
777.00,51.904
778.00,51.864
779.00,51.955
780.00,51.911
781.00,51.867
782.00,51.858
783.00,51.914
784.00,51.902
785.00,51.939
786.00,51.870
787.00,51.942
788.00,51.912
789.00,51.869
790.00,51.926
791.00,51.903
792.00,51.857
793.00,51.947
794.00,51.890
795.00,51.902
796.00,51.799
797.00,51.851
798.00,51.812
799.00,51.850
800.00,51.843
801.00,51.795
802.00,51.791
803.00,51.852
804.00,51.687
805.00,51.756
806.00,51.750
807.00,51.761
808.00,51.792
809.00,51.755
810.00,51.777
811.00,51.722
812.00,51.741
813.00,51.707
814.00,51.699
815.00,51.762
816.00,51.676
817.00,51.710
818.00,51.597
819.00,51.671
820.00,51.611
821.00,51.654
822.00,51.548
823.00,51.680
824.00,51.614
825.00,51.608
826.00,51.684
827.00,51.547
828.00,51.549
829.00,51.529
830.00,51.574
831.00,53.858
832.00,53.777
833.00,53.768
834.00,53.820
835.00,53.813
836.00,53.811
837.00,53.758
838.00,53.757
839.00,53.748
840.00,53.700
841.00,53.725
842.00,53.687
843.00,53.672
844.00,53.646
845.00,53.631
846.00,53.646
847.00,53.567
848.00,53.542
849.00,53.529
850.00,53.497
851.00,53.505
852.00,53.481
853.00,53.426
854.00,53.395
855.00,53.373
856.00,53.326
857.00,53.300
858.00,53.297
859.00,53.241
860.00,53.233
861.00,53.210
862.00,53.228
863.00,53.168
864.00,53.218
865.00,53.188
866.00,53.182
867.00,53.134
868.00,53.212
869.00,53.176
870.00,53.103
871.00,53.132
872.00,53.119
873.00,53.114
874.00,53.056
875.00,53.097
876.00,53.049
877.00,53.068
878.00,53.031
879.00,53.053
880.00,52.943
881.00,52.997
882.00,53.166
883.00,52.968
884.00,52.946
885.00,52.896
886.00,52.925
887.00,52.887
888.00,52.876
889.00,52.859
890.00,52.809
891.00,52.822
892.00,52.772
893.00,52.751
894.00,52.760
895.00,52.729
896.00,52.675
897.00,52.844
898.00,52.691
899.00,52.695
900.00,52.656
901.00,52.664
902.00,52.630
903.00,52.605
904.00,52.649
905.00,52.621
906.00,52.593
907.00,52.558
908.00,52.562
909.00,52.529
910.00,52.509
911.00,52.484
912.00,52.461
913.00,52.450
914.00,52.459
915.00,52.431
916.00,52.423
917.00,52.373
918.00,52.394
919.00,52.340
920.00,52.322
921.00,52.307
922.00,52.296
923.00,52.262
924.00,52.246
925.00,52.239
926.00,52.246
927.00,52.204
928.00,52.219
929.00,52.158
930.00,52.156
931.00,52.135
932.00,52.122
933.00,52.118
934.00,52.096
935.00,52.046
936.00,52.060
937.00,52.038
938.00,52.027
939.00,51.997
940.00,51.997
941.00,51.951
942.00,51.922
943.00,51.920
944.00,51.870
945.00,51.890
946.00,51.864
947.00,51.876
948.00,51.831
949.00,51.821
950.00,51.773
951.00,51.788
952.00,51.743
953.00,51.733
954.00,51.683
955.00,51.668
956.00,51.639
957.00,51.608
958.00,51.586
959.00,51.579
960.00,51.539
961.00,51.526
962.00,51.515
963.00,51.472
964.00,51.475
965.00,51.465
966.00,51.485
967.00,51.454
968.00,51.472
969.00,51.429
970.00,51.469
971.00,51.466
972.00,51.437
973.00,51.468
974.00,51.446
975.00,51.464
976.00,51.424
977.00,51.470
978.00,51.478
979.00,51.441
980.00,51.454
981.00,51.454
982.00,51.459
983.00,51.415
984.00,51.433
985.00,51.405
986.00,51.416
987.00,51.427
988.00,51.398
989.00,51.412
990.00,51.391
991.00,51.376
992.00,51.391
993.00,51.376
994.00,51.337
995.00,51.320
996.00,51.327
997.00,51.276
998.00,51.285
999.00,51.289
1000.00,51.265
1001.00,51.256
1002.00,51.231
1003.00,51.277
1004.00,51.225
1005.00,51.190
1006.00,51.194
1007.00,51.195
1008.00,51.163
1009.00,51.167
1010.00,51.192
1011.00,51.112
1012.00,51.118
1013.00,51.103
1014.00,51.091
1015.00,51.086
1016.00,51.032
1017.00,51.054
1018.00,51.027
1019.00,51.033
1020.00,50.992
1021.00,50.993
1022.00,50.957
1023.00,50.944
1024.00,50.937
1025.00,50.929
1026.00,50.935
1027.00,50.873
1028.00,50.884
1029.00,50.848
1030.00,50.853
1031.00,50.839
1032.00,50.796
1033.00,50.802
1034.00,50.783
1035.00,50.750
1036.00,50.716
1037.00,50.707
1038.00,50.675
1039.00,50.683
1040.00,50.645
1041.00,50.607
1042.00,50.620
1043.00,50.577
1044.00,50.606
1045.00,50.571
1046.00,50.581
1047.00,50.584
1048.00,50.608
1049.00,50.591
1050.00,50.615
1051.00,50.622
1052.00,50.644
1053.00,50.642
1054.00,50.648
1055.00,50.646
1056.00,50.660
1057.00,50.666
1058.00,50.671
1059.00,50.670
1060.00,50.653
1061.00,50.676
1062.00,50.646
1063.00,50.648
1064.00,50.638
1065.00,50.650
1066.00,50.617
1067.00,50.608
1068.00,50.624
1069.00,50.626
1070.00,50.574
1071.00,50.570
1072.00,50.569
1073.00,50.577
1074.00,50.545
1075.00,50.517
1076.00,50.535
1077.00,50.521
1078.00,50.494
1079.00,50.479
1080.00,50.502
1081.00,50.476
1082.00,50.473
1083.00,50.458
1084.00,50.454
1085.00,50.428
1086.00,50.435
1087.00,50.414
1088.00,50.410
1089.00,50.407
1090.00,50.397
1091.00,50.410
1092.00,50.423
1093.00,50.381
1094.00,50.384
1095.00,50.352
1096.00,50.362
1097.00,50.351
1098.00,50.344
1099.00,50.314
1100.00,50.329
1101.00,50.304
1102.00,50.320
1103.00,50.288
1104.00,50.286
1105.00,50.271
1106.00,50.256
1107.00,50.227
1108.00,50.237
1109.00,50.219
1110.00,50.219
1111.00,50.200
1112.00,50.203
1113.00,50.206
1114.00,50.183
1115.00,50.160
1116.00,50.193
1117.00,50.148
1118.00,50.152
1119.00,50.172
1120.00,50.176
1121.00,50.138
1122.00,50.147
1123.00,50.130
1124.00,50.136
1125.00,50.105
1126.00,50.095
1127.00,50.088
1128.00,50.090
1129.00,50.078
1130.00,50.062
1131.00,50.039
1132.00,50.065
1133.00,50.041
1134.00,50.060
1135.00,50.090
1136.00,50.054
1137.00,49.996
1138.00,50.008
1139.00,50.006
1140.00,50.013
1141.00,49.994
1142.00,49.991
1143.00,49.986
1144.00,49.975
1145.00,49.966
1146.00,49.985
1147.00,49.970
1148.00,49.959
1149.00,49.990
1150.00,49.996
1151.00,49.944
1152.00,49.968
1153.00,49.953
1154.00,49.943
1155.00,49.940
1156.00,49.932
1157.00,49.939
1158.00,49.914
1159.00,49.910
1160.00,49.922
1161.00,49.931
1162.00,49.932
1163.00,49.942
1164.00,49.918
1165.00,49.921
1166.00,49.915
1167.00,49.896
1168.00,49.915
1169.00,49.916
1170.00,49.882
1171.00,49.894
1172.00,49.881
1173.00,49.875
1174.00,49.882
1175.00,49.876
1176.00,49.891
1177.00,49.855
1178.00,49.850
1179.00,49.865
1180.00,49.869
1181.00,49.866
1182.00,49.873
1183.00,49.864
1184.00,49.837
1185.00,49.863
1186.00,49.846
1187.00,49.848
1188.00,49.832
1189.00,49.846
1190.00,49.855
1191.00,49.852
1192.00,49.826
1193.00,49.861
1194.00,49.836
1195.00,49.841
1196.00,49.863
1197.00,49.845
1198.00,49.839
1199.00,49.827
1200.00,49.827
1201.00,49.848
1202.00,49.855
1203.00,49.829
1204.00,49.830
1205.00,49.827
1206.00,49.821
1207.00,49.815
1208.00,49.791
1209.00,49.825
1210.00,49.795
1211.00,49.807
1212.00,49.813
1213.00,49.793
1214.00,49.795
1215.00,49.781
1216.00,49.801
1217.00,49.784
1218.00,49.801
1219.00,49.797
1220.00,49.797
1221.00,49.801
1222.00,49.782
1223.00,49.815
1224.00,49.802
1225.00,49.800
1226.00,49.791
1227.00,49.796
1228.00,49.784
1229.00,49.785
1230.00,49.807
1231.00,49.805
1232.00,49.845
1233.00,49.830
1234.00,49.862
1235.00,49.851
1236.00,49.846
1237.00,49.836
1238.00,49.844
1239.00,49.841
1240.00,49.850
1241.00,49.850
1242.00,49.848
1243.00,49.863
1244.00,49.827
1245.00,49.864
1246.00,49.859
1247.00,49.846
1248.00,49.853
1249.00,49.862
1250.00,49.855
1251.00,49.888
1252.00,49.856
1253.00,49.857
1254.00,49.873
1255.00,49.890
1256.00,49.889
1257.00,49.853
1258.00,49.876
1259.00,49.894
1260.00,49.912
1261.00,49.887
1262.00,49.903
1263.00,49.881
1264.00,49.900
1265.00,49.897
1266.00,49.885
1267.00,49.904
1268.00,49.924
1269.00,49.902
1270.00,49.933
1271.00,49.930
1272.00,49.934
1273.00,49.914
1274.00,49.934
1275.00,49.933
1276.00,49.946
1277.00,49.919
1278.00,49.971
1279.00,49.956
1280.00,49.929
1281.00,49.955
1282.00,49.961
1283.00,49.956
1284.00,49.984
1285.00,49.962
1286.00,49.942
1287.00,49.946
1288.00,49.947
1289.00,49.957
1290.00,49.976
1291.00,49.972
1292.00,49.983
1293.00,49.971
1294.00,49.977
1295.00,50.014
1296.00,49.998
1297.00,50.026
1298.00,50.027
1299.00,50.024
1300.00,50.034
1301.00,50.021
1302.00,50.036
1303.00,50.051
1304.00,50.018
1305.00,50.046
1306.00,50.067
1307.00,50.059
1308.00,50.059
1309.00,50.088
1310.00,50.080
1311.00,50.081
1312.00,50.089
1313.00,50.076
1314.00,50.128
1315.00,50.087
1316.00,50.099
1317.00,50.124
1318.00,50.143
1319.00,50.128
1320.00,50.155
1321.00,50.254
1322.00,50.291
1323.00,50.278
1324.00,50.263
1325.00,50.264
1326.00,50.293
1327.00,50.257
1328.00,50.281
1329.00,50.260
1330.00,50.279
1331.00,50.279
1332.00,50.281
1333.00,50.307
1334.00,50.301
1335.00,50.308
1336.00,50.359
1337.00,50.363
1338.00,50.405
1339.00,50.450
1340.00,50.490
1341.00,50.533
1342.00,50.608
1343.00,50.657
1344.00,50.736
1345.00,50.801
1346.00,50.823
1347.00,50.879
1348.00,50.887
1349.00,50.921
1350.00,50.934
1351.00,50.927
1352.00,50.960
1353.00,50.986
1354.00,50.965
1355.00,50.950
1356.00,50.926
1357.00,50.974
1358.00,51.002
1359.00,50.970
1360.00,50.943
1361.00,50.915
1362.00,51.135
1363.00,50.985
1364.00,51.102
1365.00,51.073
1366.00,51.011
1367.00,50.978
1368.00,50.951
1369.00,50.987
1370.00,50.958
1371.00,50.994
1372.00,50.985
1373.00,50.963
1374.00,50.960
1375.00,50.977
1376.00,50.954
1377.00,50.896
1378.00,50.964
1379.00,50.792
1380.00,50.991
1381.00,50.960
1382.00,50.929
1383.00,51.219
1384.00,50.920
1385.00,50.958
1386.00,50.946
1387.00,50.902
1388.00,50.865
1389.00,50.933
1390.00,50.951
1391.00,50.996
1392.00,50.897
1393.00,50.908
1394.00,50.930
1395.00,50.922
1396.00,50.948
1397.00,50.934
1398.00,50.919
1399.00,50.990
1400.00,50.828
1401.00,50.950
1402.00,50.964
1403.00,50.968
1404.00,50.933
1405.00,50.950
1406.00,51.003
1407.00,50.986
1408.00,51.034
1409.00,50.992
1410.00,51.008
1411.00,51.013
1412.00,51.013
1413.00,51.016
1414.00,50.970
1415.00,51.030
1416.00,51.043
1417.00,51.032
1418.00,51.069
1419.00,51.019
1420.00,51.066
1421.00,51.082
1422.00,51.140
1423.00,51.090
1424.00,51.150
1425.00,51.148
1426.00,51.160
1427.00,51.190
1428.00,51.161
1429.00,51.186
1430.00,51.235
1431.00,51.205
1432.00,51.220
1433.00,51.243
1434.00,51.237
1435.00,51.294
1436.00,51.302
1437.00,51.294
1438.00,51.322
1439.00,51.334
1440.00,51.351
1441.00,51.404
1442.00,51.377
1443.00,51.428
1444.00,51.418
1445.00,51.413
1446.00,51.408
1447.00,51.450
1448.00,51.471
1449.00,51.521
1450.00,51.480
1451.00,51.515
1452.00,51.516
1453.00,51.521
1454.00,51.527
1455.00,51.562
1456.00,51.545
1457.00,51.605
1458.00,51.620
1459.00,51.631
1460.00,51.639
1461.00,51.642
1462.00,51.689
1463.00,51.677
1464.00,51.674
1465.00,51.718
1466.00,51.692
1467.00,51.701
1468.00,51.763
1469.00,51.740
1470.00,51.748
1471.00,51.791
1472.00,51.790
1473.00,51.813
1474.00,51.829
1475.00,51.830
1476.00,51.858
1477.00,51.841
1478.00,51.847
1479.00,51.893
1480.00,51.873
1481.00,51.878
1482.00,51.898
1483.00,51.883
1484.00,51.920
1485.00,51.945
1486.00,51.945
1487.00,51.971
1488.00,51.972
1489.00,51.984
1490.00,52.007
1491.00,52.007
1492.00,52.004
1493.00,52.050
1494.00,52.029
1495.00,52.066
1496.00,52.065
1497.00,52.068
1498.00,52.084
1499.00,52.113
1500.00,52.104
1501.00, 
1502.00, 
1503.00, 
1504.00, 
1505.00, 
1506.00, 
1507.00, 
1508.00, 
1509.00, 
1510.00, 
1511.00, 
1512.00, 
1513.00, 
1514.00, 
1515.00, 
1516.00, 
1517.00, 
1518.00, 
1519.00, 
1520.00, 
1521.00, 
1522.00, 
1523.00, 
1524.00, 
1525.00, 
1526.00, 
1527.00, 
1528.00, 
1529.00, 
1530.00, 
1531.00, 
1532.00, 
1533.00, 
1534.00, 
1535.00, 
1536.00, 
1537.00, 
1538.00, 
1539.00, 
1540.00, 
1541.00, 
1542.00, 
1543.00, 
1544.00, 
1545.00, 
1546.00, 
1547.00, 
1548.00, 
1549.00, 
1550.00, 
1551.00, 
1552.00, 
1553.00, 
1554.00, 
1555.00, 
1556.00, 
1557.00, 
1558.00, 
1559.00, 
1560.00, 
1561.00, 
1562.00, 
1563.00, 
1564.00, 
1565.00, 
1566.00, 
1567.00, 
1568.00, 
1569.00, 
1570.00, 
1571.00, 
1572.00, 
1573.00, 
1574.00, 
1575.00, 
1576.00, 
1577.00, 
1578.00, 
1579.00, 
1580.00, 
1581.00, 
1582.00, 
1583.00, 
1584.00, 
1585.00, 
1586.00, 
1587.00, 
1588.00, 
1589.00, 
1590.00, 
1591.00, 
1592.00, 
1593.00, 
1594.00, 
1595.00, 
1596.00, 
1597.00, 
1598.00, 
1599.00, 
1600.00, 
1601.00, 
1602.00, 
1603.00, 
1604.00, 
1605.00, 
1606.00, 
1607.00, 
1608.00, 
1609.00, 
1610.00, 
1611.00, 
1612.00, 
1613.00, 
1614.00, 
1615.00, 
1616.00, 
1617.00, 
1618.00, 
1619.00, 
1620.00, 
1621.00, 
1622.00, 
1623.00, 
1624.00, 
1625.00, 
1626.00, 
1627.00, 
1628.00, 
1629.00, 
1630.00, 
1631.00, 
1632.00, 
1633.00, 
1634.00, 
1635.00, 
1636.00, 
1637.00, 
1638.00, 
1639.00, 
1640.00, 
1641.00, 
1642.00, 
1643.00, 
1644.00, 
1645.00, 
1646.00, 
1647.00, 
1648.00, 
1649.00, 
1650.00, 
1651.00, 
1652.00, 
1653.00, 
1654.00, 
1655.00, 
1656.00, 
1657.00, 
1658.00, 
1659.00, 
1660.00, 
1661.00, 
1662.00, 
1663.00, 
1664.00, 
1665.00, 
1666.00, 
1667.00, 
1668.00, 
1669.00, 
1670.00, 
1671.00, 
1672.00, 
1673.00, 
1674.00, 
1675.00, 
1676.00, 
1677.00, 
1678.00, 
1679.00, 
1680.00, 
1681.00, 
1682.00, 
1683.00, 
1684.00, 
1685.00, 
1686.00, 
1687.00, 
1688.00, 
1689.00, 
1690.00, 
1691.00, 
1692.00, 
1693.00, 
1694.00, 
1695.00, 
1696.00, 
1697.00, 
1698.00, 
1699.00, 
1700.00, 
1701.00, 
1702.00, 
1703.00, 
1704.00, 
1705.00, 
1706.00, 
1707.00, 
1708.00, 
1709.00, 
1710.00, 
1711.00, 
1712.00, 
1713.00, 
1714.00, 
1715.00, 
1716.00, 
1717.00, 
1718.00, 
1719.00, 
1720.00, 
1721.00, 
1722.00, 
1723.00, 
1724.00, 
1725.00, 
1726.00, 
1727.00, 
1728.00, 
1729.00, 
1730.00, 
1731.00, 
1732.00, 
1733.00, 
1734.00, 
1735.00, 
1736.00, 
1737.00, 
1738.00, 
1739.00, 
1740.00, 
1741.00, 
1742.00, 
1743.00, 
1744.00, 
1745.00, 
1746.00, 
1747.00, 
1748.00, 
1749.00, 
1750.00, 
1751.00, 
1752.00, 
1753.00, 
1754.00, 
1755.00, 
1756.00, 
1757.00, 
1758.00, 
1759.00, 
1760.00, 
1761.00, 
1762.00, 
1763.00, 
1764.00, 
1765.00, 
1766.00, 
1767.00, 
1768.00, 
1769.00, 
1770.00, 
1771.00, 
1772.00, 
1773.00, 
1774.00, 
1775.00, 
1776.00, 
1777.00, 
1778.00, 
1779.00, 
1780.00, 
1781.00, 
1782.00, 
1783.00, 
1784.00, 
1785.00, 
1786.00, 
1787.00, 
1788.00, 
1789.00, 
1790.00, 
1791.00, 
1792.00, 
1793.00, 
1794.00, 
1795.00, 
1796.00, 
1797.00, 
1798.00, 
1799.00, 
1800.00, 
1801.00, 
1802.00, 
1803.00, 
1804.00, 
1805.00, 
1806.00, 
1807.00, 
1808.00, 
1809.00, 
1810.00, 
1811.00, 
1812.00, 
1813.00, 
1814.00, 
1815.00, 
1816.00, 
1817.00, 
1818.00, 
1819.00, 
1820.00, 
1821.00, 
1822.00, 
1823.00, 
1824.00, 
1825.00, 
1826.00, 
1827.00, 
1828.00, 
1829.00, 
1830.00, 
1831.00, 
1832.00, 
1833.00, 
1834.00, 
1835.00, 
1836.00, 
1837.00, 
1838.00, 
1839.00, 
1840.00, 
1841.00, 
1842.00, 
1843.00, 
1844.00, 
1845.00, 
1846.00, 
1847.00, 
1848.00, 
1849.00, 
1850.00, 
1851.00, 
1852.00, 
1853.00, 
1854.00, 
1855.00, 
1856.00, 
1857.00, 
1858.00, 
1859.00, 
1860.00, 
1861.00, 
1862.00, 
1863.00, 
1864.00, 
1865.00, 
1866.00, 
1867.00, 
1868.00, 
1869.00, 
1870.00, 
1871.00, 
1872.00, 
1873.00, 
1874.00, 
1875.00, 
1876.00, 
1877.00, 
1878.00, 
1879.00, 
1880.00, 
1881.00, 
1882.00, 
1883.00, 
1884.00, 
1885.00, 
1886.00, 
1887.00, 
1888.00, 
1889.00, 
1890.00, 
1891.00, 
1892.00, 
1893.00, 
1894.00, 
1895.00, 
1896.00, 
1897.00, 
1898.00, 
1899.00, 
1900.00, 
1901.00, 
1902.00, 
1903.00, 
1904.00, 
1905.00, 
1906.00, 
1907.00, 
1908.00, 
1909.00, 
1910.00, 
1911.00, 
1912.00, 
1913.00, 
1914.00, 
1915.00, 
1916.00, 
1917.00, 
1918.00, 
1919.00, 
1920.00, 
1921.00, 
1922.00, 
1923.00, 
1924.00, 
1925.00, 
1926.00, 
1927.00, 
1928.00, 
1929.00, 
1930.00, 
1931.00, 
1932.00, 
1933.00, 
1934.00, 
1935.00, 
1936.00, 
1937.00, 
1938.00, 
1939.00, 
1940.00, 
1941.00, 
1942.00, 
1943.00, 
1944.00, 
1945.00, 
1946.00, 
1947.00, 
1948.00, 
1949.00, 
1950.00, 
1951.00, 
1952.00, 
1953.00, 
1954.00, 
1955.00, 
1956.00, 
1957.00, 
1958.00, 
1959.00, 
1960.00, 
1961.00, 
1962.00, 
1963.00, 
1964.00, 
1965.00, 
1966.00, 
1967.00, 
1968.00, 
1969.00, 
1970.00, 
1971.00, 
1972.00, 
1973.00, 
1974.00, 
1975.00, 
1976.00, 
1977.00, 
1978.00, 
1979.00, 
1980.00, 
1981.00, 
1982.00, 
1983.00, 
1984.00, 
1985.00, 
1986.00, 
1987.00, 
1988.00, 
1989.00, 
1990.00, 
1991.00, 
1992.00, 
1993.00, 
1994.00, 
1995.00, 
1996.00, 
1997.00, 
1998.00, 
1999.00, 
2000.00, 
2001.00, 
2002.00, 
2003.00, 
2004.00, 
2005.00, 
2006.00, 
2007.00, 
2008.00, 
2009.00, 
2010.00, 
2011.00, 
2012.00, 
2013.00, 
2014.00, 
2015.00, 
2016.00, 
2017.00, 
2018.00, 
2019.00, 
2020.00, 
2021.00, 
2022.00, 
2023.00, 
2024.00, 
2025.00, 
2026.00, 
2027.00, 
2028.00, 
2029.00, 
2030.00, 
2031.00, 
2032.00, 
2033.00, 
2034.00, 
2035.00, 
2036.00, 
2037.00, 
2038.00, 
2039.00, 
2040.00, 
2041.00, 
2042.00, 
2043.00, 
2044.00, 
2045.00, 
2046.00, 
2047.00, 
2048.00, 
2049.00, 
2050.00, 
2051.00, 
2052.00, 
2053.00, 
2054.00, 
2055.00, 
2056.00, 
2057.00, 
2058.00, 
2059.00, 
2060.00, 
2061.00, 
2062.00, 
2063.00, 
2064.00, 
2065.00, 
2066.00, 
2067.00, 
2068.00, 
2069.00, 
2070.00, 
2071.00, 
2072.00, 
2073.00, 
2074.00, 
2075.00, 
2076.00, 
2077.00, 
2078.00, 
2079.00, 
2080.00, 
2081.00, 
2082.00, 
2083.00, 
2084.00, 
2085.00, 
2086.00, 
2087.00, 
2088.00, 
2089.00, 
2090.00, 
2091.00, 
2092.00, 
2093.00, 
2094.00, 
2095.00, 
2096.00, 
2097.00, 
2098.00, 
2099.00, 
2100.00, 
2101.00, 
2102.00, 
2103.00, 
2104.00, 
2105.00, 
2106.00, 
2107.00, 
2108.00, 
2109.00, 
2110.00, 
2111.00, 
2112.00, 
2113.00, 
2114.00, 
2115.00, 
2116.00, 
2117.00, 
2118.00, 
2119.00, 
2120.00, 
2121.00, 
2122.00, 
2123.00, 
2124.00, 
2125.00, 
2126.00, 
2127.00, 
2128.00, 
2129.00, 
2130.00, 
2131.00, 
2132.00, 
2133.00, 
2134.00, 
2135.00, 
2136.00, 
2137.00, 
2138.00, 
2139.00, 
2140.00, 
2141.00, 
2142.00, 
2143.00, 
2144.00, 
2145.00, 
2146.00, 
2147.00, 
2148.00, 
2149.00, 
2150.00, 
2151.00, 
2152.00, 
2153.00, 
2154.00, 
2155.00, 
2156.00, 
2157.00, 
2158.00, 
2159.00, 
2160.00, 
2161.00, 
2162.00, 
2163.00, 
2164.00, 
2165.00, 
2166.00, 
2167.00, 
2168.00, 
2169.00, 
2170.00, 
2171.00, 
2172.00, 
2173.00, 
2174.00, 
2175.00, 
2176.00, 
2177.00, 
2178.00, 
2179.00, 
2180.00, 
2181.00, 
2182.00, 
2183.00, 
2184.00, 
2185.00, 
2186.00, 
2187.00, 
2188.00, 
2189.00, 
2190.00, 
2191.00, 
2192.00, 
2193.00, 
2194.00, 
2195.00, 
2196.00, 
2197.00, 
2198.00, 
2199.00, 
2200.00, 
2201.00, 
2202.00, 
2203.00, 
2204.00, 
2205.00, 
2206.00, 
2207.00, 
2208.00, 
2209.00, 
2210.00, 
2211.00, 
2212.00, 
2213.00, 
2214.00, 
2215.00, 
2216.00, 
2217.00, 
2218.00, 
2219.00, 
2220.00, 
2221.00, 
2222.00, 
2223.00, 
2224.00, 
2225.00, 
2226.00, 
2227.00, 
2228.00, 
2229.00, 
2230.00, 
2231.00, 
2232.00, 
2233.00, 
2234.00, 
2235.00, 
2236.00, 
2237.00, 
2238.00, 
2239.00, 
2240.00, 
2241.00, 
2242.00, 
2243.00, 
2244.00, 
2245.00, 
2246.00, 
2247.00, 
2248.00, 
2249.00, 
2250.00, 
2251.00, 
2252.00, 
2253.00, 
2254.00, 
2255.00, 
2256.00, 
2257.00, 
2258.00, 
2259.00, 
2260.00, 
2261.00, 
2262.00, 
2263.00, 
2264.00, 
2265.00, 
2266.00, 
2267.00, 
2268.00, 
2269.00, 
2270.00, 
2271.00, 
2272.00, 
2273.00, 
2274.00, 
2275.00, 
2276.00, 
2277.00, 
2278.00, 
2279.00, 
2280.00, 
2281.00, 
2282.00, 
2283.00, 
2284.00, 
2285.00, 
2286.00, 
2287.00, 
2288.00, 
2289.00, 
2290.00, 
2291.00, 
2292.00, 
2293.00, 
2294.00, 
2295.00, 
2296.00, 
2297.00, 
2298.00, 
2299.00, 
2300.00, 
2301.00, 
2302.00, 
2303.00, 
2304.00, 
2305.00, 
2306.00, 
2307.00, 
2308.00, 
2309.00, 
2310.00, 
2311.00, 
2312.00, 
2313.00, 
2314.00, 
2315.00, 
2316.00, 
2317.00, 
2318.00, 
2319.00, 
2320.00, 
2321.00, 
2322.00, 
2323.00, 
2324.00, 
2325.00, 
2326.00, 
2327.00, 
2328.00, 
2329.00, 
2330.00, 
2331.00, 
2332.00, 
2333.00, 
2334.00, 
2335.00, 
2336.00, 
2337.00, 
2338.00, 
2339.00, 
2340.00, 
2341.00, 
2342.00, 
2343.00, 
2344.00, 
2345.00, 
2346.00, 
2347.00, 
2348.00, 
2349.00, 
2350.00, 
2351.00, 
2352.00, 
2353.00, 
2354.00, 
2355.00, 
2356.00, 
2357.00, 
2358.00, 
2359.00, 
2360.00, 
2361.00, 
2362.00, 
2363.00, 
2364.00, 
2365.00, 
2366.00, 
2367.00, 
2368.00, 
2369.00, 
2370.00, 
2371.00, 
2372.00, 
2373.00, 
2374.00, 
2375.00, 
2376.00, 
2377.00, 
2378.00, 
2379.00, 
2380.00, 
2381.00, 
2382.00, 
2383.00, 
2384.00, 
2385.00, 
2386.00, 
2387.00, 
2388.00, 
2389.00, 
2390.00, 
2391.00, 
2392.00, 
2393.00, 
2394.00, 
2395.00, 
2396.00, 
2397.00, 
2398.00, 
2399.00, 
2400.00, 
2401.00, 
2402.00, 
2403.00, 
2404.00, 
2405.00, 
2406.00, 
2407.00, 
2408.00, 
2409.00, 
2410.00, 
2411.00, 
2412.00, 
2413.00, 
2414.00, 
2415.00, 
2416.00, 
2417.00, 
2418.00, 
2419.00, 
2420.00, 
2421.00, 
2422.00, 
2423.00, 
2424.00, 
2425.00, 
2426.00, 
2427.00, 
2428.00, 
2429.00, 
2430.00, 
2431.00, 
2432.00, 
2433.00, 
2434.00, 
2435.00, 
2436.00, 
2437.00, 
2438.00, 
2439.00, 
2440.00, 
2441.00, 
2442.00, 
2443.00, 
2444.00, 
2445.00, 
2446.00, 
2447.00, 
2448.00, 
2449.00, 
2450.00, 
2451.00, 
2452.00, 
2453.00, 
2454.00, 
2455.00, 
2456.00, 
2457.00, 
2458.00, 
2459.00, 
2460.00, 
2461.00, 
2462.00, 
2463.00, 
2464.00, 
2465.00, 
2466.00, 
2467.00, 
2468.00, 
2469.00, 
2470.00, 
2471.00, 
2472.00, 
2473.00, 
2474.00, 
2475.00, 
2476.00, 
2477.00, 
2478.00, 
2479.00, 
2480.00, 
2481.00, 
2482.00, 
2483.00, 
2484.00, 
2485.00, 
2486.00, 
2487.00, 
2488.00, 
2489.00, 
2490.00, 
2491.00, 
2492.00, 
2493.00, 
2494.00, 
2495.00, 
2496.00, 
2497.00, 
2498.00, 
2499.00, 
2500.00, 
2501.00, 
2502.00, 
2503.00, 
2504.00, 
2505.00, 
2506.00, 
2507.00, 
2508.00, 
2509.00, 
2510.00, 
2511.00, 
2512.00, 
2513.00, 
2514.00, 
2515.00, 
2516.00, 
2517.00, 
2518.00, 
2519.00, 
2520.00, 
2521.00, 
2522.00, 
2523.00, 
2524.00, 
2525.00, 
2526.00, 
2527.00, 
2528.00, 
2529.00, 
2530.00, 
2531.00, 
2532.00, 
2533.00, 
2534.00, 
2535.00, 
2536.00, 
2537.00, 
2538.00, 
2539.00, 
2540.00, 
2541.00, 
2542.00, 
2543.00, 
2544.00, 
2545.00, 
2546.00, 
2547.00, 
2548.00, 
2549.00, 
2550.00, 
2551.00, 
2552.00, 
2553.00, 
2554.00, 
2555.00, 
2556.00, 
2557.00, 
2558.00, 
2559.00, 
2560.00, 
2561.00, 
2562.00, 
2563.00, 
2564.00, 
2565.00, 
2566.00, 
2567.00, 
2568.00, 
2569.00, 
2570.00, 
2571.00, 
2572.00, 
2573.00, 
2574.00, 
2575.00, 
2576.00, 
2577.00, 
2578.00, 
2579.00, 
2580.00, 
2581.00, 
2582.00, 
2583.00, 
2584.00, 
2585.00, 
2586.00, 
2587.00, 
2588.00, 
2589.00, 
2590.00, 
2591.00, 
2592.00, 
2593.00, 
2594.00, 
2595.00, 
2596.00, 
2597.00, 
2598.00, 
2599.00, 
2600.00, 
