"2cP5 - RawData"
"Wavelength nm.","T%"
200.00,0.002
201.00,-0.000
202.00,0.001
203.00,0.001
204.00,0.001
205.00,0.000
206.00,-0.000
207.00,-0.003
208.00,0.001
209.00,-0.001
210.00,0.004
211.00,0.003
212.00,0.002
213.00,0.000
214.00,0.001
215.00,0.002
216.00,-0.001
217.00,0.001
218.00,0.003
219.00,0.002
220.00,0.001
221.00,-0.001
222.00,0.000
223.00,0.002
224.00,0.002
225.00,0.001
226.00,0.000
227.00,-0.001
228.00,0.003
229.00,-0.001
230.00,-0.000
231.00,0.000
232.00,-0.001
233.00,0.001
234.00,-0.000
235.00,-0.001
236.00,-0.001
237.00,0.004
238.00,0.001
239.00,0.000
240.00,0.003
241.00,0.001
242.00,-0.001
243.00,-0.001
244.00,0.001
245.00,0.000
246.00,-0.002
247.00,-0.000
248.00,0.001
249.00,0.000
250.00,-0.001
251.00,0.001
252.00,0.002
253.00,-0.000
254.00,-0.002
255.00,0.001
256.00,0.002
257.00,-0.000
258.00,0.001
259.00,-0.002
260.00,-0.002
261.00,0.002
262.00,-0.001
263.00,-0.001
264.00,-0.000
265.00,-0.001
266.00,-0.001
267.00,0.002
268.00,0.002
269.00,0.000
270.00,-0.001
271.00,-0.000
272.00,-0.000
273.00,-0.000
274.00,0.001
275.00,0.001
276.00,0.001
277.00,0.000
278.00,-0.001
279.00,-0.000
280.00,0.001
281.00,0.001
282.00,0.001
283.00,0.000
284.00,0.001
285.00,-0.002
286.00,0.000
287.00,-0.000
288.00,0.000
289.00,0.000
290.00,-0.001
291.00,0.001
292.00,-0.000
293.00,-0.000
294.00,0.002
295.00,-0.001
296.00,0.002
297.00,0.001
298.00,0.000
299.00,0.002
300.00,0.001
301.00,0.002
302.00,0.004
303.00,0.005
304.00,0.011
305.00,0.015
306.00,0.022
307.00,0.032
308.00,0.054
309.00,0.079
310.00,0.114
311.00,0.151
312.00,0.207
313.00,0.281
314.00,0.363
315.00,0.476
316.00,0.597
317.00,0.757
318.00,0.924
319.00,1.141
320.00,1.370
321.00,1.622
322.00,1.881
323.00,2.278
324.00,2.631
325.00,2.980
326.00,3.340
327.00,3.768
328.00,4.207
329.00,4.635
330.00,5.075
331.00,5.528
332.00,5.977
333.00,6.481
334.00,6.949
335.00,7.410
336.00,7.871
337.00,8.340
338.00,8.798
339.00,9.206
340.00,9.653
341.00,10.120
342.00,10.439
343.00,10.837
344.00,11.201
345.00,11.509
346.00,11.881
347.00,12.151
348.00,12.455
349.00,12.729
350.00,12.972
351.00,13.197
352.00,13.391
353.00,13.619
354.00,13.792
355.00,13.969
356.00,14.137
357.00,14.298
358.00,14.422
359.00,14.579
360.00,14.676
361.00,14.774
362.00,14.811
363.00,14.941
364.00,14.975
365.00,15.047
366.00,15.091
367.00,15.124
368.00,15.152
369.00,15.185
370.00,15.179
371.00,15.188
372.00,15.180
373.00,15.188
374.00,15.130
375.00,15.116
376.00,15.073
377.00,15.001
378.00,14.978
379.00,14.957
380.00,14.894
381.00,14.871
382.00,14.876
383.00,14.829
384.00,14.868
385.00,14.887
386.00,14.859
387.00,14.903
388.00,14.840
389.00,14.896
390.00,14.915
391.00,14.889
392.00,14.893
393.00,14.885
394.00,14.851
395.00,14.863
396.00,14.847
397.00,14.854
398.00,14.835
399.00,14.814
400.00,14.824
401.00,14.803
402.00,14.796
403.00,14.779
404.00,14.768
405.00,14.758
406.00,14.747
407.00,14.696
408.00,14.727
409.00,14.693
410.00,14.647
411.00,14.657
412.00,14.632
413.00,14.655
414.00,14.663
415.00,14.676
416.00,14.693
417.00,14.683
418.00,14.710
419.00,14.731
420.00,14.735
421.00,14.791
422.00,14.839
423.00,14.859
424.00,14.881
425.00,14.899
426.00,14.945
427.00,14.976
428.00,15.025
429.00,15.060
430.00,15.112
431.00,15.160
432.00,15.209
433.00,15.266
434.00,15.304
435.00,15.376
436.00,15.447
437.00,15.499
438.00,15.565
439.00,15.645
440.00,15.718
441.00,15.793
442.00,15.883
443.00,15.939
444.00,16.072
445.00,16.114
446.00,16.229
447.00,16.273
448.00,16.379
449.00,16.482
450.00,16.575
451.00,16.679
452.00,16.797
453.00,16.887
454.00,16.973
455.00,17.117
456.00,17.232
457.00,17.328
458.00,17.447
459.00,17.556
460.00,17.699
461.00,17.821
462.00,17.926
463.00,18.041
464.00,18.198
465.00,18.297
466.00,18.422
467.00,18.525
468.00,18.640
469.00,18.813
470.00,18.851
471.00,19.029
472.00,19.195
473.00,19.260
474.00,19.414
475.00,19.503
476.00,19.622
477.00,19.827
478.00,19.937
479.00,20.109
480.00,20.253
481.00,20.409
482.00,20.576
483.00,20.746
484.00,20.870
485.00,21.035
486.00,21.166
487.00,21.314
488.00,21.490
489.00,21.632
490.00,21.766
491.00,21.948
492.00,22.058
493.00,22.259
494.00,22.369
495.00,22.432
496.00,22.586
497.00,22.755
498.00,22.843
499.00,23.021
500.00,23.138
501.00,23.254
502.00,23.442
503.00,23.578
504.00,23.650
505.00,23.852
506.00,24.001
507.00,24.111
508.00,24.270
509.00,24.403
510.00,24.560
511.00,24.666
512.00,24.778
513.00,24.912
514.00,25.104
515.00,25.167
516.00,25.317
517.00,25.433
518.00,25.557
519.00,25.662
520.00,25.806
521.00,25.852
522.00,25.999
523.00,26.154
524.00,26.200
525.00,26.360
526.00,26.435
527.00,26.543
528.00,26.615
529.00,26.747
530.00,26.828
531.00,26.970
532.00,27.097
533.00,27.173
534.00,27.271
535.00,27.366
536.00,27.515
537.00,27.547
538.00,27.670
539.00,27.756
540.00,27.803
541.00,27.946
542.00,28.005
543.00,28.050
544.00,28.154
545.00,28.264
546.00,28.286
547.00,28.393
548.00,28.419
549.00,28.526
550.00,28.639
551.00,28.709
552.00,28.755
553.00,28.851
554.00,28.953
555.00,29.011
556.00,29.046
557.00,29.133
558.00,29.230
559.00,29.275
560.00,29.323
561.00,29.413
562.00,29.487
563.00,29.487
564.00,29.613
565.00,29.660
566.00,29.649
567.00,29.729
568.00,29.777
569.00,29.847
570.00,29.882
571.00,29.894
572.00,29.945
573.00,29.998
574.00,29.982
575.00,30.105
576.00,30.163
577.00,30.169
578.00,30.266
579.00,30.303
580.00,30.410
581.00,30.542
582.00,30.583
583.00,30.683
584.00,30.751
585.00,30.788
586.00,30.848
587.00,30.925
588.00,31.009
589.00,31.045
590.00,31.103
591.00,31.182
592.00,31.204
593.00,31.209
594.00,31.286
595.00,31.318
596.00,31.387
597.00,31.445
598.00,31.499
599.00,31.561
600.00,31.593
601.00,31.642
602.00,31.756
603.00,31.773
604.00,31.809
605.00,31.859
606.00,31.913
607.00,31.989
608.00,32.043
609.00,32.092
610.00,32.262
611.00,32.208
612.00,32.285
613.00,32.346
614.00,32.381
615.00,32.401
616.00,32.503
617.00,32.619
618.00,32.590
619.00,32.680
620.00,32.851
621.00,32.847
622.00,32.940
623.00,33.037
624.00,33.099
625.00,33.181
626.00,33.265
627.00,33.272
628.00,33.395
629.00,33.435
630.00,33.517
631.00,33.567
632.00,33.583
633.00,33.752
634.00,33.839
635.00,33.985
636.00,34.063
637.00,34.248
638.00,34.269
639.00,34.389
640.00,34.506
641.00,34.571
642.00,34.661
643.00,34.746
644.00,34.830
645.00,34.956
646.00,35.099
647.00,35.171
648.00,35.314
649.00,35.350
650.00,35.484
651.00,35.579
652.00,35.650
653.00,35.872
654.00,35.911
655.00,35.980
656.00,36.118
657.00,36.219
658.00,36.264
659.00,36.470
660.00,36.735
661.00,36.763
662.00,36.873
663.00,36.944
664.00,37.130
665.00,37.347
666.00,37.348
667.00,37.527
668.00,37.463
669.00,37.807
670.00,37.924
671.00,37.938
672.00,38.064
673.00,38.190
674.00,38.364
675.00,38.446
676.00,38.617
677.00,38.851
678.00,38.877
679.00,39.024
680.00,39.100
681.00,39.236
682.00,39.396
683.00,39.484
684.00,39.751
685.00,39.918
686.00,39.945
687.00,40.013
688.00,40.132
689.00,40.224
690.00,40.365
691.00,40.527
692.00,40.635
693.00,40.770
694.00,40.870
695.00,40.984
696.00,41.105
697.00,41.245
698.00,41.408
699.00,41.466
700.00,41.658
701.00,41.854
702.00,41.851
703.00,41.977
704.00,42.411
705.00,42.110
706.00,42.291
707.00,42.921
708.00,42.667
709.00,42.808
710.00,43.043
711.00,42.975
712.00,43.105
713.00,43.240
714.00,43.307
715.00,43.474
716.00,43.592
717.00,43.626
718.00,43.752
719.00,43.893
720.00,43.882
721.00,48.264
722.00,48.363
723.00,48.506
724.00,48.498
725.00,48.568
726.00,48.677
727.00,48.748
728.00,48.777
729.00,48.877
730.00,48.973
731.00,49.003
732.00,49.005
733.00,49.111
734.00,49.186
735.00,49.299
736.00,49.367
737.00,49.389
738.00,49.500
739.00,49.633
740.00,49.690
741.00,49.778
742.00,49.781
743.00,49.886
744.00,49.914
745.00,49.956
746.00,49.930
747.00,49.994
748.00,50.146
749.00,50.067
750.00,50.171
751.00,50.187
752.00,50.229
753.00,50.147
754.00,50.274
755.00,50.311
756.00,50.366
757.00,50.401
758.00,50.473
759.00,50.485
760.00,50.501
761.00,50.606
762.00,50.603
763.00,50.765
764.00,50.650
765.00,50.706
766.00,50.776
767.00,50.797
768.00,50.901
769.00,50.899
770.00,50.957
771.00,51.004
772.00,51.095
773.00,50.966
774.00,51.182
775.00,51.131
776.00,51.199
777.00,51.265
778.00,51.207
779.00,51.311
780.00,51.349
781.00,51.335
782.00,51.305
783.00,51.400
784.00,51.408
785.00,51.372
786.00,51.443
787.00,51.415
788.00,51.424
789.00,51.405
790.00,51.469
791.00,51.467
792.00,51.480
793.00,51.497
794.00,51.452
795.00,51.502
796.00,51.505
797.00,51.482
798.00,51.539
799.00,51.489
800.00,51.528
801.00,51.553
802.00,51.481
803.00,51.541
804.00,51.499
805.00,51.565
806.00,51.541
807.00,51.604
808.00,51.557
809.00,51.550
810.00,51.523
811.00,51.530
812.00,51.544
813.00,51.501
814.00,51.599
815.00,51.569
816.00,51.578
817.00,51.608
818.00,51.555
819.00,51.543
820.00,51.526
821.00,51.605
822.00,51.531
823.00,51.660
824.00,51.580
825.00,51.577
826.00,51.632
827.00,51.481
828.00,51.457
829.00,51.448
830.00,51.506
831.00,53.572
832.00,53.582
833.00,53.481
834.00,53.535
835.00,53.551
836.00,53.548
837.00,53.516
838.00,53.544
839.00,53.478
840.00,53.453
841.00,53.490
842.00,53.456
843.00,53.465
844.00,53.455
845.00,53.434
846.00,53.459
847.00,53.412
848.00,53.365
849.00,53.387
850.00,53.326
851.00,53.321
852.00,53.294
853.00,53.266
854.00,53.243
855.00,53.209
856.00,53.186
857.00,53.196
858.00,53.189
859.00,53.124
860.00,53.157
861.00,53.123
862.00,53.123
863.00,53.068
864.00,53.117
865.00,53.097
866.00,53.077
867.00,53.032
868.00,53.124
869.00,53.094
870.00,53.033
871.00,53.062
872.00,53.058
873.00,53.039
874.00,53.007
875.00,53.028
876.00,52.997
877.00,53.037
878.00,52.974
879.00,52.998
880.00,52.972
881.00,52.959
882.00,52.929
883.00,52.999
884.00,52.930
885.00,52.903
886.00,52.911
887.00,52.881
888.00,52.840
889.00,52.949
890.00,52.810
891.00,52.843
892.00,52.814
893.00,52.795
894.00,52.808
895.00,52.758
896.00,52.746
897.00,52.727
898.00,52.714
899.00,52.721
900.00,52.693
901.00,52.701
902.00,52.693
903.00,52.647
904.00,52.651
905.00,52.620
906.00,52.626
907.00,52.624
908.00,52.585
909.00,52.563
910.00,52.557
911.00,52.563
912.00,52.521
913.00,52.528
914.00,52.529
915.00,52.483
916.00,52.456
917.00,52.422
918.00,52.427
919.00,52.380
920.00,52.419
921.00,52.388
922.00,52.336
923.00,52.328
924.00,52.332
925.00,52.339
926.00,52.316
927.00,52.242
928.00,52.229
929.00,52.318
930.00,52.226
931.00,52.211
932.00,52.174
933.00,52.167
934.00,52.150
935.00,52.127
936.00,52.137
937.00,52.121
938.00,52.111
939.00,52.070
940.00,52.100
941.00,52.062
942.00,52.012
943.00,51.989
944.00,52.024
945.00,51.961
946.00,51.937
947.00,51.971
948.00,51.914
949.00,51.892
950.00,51.867
951.00,51.863
952.00,51.855
953.00,51.856
954.00,51.820
955.00,51.799
956.00,51.753
957.00,51.713
958.00,51.685
959.00,51.676
960.00,51.655
961.00,51.645
962.00,51.648
963.00,51.610
964.00,51.615
965.00,51.574
966.00,51.598
967.00,51.570
968.00,51.588
969.00,51.547
970.00,51.573
971.00,51.571
972.00,51.534
973.00,51.570
974.00,51.569
975.00,51.563
976.00,51.532
977.00,51.560
978.00,51.583
979.00,51.547
980.00,51.588
981.00,51.588
982.00,51.576
983.00,51.549
984.00,51.587
985.00,51.545
986.00,51.554
987.00,51.589
988.00,51.542
989.00,51.522
990.00,51.560
991.00,51.519
992.00,51.524
993.00,51.506
994.00,51.478
995.00,51.461
996.00,51.463
997.00,51.425
998.00,51.433
999.00,51.432
1000.00,51.402
1001.00,51.409
1002.00,51.395
1003.00,51.391
1004.00,51.338
1005.00,51.324
1006.00,51.358
1007.00,51.343
1008.00,51.320
1009.00,51.303
1010.00,51.289
1011.00,51.260
1012.00,51.265
1013.00,51.232
1014.00,51.242
1015.00,51.238
1016.00,51.174
1017.00,51.200
1018.00,51.239
1019.00,51.187
1020.00,51.154
1021.00,51.170
1022.00,51.140
1023.00,51.122
1024.00,51.099
1025.00,51.082
1026.00,51.070
1027.00,51.030
1028.00,51.058
1029.00,51.029
1030.00,51.014
1031.00,51.004
1032.00,50.963
1033.00,50.968
1034.00,50.951
1035.00,50.911
1036.00,50.891
1037.00,50.872
1038.00,50.847
1039.00,50.848
1040.00,50.811
1041.00,50.781
1042.00,50.794
1043.00,50.760
1044.00,50.772
1045.00,50.772
1046.00,50.753
1047.00,50.762
1048.00,50.799
1049.00,50.758
1050.00,50.812
1051.00,50.833
1052.00,50.807
1053.00,50.804
1054.00,50.813
1055.00,50.828
1056.00,50.845
1057.00,50.863
1058.00,50.862
1059.00,50.845
1060.00,50.846
1061.00,50.847
1062.00,50.826
1063.00,50.852
1064.00,50.825
1065.00,50.838
1066.00,50.812
1067.00,50.808
1068.00,50.803
1069.00,50.803
1070.00,50.762
1071.00,50.734
1072.00,50.757
1073.00,50.721
1074.00,50.699
1075.00,50.690
1076.00,50.703
1077.00,50.690
1078.00,50.660
1079.00,50.661
1080.00,50.670
1081.00,50.645
1082.00,50.644
1083.00,50.621
1084.00,50.628
1085.00,50.602
1086.00,50.613
1087.00,50.590
1088.00,50.598
1089.00,50.595
1090.00,50.571
1091.00,50.572
1092.00,50.604
1093.00,50.559
1094.00,50.565
1095.00,50.531
1096.00,50.539
1097.00,50.518
1098.00,50.512
1099.00,50.485
1100.00,50.478
1101.00,50.452
1102.00,50.460
1103.00,50.440
1104.00,50.437
1105.00,50.433
1106.00,50.430
1107.00,50.406
1108.00,50.421
1109.00,50.404
1110.00,50.398
1111.00,50.374
1112.00,50.391
1113.00,50.376
1114.00,50.380
1115.00,50.367
1116.00,50.391
1117.00,50.342
1118.00,50.333
1119.00,50.328
1120.00,50.339
1121.00,50.319
1122.00,50.318
1123.00,50.284
1124.00,50.309
1125.00,50.289
1126.00,50.288
1127.00,50.295
1128.00,50.274
1129.00,50.239
1130.00,50.239
1131.00,50.226
1132.00,50.235
1133.00,50.233
1134.00,50.215
1135.00,50.202
1136.00,50.225
1137.00,50.191
1138.00,50.197
1139.00,50.183
1140.00,50.188
1141.00,50.167
1142.00,50.175
1143.00,50.183
1144.00,50.171
1145.00,50.136
1146.00,50.153
1147.00,50.158
1148.00,50.136
1149.00,50.158
1150.00,50.157
1151.00,50.136
1152.00,50.147
1153.00,50.138
1154.00,50.140
1155.00,50.119
1156.00,50.111
1157.00,50.133
1158.00,50.136
1159.00,50.110
1160.00,50.130
1161.00,50.119
1162.00,50.095
1163.00,50.106
1164.00,50.092
1165.00,50.091
1166.00,50.080
1167.00,50.050
1168.00,50.063
1169.00,50.082
1170.00,50.055
1171.00,50.063
1172.00,50.062
1173.00,50.056
1174.00,50.046
1175.00,50.037
1176.00,50.047
1177.00,50.021
1178.00,50.014
1179.00,50.037
1180.00,50.060
1181.00,50.059
1182.00,50.080
1183.00,50.057
1184.00,50.045
1185.00,50.061
1186.00,50.051
1187.00,50.067
1188.00,50.053
1189.00,50.026
1190.00,50.016
1191.00,50.031
1192.00,50.012
1193.00,50.024
1194.00,50.019
1195.00,49.994
1196.00,50.025
1197.00,50.030
1198.00,50.025
1199.00,50.001
1200.00,50.012
1201.00,50.031
1202.00,50.019
1203.00,50.013
1204.00,50.052
1205.00,50.012
1206.00,50.007
1207.00,50.013
1208.00,49.994
1209.00,50.016
1210.00,49.974
1211.00,49.992
1212.00,49.992
1213.00,49.970
1214.00,49.986
1215.00,49.984
1216.00,49.996
1217.00,49.973
1218.00,49.992
1219.00,49.982
1220.00,49.988
1221.00,49.995
1222.00,49.965
1223.00,49.992
1224.00,49.987
1225.00,49.976
1226.00,49.966
1227.00,49.978
1228.00,49.977
1229.00,49.990
1230.00,50.005
1231.00,49.998
1232.00,50.030
1233.00,50.023
1234.00,50.050
1235.00,50.036
1236.00,50.025
1237.00,50.016
1238.00,50.023
1239.00,50.013
1240.00,50.003
1241.00,49.979
1242.00,49.985
1243.00,50.005
1244.00,49.972
1245.00,50.016
1246.00,50.036
1247.00,50.028
1248.00,50.021
1249.00,50.031
1250.00,50.032
1251.00,50.063
1252.00,50.042
1253.00,50.050
1254.00,50.059
1255.00,50.073
1256.00,50.068
1257.00,50.057
1258.00,50.044
1259.00,50.077
1260.00,50.098
1261.00,50.078
1262.00,50.100
1263.00,50.084
1264.00,50.093
1265.00,50.093
1266.00,50.077
1267.00,50.094
1268.00,50.119
1269.00,50.095
1270.00,50.128
1271.00,50.112
1272.00,50.122
1273.00,50.116
1274.00,50.119
1275.00,50.116
1276.00,50.117
1277.00,50.101
1278.00,50.162
1279.00,50.149
1280.00,50.132
1281.00,50.158
1282.00,50.157
1283.00,50.156
1284.00,50.184
1285.00,50.169
1286.00,50.159
1287.00,50.159
1288.00,50.145
1289.00,50.154
1290.00,50.167
1291.00,50.167
1292.00,50.184
1293.00,50.155
1294.00,50.162
1295.00,50.218
1296.00,50.188
1297.00,50.219
1298.00,50.204
1299.00,50.201
1300.00,50.217
1301.00,50.218
1302.00,50.229
1303.00,50.249
1304.00,50.224
1305.00,50.235
1306.00,50.257
1307.00,50.265
1308.00,50.262
1309.00,50.278
1310.00,50.282
1311.00,50.303
1312.00,50.295
1313.00,50.266
1314.00,50.314
1315.00,50.289
1316.00,50.288
1317.00,50.320
1318.00,50.329
1319.00,50.320
1320.00,50.329
1321.00,50.484
1322.00,50.506
1323.00,50.479
1324.00,50.472
1325.00,50.487
1326.00,50.495
1327.00,50.452
1328.00,50.461
1329.00,50.425
1330.00,50.434
1331.00,50.447
1332.00,50.447
1333.00,50.461
1334.00,50.467
1335.00,50.488
1336.00,50.508
1337.00,50.545
1338.00,50.612
1339.00,50.622
1340.00,50.678
1341.00,50.751
1342.00,50.839
1343.00,50.867
1344.00,50.918
1345.00,50.973
1346.00,51.011
1347.00,51.080
1348.00,51.072
1349.00,51.108
1350.00,51.118
1351.00,51.116
1352.00,51.137
1353.00,51.207
1354.00,51.183
1355.00,51.165
1356.00,51.097
1357.00,51.139
1358.00,51.210
1359.00,51.189
1360.00,51.156
1361.00,51.295
1362.00,51.187
1363.00,51.160
1364.00,51.404
1365.00,51.180
1366.00,51.213
1367.00,51.200
1368.00,51.099
1369.00,51.196
1370.00,51.186
1371.00,51.185
1372.00,51.144
1373.00,51.119
1374.00,51.157
1375.00,51.162
1376.00,51.131
1377.00,51.160
1378.00,51.179
1379.00,51.164
1380.00,51.194
1381.00,51.181
1382.00,51.136
1383.00,51.259
1384.00,51.130
1385.00,51.085
1386.00,51.221
1387.00,51.117
1388.00,51.046
1389.00,51.079
1390.00,51.189
1391.00,51.220
1392.00,51.087
1393.00,51.169
1394.00,51.220
1395.00,51.094
1396.00,51.065
1397.00,51.174
1398.00,51.289
1399.00,51.373
1400.00,51.182
1401.00,51.102
1402.00,51.249
1403.00,51.208
1404.00,51.091
1405.00,51.174
1406.00,51.183
1407.00,51.212
1408.00,51.191
1409.00,51.182
1410.00,51.160
1411.00,51.219
1412.00,51.306
1413.00,51.096
1414.00,51.182
1415.00,51.217
1416.00,51.248
1417.00,51.246
1418.00,51.258
1419.00,51.238
1420.00,51.259
1421.00,51.275
1422.00,51.355
1423.00,51.284
1424.00,51.365
1425.00,51.365
1426.00,51.346
1427.00,51.387
1428.00,51.363
1429.00,51.406
1430.00,51.464
1431.00,51.420
1432.00,51.435
1433.00,51.441
1434.00,51.425
1435.00,51.496
1436.00,51.499
1437.00,51.487
1438.00,51.527
1439.00,51.546
1440.00,51.544
1441.00,51.575
1442.00,51.547
1443.00,51.595
1444.00,51.600
1445.00,51.613
1446.00,51.603
1447.00,51.638
1448.00,51.644
1449.00,51.709
1450.00,51.675
1451.00,51.716
1452.00,51.731
1453.00,51.738
1454.00,51.739
1455.00,51.779
1456.00,51.747
1457.00,51.818
1458.00,51.791
1459.00,51.795
1460.00,51.843
1461.00,51.825
1462.00,51.875
1463.00,51.884
1464.00,51.858
1465.00,51.908
1466.00,51.889
1467.00,51.915
1468.00,51.982
1469.00,51.949
1470.00,51.943
1471.00,51.987
1472.00,51.984
1473.00,51.992
1474.00,52.011
1475.00,52.016
1476.00,52.058
1477.00,52.045
1478.00,52.053
1479.00,52.098
1480.00,52.061
1481.00,52.081
1482.00,52.126
1483.00,52.114
1484.00,52.152
1485.00,52.168
1486.00,52.141
1487.00,52.166
1488.00,52.190
1489.00,52.187
1490.00,52.209
1491.00,52.212
1492.00,52.194
1493.00,52.239
1494.00,52.227
1495.00,52.249
1496.00,52.264
1497.00,52.282
1498.00,52.293
1499.00,52.318
1500.00,52.319
1501.00, 
1502.00, 
1503.00, 
1504.00, 
1505.00, 
1506.00, 
1507.00, 
1508.00, 
1509.00, 
1510.00, 
1511.00, 
1512.00, 
1513.00, 
1514.00, 
1515.00, 
1516.00, 
1517.00, 
1518.00, 
1519.00, 
1520.00, 
1521.00, 
1522.00, 
1523.00, 
1524.00, 
1525.00, 
1526.00, 
1527.00, 
1528.00, 
1529.00, 
1530.00, 
1531.00, 
1532.00, 
1533.00, 
1534.00, 
1535.00, 
1536.00, 
1537.00, 
1538.00, 
1539.00, 
1540.00, 
1541.00, 
1542.00, 
1543.00, 
1544.00, 
1545.00, 
1546.00, 
1547.00, 
1548.00, 
1549.00, 
1550.00, 
1551.00, 
1552.00, 
1553.00, 
1554.00, 
1555.00, 
1556.00, 
1557.00, 
1558.00, 
1559.00, 
1560.00, 
1561.00, 
1562.00, 
1563.00, 
1564.00, 
1565.00, 
1566.00, 
1567.00, 
1568.00, 
1569.00, 
1570.00, 
1571.00, 
1572.00, 
1573.00, 
1574.00, 
1575.00, 
1576.00, 
1577.00, 
1578.00, 
1579.00, 
1580.00, 
1581.00, 
1582.00, 
1583.00, 
1584.00, 
1585.00, 
1586.00, 
1587.00, 
1588.00, 
1589.00, 
1590.00, 
1591.00, 
1592.00, 
1593.00, 
1594.00, 
1595.00, 
1596.00, 
1597.00, 
1598.00, 
1599.00, 
1600.00, 
1601.00, 
1602.00, 
1603.00, 
1604.00, 
1605.00, 
1606.00, 
1607.00, 
1608.00, 
1609.00, 
1610.00, 
1611.00, 
1612.00, 
1613.00, 
1614.00, 
1615.00, 
1616.00, 
1617.00, 
1618.00, 
1619.00, 
1620.00, 
1621.00, 
1622.00, 
1623.00, 
1624.00, 
1625.00, 
1626.00, 
1627.00, 
1628.00, 
1629.00, 
1630.00, 
1631.00, 
1632.00, 
1633.00, 
1634.00, 
1635.00, 
1636.00, 
1637.00, 
1638.00, 
1639.00, 
1640.00, 
1641.00, 
1642.00, 
1643.00, 
1644.00, 
1645.00, 
1646.00, 
1647.00, 
1648.00, 
1649.00, 
1650.00, 
1651.00, 
1652.00, 
1653.00, 
1654.00, 
1655.00, 
1656.00, 
1657.00, 
1658.00, 
1659.00, 
1660.00, 
1661.00, 
1662.00, 
1663.00, 
1664.00, 
1665.00, 
1666.00, 
1667.00, 
1668.00, 
1669.00, 
1670.00, 
1671.00, 
1672.00, 
1673.00, 
1674.00, 
1675.00, 
1676.00, 
1677.00, 
1678.00, 
1679.00, 
1680.00, 
1681.00, 
1682.00, 
1683.00, 
1684.00, 
1685.00, 
1686.00, 
1687.00, 
1688.00, 
1689.00, 
1690.00, 
1691.00, 
1692.00, 
1693.00, 
1694.00, 
1695.00, 
1696.00, 
1697.00, 
1698.00, 
1699.00, 
1700.00, 
1701.00, 
1702.00, 
1703.00, 
1704.00, 
1705.00, 
1706.00, 
1707.00, 
1708.00, 
1709.00, 
1710.00, 
1711.00, 
1712.00, 
1713.00, 
1714.00, 
1715.00, 
1716.00, 
1717.00, 
1718.00, 
1719.00, 
1720.00, 
1721.00, 
1722.00, 
1723.00, 
1724.00, 
1725.00, 
1726.00, 
1727.00, 
1728.00, 
1729.00, 
1730.00, 
1731.00, 
1732.00, 
1733.00, 
1734.00, 
1735.00, 
1736.00, 
1737.00, 
1738.00, 
1739.00, 
1740.00, 
1741.00, 
1742.00, 
1743.00, 
1744.00, 
1745.00, 
1746.00, 
1747.00, 
1748.00, 
1749.00, 
1750.00, 
1751.00, 
1752.00, 
1753.00, 
1754.00, 
1755.00, 
1756.00, 
1757.00, 
1758.00, 
1759.00, 
1760.00, 
1761.00, 
1762.00, 
1763.00, 
1764.00, 
1765.00, 
1766.00, 
1767.00, 
1768.00, 
1769.00, 
1770.00, 
1771.00, 
1772.00, 
1773.00, 
1774.00, 
1775.00, 
1776.00, 
1777.00, 
1778.00, 
1779.00, 
1780.00, 
1781.00, 
1782.00, 
1783.00, 
1784.00, 
1785.00, 
1786.00, 
1787.00, 
1788.00, 
1789.00, 
1790.00, 
1791.00, 
1792.00, 
1793.00, 
1794.00, 
1795.00, 
1796.00, 
1797.00, 
1798.00, 
1799.00, 
1800.00, 
1801.00, 
1802.00, 
1803.00, 
1804.00, 
1805.00, 
1806.00, 
1807.00, 
1808.00, 
1809.00, 
1810.00, 
1811.00, 
1812.00, 
1813.00, 
1814.00, 
1815.00, 
1816.00, 
1817.00, 
1818.00, 
1819.00, 
1820.00, 
1821.00, 
1822.00, 
1823.00, 
1824.00, 
1825.00, 
1826.00, 
1827.00, 
1828.00, 
1829.00, 
1830.00, 
1831.00, 
1832.00, 
1833.00, 
1834.00, 
1835.00, 
1836.00, 
1837.00, 
1838.00, 
1839.00, 
1840.00, 
1841.00, 
1842.00, 
1843.00, 
1844.00, 
1845.00, 
1846.00, 
1847.00, 
1848.00, 
1849.00, 
1850.00, 
1851.00, 
1852.00, 
1853.00, 
1854.00, 
1855.00, 
1856.00, 
1857.00, 
1858.00, 
1859.00, 
1860.00, 
1861.00, 
1862.00, 
1863.00, 
1864.00, 
1865.00, 
1866.00, 
1867.00, 
1868.00, 
1869.00, 
1870.00, 
1871.00, 
1872.00, 
1873.00, 
1874.00, 
1875.00, 
1876.00, 
1877.00, 
1878.00, 
1879.00, 
1880.00, 
1881.00, 
1882.00, 
1883.00, 
1884.00, 
1885.00, 
1886.00, 
1887.00, 
1888.00, 
1889.00, 
1890.00, 
1891.00, 
1892.00, 
1893.00, 
1894.00, 
1895.00, 
1896.00, 
1897.00, 
1898.00, 
1899.00, 
1900.00, 
1901.00, 
1902.00, 
1903.00, 
1904.00, 
1905.00, 
1906.00, 
1907.00, 
1908.00, 
1909.00, 
1910.00, 
1911.00, 
1912.00, 
1913.00, 
1914.00, 
1915.00, 
1916.00, 
1917.00, 
1918.00, 
1919.00, 
1920.00, 
1921.00, 
1922.00, 
1923.00, 
1924.00, 
1925.00, 
1926.00, 
1927.00, 
1928.00, 
1929.00, 
1930.00, 
1931.00, 
1932.00, 
1933.00, 
1934.00, 
1935.00, 
1936.00, 
1937.00, 
1938.00, 
1939.00, 
1940.00, 
1941.00, 
1942.00, 
1943.00, 
1944.00, 
1945.00, 
1946.00, 
1947.00, 
1948.00, 
1949.00, 
1950.00, 
1951.00, 
1952.00, 
1953.00, 
1954.00, 
1955.00, 
1956.00, 
1957.00, 
1958.00, 
1959.00, 
1960.00, 
1961.00, 
1962.00, 
1963.00, 
1964.00, 
1965.00, 
1966.00, 
1967.00, 
1968.00, 
1969.00, 
1970.00, 
1971.00, 
1972.00, 
1973.00, 
1974.00, 
1975.00, 
1976.00, 
1977.00, 
1978.00, 
1979.00, 
1980.00, 
1981.00, 
1982.00, 
1983.00, 
1984.00, 
1985.00, 
1986.00, 
1987.00, 
1988.00, 
1989.00, 
1990.00, 
1991.00, 
1992.00, 
1993.00, 
1994.00, 
1995.00, 
1996.00, 
1997.00, 
1998.00, 
1999.00, 
2000.00, 
2001.00, 
2002.00, 
2003.00, 
2004.00, 
2005.00, 
2006.00, 
2007.00, 
2008.00, 
2009.00, 
2010.00, 
2011.00, 
2012.00, 
2013.00, 
2014.00, 
2015.00, 
2016.00, 
2017.00, 
2018.00, 
2019.00, 
2020.00, 
2021.00, 
2022.00, 
2023.00, 
2024.00, 
2025.00, 
2026.00, 
2027.00, 
2028.00, 
2029.00, 
2030.00, 
2031.00, 
2032.00, 
2033.00, 
2034.00, 
2035.00, 
2036.00, 
2037.00, 
2038.00, 
2039.00, 
2040.00, 
2041.00, 
2042.00, 
2043.00, 
2044.00, 
2045.00, 
2046.00, 
2047.00, 
2048.00, 
2049.00, 
2050.00, 
2051.00, 
2052.00, 
2053.00, 
2054.00, 
2055.00, 
2056.00, 
2057.00, 
2058.00, 
2059.00, 
2060.00, 
2061.00, 
2062.00, 
2063.00, 
2064.00, 
2065.00, 
2066.00, 
2067.00, 
2068.00, 
2069.00, 
2070.00, 
2071.00, 
2072.00, 
2073.00, 
2074.00, 
2075.00, 
2076.00, 
2077.00, 
2078.00, 
2079.00, 
2080.00, 
2081.00, 
2082.00, 
2083.00, 
2084.00, 
2085.00, 
2086.00, 
2087.00, 
2088.00, 
2089.00, 
2090.00, 
2091.00, 
2092.00, 
2093.00, 
2094.00, 
2095.00, 
2096.00, 
2097.00, 
2098.00, 
2099.00, 
2100.00, 
2101.00, 
2102.00, 
2103.00, 
2104.00, 
2105.00, 
2106.00, 
2107.00, 
2108.00, 
2109.00, 
2110.00, 
2111.00, 
2112.00, 
2113.00, 
2114.00, 
2115.00, 
2116.00, 
2117.00, 
2118.00, 
2119.00, 
2120.00, 
2121.00, 
2122.00, 
2123.00, 
2124.00, 
2125.00, 
2126.00, 
2127.00, 
2128.00, 
2129.00, 
2130.00, 
2131.00, 
2132.00, 
2133.00, 
2134.00, 
2135.00, 
2136.00, 
2137.00, 
2138.00, 
2139.00, 
2140.00, 
2141.00, 
2142.00, 
2143.00, 
2144.00, 
2145.00, 
2146.00, 
2147.00, 
2148.00, 
2149.00, 
2150.00, 
2151.00, 
2152.00, 
2153.00, 
2154.00, 
2155.00, 
2156.00, 
2157.00, 
2158.00, 
2159.00, 
2160.00, 
2161.00, 
2162.00, 
2163.00, 
2164.00, 
2165.00, 
2166.00, 
2167.00, 
2168.00, 
2169.00, 
2170.00, 
2171.00, 
2172.00, 
2173.00, 
2174.00, 
2175.00, 
2176.00, 
2177.00, 
2178.00, 
2179.00, 
2180.00, 
2181.00, 
2182.00, 
2183.00, 
2184.00, 
2185.00, 
2186.00, 
2187.00, 
2188.00, 
2189.00, 
2190.00, 
2191.00, 
2192.00, 
2193.00, 
2194.00, 
2195.00, 
2196.00, 
2197.00, 
2198.00, 
2199.00, 
2200.00, 
2201.00, 
2202.00, 
2203.00, 
2204.00, 
2205.00, 
2206.00, 
2207.00, 
2208.00, 
2209.00, 
2210.00, 
2211.00, 
2212.00, 
2213.00, 
2214.00, 
2215.00, 
2216.00, 
2217.00, 
2218.00, 
2219.00, 
2220.00, 
2221.00, 
2222.00, 
2223.00, 
2224.00, 
2225.00, 
2226.00, 
2227.00, 
2228.00, 
2229.00, 
2230.00, 
2231.00, 
2232.00, 
2233.00, 
2234.00, 
2235.00, 
2236.00, 
2237.00, 
2238.00, 
2239.00, 
2240.00, 
2241.00, 
2242.00, 
2243.00, 
2244.00, 
2245.00, 
2246.00, 
2247.00, 
2248.00, 
2249.00, 
2250.00, 
2251.00, 
2252.00, 
2253.00, 
2254.00, 
2255.00, 
2256.00, 
2257.00, 
2258.00, 
2259.00, 
2260.00, 
2261.00, 
2262.00, 
2263.00, 
2264.00, 
2265.00, 
2266.00, 
2267.00, 
2268.00, 
2269.00, 
2270.00, 
2271.00, 
2272.00, 
2273.00, 
2274.00, 
2275.00, 
2276.00, 
2277.00, 
2278.00, 
2279.00, 
2280.00, 
2281.00, 
2282.00, 
2283.00, 
2284.00, 
2285.00, 
2286.00, 
2287.00, 
2288.00, 
2289.00, 
2290.00, 
2291.00, 
2292.00, 
2293.00, 
2294.00, 
2295.00, 
2296.00, 
2297.00, 
2298.00, 
2299.00, 
2300.00, 
2301.00, 
2302.00, 
2303.00, 
2304.00, 
2305.00, 
2306.00, 
2307.00, 
2308.00, 
2309.00, 
2310.00, 
2311.00, 
2312.00, 
2313.00, 
2314.00, 
2315.00, 
2316.00, 
2317.00, 
2318.00, 
2319.00, 
2320.00, 
2321.00, 
2322.00, 
2323.00, 
2324.00, 
2325.00, 
2326.00, 
2327.00, 
2328.00, 
2329.00, 
2330.00, 
2331.00, 
2332.00, 
2333.00, 
2334.00, 
2335.00, 
2336.00, 
2337.00, 
2338.00, 
2339.00, 
2340.00, 
2341.00, 
2342.00, 
2343.00, 
2344.00, 
2345.00, 
2346.00, 
2347.00, 
2348.00, 
2349.00, 
2350.00, 
2351.00, 
2352.00, 
2353.00, 
2354.00, 
2355.00, 
2356.00, 
2357.00, 
2358.00, 
2359.00, 
2360.00, 
2361.00, 
2362.00, 
2363.00, 
2364.00, 
2365.00, 
2366.00, 
2367.00, 
2368.00, 
2369.00, 
2370.00, 
2371.00, 
2372.00, 
2373.00, 
2374.00, 
2375.00, 
2376.00, 
2377.00, 
2378.00, 
2379.00, 
2380.00, 
2381.00, 
2382.00, 
2383.00, 
2384.00, 
2385.00, 
2386.00, 
2387.00, 
2388.00, 
2389.00, 
2390.00, 
2391.00, 
2392.00, 
2393.00, 
2394.00, 
2395.00, 
2396.00, 
2397.00, 
2398.00, 
2399.00, 
2400.00, 
2401.00, 
2402.00, 
2403.00, 
2404.00, 
2405.00, 
2406.00, 
2407.00, 
2408.00, 
2409.00, 
2410.00, 
2411.00, 
2412.00, 
2413.00, 
2414.00, 
2415.00, 
2416.00, 
2417.00, 
2418.00, 
2419.00, 
2420.00, 
2421.00, 
2422.00, 
2423.00, 
2424.00, 
2425.00, 
2426.00, 
2427.00, 
2428.00, 
2429.00, 
2430.00, 
2431.00, 
2432.00, 
2433.00, 
2434.00, 
2435.00, 
2436.00, 
2437.00, 
2438.00, 
2439.00, 
2440.00, 
2441.00, 
2442.00, 
2443.00, 
2444.00, 
2445.00, 
2446.00, 
2447.00, 
2448.00, 
2449.00, 
2450.00, 
2451.00, 
2452.00, 
2453.00, 
2454.00, 
2455.00, 
2456.00, 
2457.00, 
2458.00, 
2459.00, 
2460.00, 
2461.00, 
2462.00, 
2463.00, 
2464.00, 
2465.00, 
2466.00, 
2467.00, 
2468.00, 
2469.00, 
2470.00, 
2471.00, 
2472.00, 
2473.00, 
2474.00, 
2475.00, 
2476.00, 
2477.00, 
2478.00, 
2479.00, 
2480.00, 
2481.00, 
2482.00, 
2483.00, 
2484.00, 
2485.00, 
2486.00, 
2487.00, 
2488.00, 
2489.00, 
2490.00, 
2491.00, 
2492.00, 
2493.00, 
2494.00, 
2495.00, 
2496.00, 
2497.00, 
2498.00, 
2499.00, 
2500.00, 
2501.00, 
2502.00, 
2503.00, 
2504.00, 
2505.00, 
2506.00, 
2507.00, 
2508.00, 
2509.00, 
2510.00, 
2511.00, 
2512.00, 
2513.00, 
2514.00, 
2515.00, 
2516.00, 
2517.00, 
2518.00, 
2519.00, 
2520.00, 
2521.00, 
2522.00, 
2523.00, 
2524.00, 
2525.00, 
2526.00, 
2527.00, 
2528.00, 
2529.00, 
2530.00, 
2531.00, 
2532.00, 
2533.00, 
2534.00, 
2535.00, 
2536.00, 
2537.00, 
2538.00, 
2539.00, 
2540.00, 
2541.00, 
2542.00, 
2543.00, 
2544.00, 
2545.00, 
2546.00, 
2547.00, 
2548.00, 
2549.00, 
2550.00, 
2551.00, 
2552.00, 
2553.00, 
2554.00, 
2555.00, 
2556.00, 
2557.00, 
2558.00, 
2559.00, 
2560.00, 
2561.00, 
2562.00, 
2563.00, 
2564.00, 
2565.00, 
2566.00, 
2567.00, 
2568.00, 
2569.00, 
2570.00, 
2571.00, 
2572.00, 
2573.00, 
2574.00, 
2575.00, 
2576.00, 
2577.00, 
2578.00, 
2579.00, 
2580.00, 
2581.00, 
2582.00, 
2583.00, 
2584.00, 
2585.00, 
2586.00, 
2587.00, 
2588.00, 
2589.00, 
2590.00, 
2591.00, 
2592.00, 
2593.00, 
2594.00, 
2595.00, 
2596.00, 
2597.00, 
2598.00, 
2599.00, 
2600.00, 
