"1cP2 - RawData"
"Wavelength nm.","T%"
200.00,0.002
201.00,0.002
202.00,0.004
203.00,0.002
204.00,0.003
205.00,0.003
206.00,0.002
207.00,0.002
208.00,-0.001
209.00,0.000
210.00,0.000
211.00,-0.000
212.00,0.002
213.00,0.002
214.00,0.000
215.00,-0.001
216.00,0.001
217.00,-0.001
218.00,0.000
219.00,0.000
220.00,0.002
221.00,0.000
222.00,0.002
223.00,0.001
224.00,0.001
225.00,-0.001
226.00,-0.000
227.00,0.000
228.00,0.003
229.00,-0.000
230.00,0.000
231.00,0.000
232.00,0.001
233.00,0.000
234.00,0.003
235.00,0.000
236.00,0.001
237.00,0.000
238.00,-0.000
239.00,0.002
240.00,0.002
241.00,0.002
242.00,0.000
243.00,-0.001
244.00,0.001
245.00,0.001
246.00,0.001
247.00,0.000
248.00,-0.000
249.00,0.001
250.00,0.000
251.00,0.001
252.00,0.001
253.00,0.001
254.00,0.000
255.00,0.000
256.00,-0.000
257.00,-0.000
258.00,-0.001
259.00,0.000
260.00,0.000
261.00,0.001
262.00,-0.000
263.00,-0.001
264.00,0.001
265.00,-0.001
266.00,-0.000
267.00,0.001
268.00,0.000
269.00,0.001
270.00,0.001
271.00,0.001
272.00,0.002
273.00,-0.000
274.00,-0.000
275.00,0.001
276.00,0.001
277.00,0.001
278.00,0.000
279.00,-0.001
280.00,0.003
281.00,0.000
282.00,0.000
283.00,0.001
284.00,0.001
285.00,0.000
286.00,-0.001
287.00,0.001
288.00,-0.000
289.00,0.001
290.00,0.001
291.00,0.001
292.00,-0.001
293.00,0.001
294.00,0.001
295.00,0.002
296.00,0.002
297.00,0.001
298.00,0.000
299.00,0.001
300.00,0.000
301.00,-0.001
302.00,0.001
303.00,0.001
304.00,0.002
305.00,0.001
306.00,0.003
307.00,0.004
308.00,0.011
309.00,0.020
310.00,0.032
311.00,0.047
312.00,0.074
313.00,0.119
314.00,0.177
315.00,0.264
316.00,0.370
317.00,0.534
318.00,0.724
319.00,0.985
320.00,1.311
321.00,1.691
322.00,2.163
323.00,2.754
324.00,3.406
325.00,4.109
326.00,4.859
327.00,5.808
328.00,6.809
329.00,7.865
330.00,8.825
331.00,10.158
332.00,11.433
333.00,12.766
334.00,14.100
335.00,15.528
336.00,16.938
337.00,18.394
338.00,19.820
339.00,21.219
340.00,22.644
341.00,24.038
342.00,25.321
343.00,26.630
344.00,27.911
345.00,29.186
346.00,30.353
347.00,31.454
348.00,32.604
349.00,33.562
350.00,34.578
351.00,35.448
352.00,36.227
353.00,37.122
354.00,37.947
355.00,38.694
356.00,39.336
357.00,39.923
358.00,40.602
359.00,41.233
360.00,41.811
361.00,42.303
362.00,42.826
363.00,43.280
364.00,43.617
365.00,43.911
366.00,44.301
367.00,44.486
368.00,44.715
369.00,45.050
370.00,45.248
371.00,45.359
372.00,45.347
373.00,45.501
374.00,45.556
375.00,45.587
376.00,45.491
377.00,45.463
378.00,45.360
379.00,45.239
380.00,45.300
381.00,45.408
382.00,45.505
383.00,45.629
384.00,45.888
385.00,46.110
386.00,46.280
387.00,46.565
388.00,46.883
389.00,47.040
390.00,47.261
391.00,47.424
392.00,47.621
393.00,47.686
394.00,47.840
395.00,47.991
396.00,48.082
397.00,48.188
398.00,48.255
399.00,48.369
400.00,48.414
401.00,48.486
402.00,48.553
403.00,48.512
404.00,48.581
405.00,48.579
406.00,48.579
407.00,48.563
408.00,48.630
409.00,48.562
410.00,48.427
411.00,48.389
412.00,48.337
413.00,48.387
414.00,48.339
415.00,48.270
416.00,48.387
417.00,48.270
418.00,48.340
419.00,48.449
420.00,48.483
421.00,48.580
422.00,48.499
423.00,48.462
424.00,48.532
425.00,48.455
426.00,48.597
427.00,48.636
428.00,48.638
429.00,48.639
430.00,48.707
431.00,48.698
432.00,48.695
433.00,48.811
434.00,48.729
435.00,48.748
436.00,48.846
437.00,48.764
438.00,48.900
439.00,48.845
440.00,48.878
441.00,48.930
442.00,48.965
443.00,48.947
444.00,49.034
445.00,49.090
446.00,49.101
447.00,49.124
448.00,49.171
449.00,49.278
450.00,49.286
451.00,49.356
452.00,49.373
453.00,49.399
454.00,49.458
455.00,49.496
456.00,49.594
457.00,49.644
458.00,49.590
459.00,49.736
460.00,49.859
461.00,49.872
462.00,49.801
463.00,49.938
464.00,49.984
465.00,50.098
466.00,50.177
467.00,50.209
468.00,50.135
469.00,50.178
470.00,50.186
471.00,50.133
472.00,50.224
473.00,50.092
474.00,50.172
475.00,50.197
476.00,50.118
477.00,50.233
478.00,50.248
479.00,50.411
480.00,50.361
481.00,50.380
482.00,50.513
483.00,50.499
484.00,50.634
485.00,50.758
486.00,50.804
487.00,50.803
488.00,50.803
489.00,50.811
490.00,50.948
491.00,50.959
492.00,51.031
493.00,51.225
494.00,51.282
495.00,51.197
496.00,51.201
497.00,51.201
498.00,51.288
499.00,51.336
500.00,51.428
501.00,51.392
502.00,51.484
503.00,51.448
504.00,51.333
505.00,51.471
506.00,51.439
507.00,51.548
508.00,51.626
509.00,51.587
510.00,51.578
511.00,51.577
512.00,51.622
513.00,51.868
514.00,51.849
515.00,51.945
516.00,51.967
517.00,51.909
518.00,52.081
519.00,51.943
520.00,51.874
521.00,52.005
522.00,52.031
523.00,51.967
524.00,51.998
525.00,52.059
526.00,52.061
527.00,52.025
528.00,52.004
529.00,52.123
530.00,52.283
531.00,52.390
532.00,52.374
533.00,52.417
534.00,52.532
535.00,52.498
536.00,52.453
537.00,52.454
538.00,52.503
539.00,52.470
540.00,52.531
541.00,52.582
542.00,52.490
543.00,52.517
544.00,52.593
545.00,52.613
546.00,52.553
547.00,52.705
548.00,52.720
549.00,52.864
550.00,52.918
551.00,52.834
552.00,52.881
553.00,52.831
554.00,52.817
555.00,52.826
556.00,52.884
557.00,52.909
558.00,52.885
559.00,52.966
560.00,53.034
561.00,53.012
562.00,53.030
563.00,52.997
564.00,52.985
565.00,53.007
566.00,53.006
567.00,52.921
568.00,52.914
569.00,52.988
570.00,52.863
571.00,53.029
572.00,52.960
573.00,52.845
574.00,52.934
575.00,52.890
576.00,52.886
577.00,52.822
578.00,52.984
579.00,53.019
580.00,52.952
581.00,53.132
582.00,53.215
583.00,53.121
584.00,53.186
585.00,53.242
586.00,53.259
587.00,53.257
588.00,53.184
589.00,53.100
590.00,53.181
591.00,53.259
592.00,53.159
593.00,53.127
594.00,53.230
595.00,53.266
596.00,53.280
597.00,53.284
598.00,53.367
599.00,53.292
600.00,53.294
601.00,53.183
602.00,53.204
603.00,53.246
604.00,53.198
605.00,53.252
606.00,53.270
607.00,53.164
608.00,53.195
609.00,53.139
610.00,53.348
611.00,53.213
612.00,53.431
613.00,53.221
614.00,53.146
615.00,53.239
616.00,53.402
617.00,53.197
618.00,53.129
619.00,53.200
620.00,53.177
621.00,53.231
622.00,53.268
623.00,53.159
624.00,53.211
625.00,53.266
626.00,53.173
627.00,53.178
628.00,53.127
629.00,53.146
630.00,53.124
631.00,53.114
632.00,53.154
633.00,53.151
634.00,53.149
635.00,53.253
636.00,53.160
637.00,53.139
638.00,53.159
639.00,53.163
640.00,53.083
641.00,53.085
642.00,53.059
643.00,53.121
644.00,53.179
645.00,53.107
646.00,53.180
647.00,53.150
648.00,53.088
649.00,53.020
650.00,52.964
651.00,53.108
652.00,53.115
653.00,53.019
654.00,52.985
655.00,53.083
656.00,53.254
657.00,53.011
658.00,53.008
659.00,52.866
660.00,52.949
661.00,52.886
662.00,52.919
663.00,52.861
664.00,53.171
665.00,53.207
666.00,53.066
667.00,52.983
668.00,52.896
669.00,53.078
670.00,53.233
671.00,52.965
672.00,53.133
673.00,52.815
674.00,52.817
675.00,52.947
676.00,53.149
677.00,53.158
678.00,52.785
679.00,52.896
680.00,52.931
681.00,53.022
682.00,52.888
683.00,52.731
684.00,52.777
685.00,52.783
686.00,52.828
687.00,52.778
688.00,52.661
689.00,52.567
690.00,52.761
691.00,53.056
692.00,52.683
693.00,52.574
694.00,52.649
695.00,52.701
696.00,52.684
697.00,52.509
698.00,52.441
699.00,52.707
700.00,52.707
701.00,52.548
702.00,52.542
703.00,52.581
704.00,52.542
705.00,52.295
706.00,52.365
707.00,52.449
708.00,52.245
709.00,52.589
710.00,52.855
711.00,52.175
712.00,52.155
713.00,52.348
714.00,52.362
715.00,52.223
716.00,52.086
717.00,52.259
718.00,52.346
719.00,52.148
720.00,52.133
721.00,57.074
722.00,56.928
723.00,56.914
724.00,56.848
725.00,56.851
726.00,56.662
727.00,56.672
728.00,56.565
729.00,56.484
730.00,56.473
731.00,56.438
732.00,56.357
733.00,56.288
734.00,56.206
735.00,56.174
736.00,56.145
737.00,56.126
738.00,56.116
739.00,56.010
740.00,55.968
741.00,55.927
742.00,55.932
743.00,55.715
744.00,55.720
745.00,55.694
746.00,55.582
747.00,55.465
748.00,55.429
749.00,55.329
750.00,55.281
751.00,55.249
752.00,55.149
753.00,55.144
754.00,55.052
755.00,55.037
756.00,54.982
757.00,54.932
758.00,54.914
759.00,54.831
760.00,54.902
761.00,54.717
762.00,54.717
763.00,54.705
764.00,54.579
765.00,54.521
766.00,54.555
767.00,54.582
768.00,54.425
769.00,54.448
770.00,54.470
771.00,54.386
772.00,54.363
773.00,54.265
774.00,54.235
775.00,54.273
776.00,54.120
777.00,54.140
778.00,54.089
779.00,54.099
780.00,53.982
781.00,53.928
782.00,53.919
783.00,53.850
784.00,53.863
785.00,53.796
786.00,53.816
787.00,53.681
788.00,53.681
789.00,53.657
790.00,53.566
791.00,53.634
792.00,53.572
793.00,53.522
794.00,53.405
795.00,53.423
796.00,53.307
797.00,53.244
798.00,53.290
799.00,53.150
800.00,53.103
801.00,53.082
802.00,53.023
803.00,52.984
804.00,52.932
805.00,52.977
806.00,52.837
807.00,52.863
808.00,52.870
809.00,52.901
810.00,52.802
811.00,52.752
812.00,52.669
813.00,52.625
814.00,52.559
815.00,52.575
816.00,52.563
817.00,52.505
818.00,52.455
819.00,52.411
820.00,52.389
821.00,52.378
822.00,52.331
823.00,52.278
824.00,52.279
825.00,52.151
826.00,52.253
827.00,52.243
828.00,52.189
829.00,52.153
830.00,52.161
831.00,54.407
832.00,54.357
833.00,54.269
834.00,54.276
835.00,54.196
836.00,54.233
837.00,54.164
838.00,54.147
839.00,54.115
840.00,54.064
841.00,54.060
842.00,53.995
843.00,54.017
844.00,53.990
845.00,53.870
846.00,53.971
847.00,53.853
848.00,53.848
849.00,53.773
850.00,53.727
851.00,53.673
852.00,53.671
853.00,53.583
854.00,53.570
855.00,53.505
856.00,53.476
857.00,53.479
858.00,53.432
859.00,53.366
860.00,53.362
861.00,53.354
862.00,53.312
863.00,53.302
864.00,53.237
865.00,53.257
866.00,53.196
867.00,53.226
868.00,53.151
869.00,53.145
870.00,53.155
871.00,53.082
872.00,53.098
873.00,53.061
874.00,53.097
875.00,53.039
876.00,53.036
877.00,53.012
878.00,52.998
879.00,52.966
880.00,52.956
881.00,52.925
882.00,52.960
883.00,52.885
884.00,52.829
885.00,52.808
886.00,52.811
887.00,52.755
888.00,52.720
889.00,52.700
890.00,52.706
891.00,52.646
892.00,52.643
893.00,52.599
894.00,52.606
895.00,52.558
896.00,52.526
897.00,52.529
898.00,52.498
899.00,52.467
900.00,52.457
901.00,52.448
902.00,52.441
903.00,52.401
904.00,52.382
905.00,52.375
906.00,52.338
907.00,52.309
908.00,52.238
909.00,52.222
910.00,52.227
911.00,52.176
912.00,52.153
913.00,52.158
914.00,52.146
915.00,52.134
916.00,52.079
917.00,52.054
918.00,52.055
919.00,52.007
920.00,51.947
921.00,51.959
922.00,51.950
923.00,51.900
924.00,51.881
925.00,51.894
926.00,51.857
927.00,51.844
928.00,51.795
929.00,51.811
930.00,51.772
931.00,51.745
932.00,51.726
933.00,51.733
934.00,51.679
935.00,51.671
936.00,51.648
937.00,51.618
938.00,51.591
939.00,51.568
940.00,51.555
941.00,51.566
942.00,51.520
943.00,51.519
944.00,51.491
945.00,51.485
946.00,51.477
947.00,51.431
948.00,51.401
949.00,51.389
950.00,51.355
951.00,51.326
952.00,51.302
953.00,51.265
954.00,51.266
955.00,51.209
956.00,51.196
957.00,51.157
958.00,51.176
959.00,51.118
960.00,51.116
961.00,51.090
962.00,51.093
963.00,51.046
964.00,51.027
965.00,51.035
966.00,51.006
967.00,51.000
968.00,50.987
969.00,51.013
970.00,50.989
971.00,50.992
972.00,50.948
973.00,50.994
974.00,51.002
975.00,50.961
976.00,50.996
977.00,50.973
978.00,51.007
979.00,50.965
980.00,50.969
981.00,50.976
982.00,50.951
983.00,50.949
984.00,50.927
985.00,50.931
986.00,50.884
987.00,50.925
988.00,50.884
989.00,50.876
990.00,50.883
991.00,50.866
992.00,50.889
993.00,50.856
994.00,50.830
995.00,50.836
996.00,50.819
997.00,50.799
998.00,50.781
999.00,50.799
1000.00,50.748
1001.00,50.763
1002.00,50.740
1003.00,50.729
1004.00,50.734
1005.00,50.677
1006.00,50.726
1007.00,50.687
1008.00,50.657
1009.00,50.653
1010.00,50.653
1011.00,50.640
1012.00,50.605
1013.00,50.604
1014.00,50.570
1015.00,50.578
1016.00,50.531
1017.00,50.533
1018.00,50.520
1019.00,50.493
1020.00,50.493
1021.00,50.472
1022.00,50.466
1023.00,50.420
1024.00,50.413
1025.00,50.404
1026.00,50.389
1027.00,50.353
1028.00,50.362
1029.00,50.334
1030.00,50.287
1031.00,50.304
1032.00,50.264
1033.00,50.267
1034.00,50.257
1035.00,50.220
1036.00,50.215
1037.00,50.197
1038.00,50.169
1039.00,50.154
1040.00,50.153
1041.00,50.106
1042.00,50.116
1043.00,50.096
1044.00,50.117
1045.00,50.105
1046.00,50.074
1047.00,50.106
1048.00,50.108
1049.00,50.116
1050.00,50.140
1051.00,50.168
1052.00,50.157
1053.00,50.161
1054.00,50.149
1055.00,50.179
1056.00,50.192
1057.00,50.185
1058.00,50.185
1059.00,50.174
1060.00,50.165
1061.00,50.163
1062.00,50.157
1063.00,50.154
1064.00,50.170
1065.00,50.176
1066.00,50.133
1067.00,50.134
1068.00,50.141
1069.00,50.113
1070.00,50.089
1071.00,50.062
1072.00,50.102
1073.00,50.081
1074.00,50.059
1075.00,50.065
1076.00,50.069
1077.00,50.056
1078.00,50.031
1079.00,50.021
1080.00,50.028
1081.00,49.999
1082.00,49.988
1083.00,49.989
1084.00,49.990
1085.00,49.980
1086.00,49.973
1087.00,49.974
1088.00,49.953
1089.00,49.954
1090.00,49.938
1091.00,49.937
1092.00,49.939
1093.00,49.912
1094.00,49.909
1095.00,49.895
1096.00,49.867
1097.00,49.883
1098.00,49.880
1099.00,49.862
1100.00,49.860
1101.00,49.840
1102.00,49.836
1103.00,49.846
1104.00,49.819
1105.00,49.825
1106.00,49.816
1107.00,49.803
1108.00,49.800
1109.00,49.795
1110.00,49.778
1111.00,49.779
1112.00,49.754
1113.00,49.755
1114.00,49.739
1115.00,49.736
1116.00,49.743
1117.00,49.734
1118.00,49.707
1119.00,49.723
1120.00,49.722
1121.00,49.717
1122.00,49.700
1123.00,49.681
1124.00,49.691
1125.00,49.674
1126.00,49.675
1127.00,49.709
1128.00,49.658
1129.00,49.643
1130.00,49.653
1131.00,49.663
1132.00,49.642
1133.00,49.649
1134.00,49.608
1135.00,49.598
1136.00,49.621
1137.00,49.607
1138.00,49.627
1139.00,49.633
1140.00,49.606
1141.00,49.617
1142.00,49.603
1143.00,49.602
1144.00,49.585
1145.00,49.586
1146.00,49.590
1147.00,49.577
1148.00,49.577
1149.00,49.594
1150.00,49.604
1151.00,49.608
1152.00,49.592
1153.00,49.587
1154.00,49.560
1155.00,49.578
1156.00,49.569
1157.00,49.601
1158.00,49.596
1159.00,49.561
1160.00,49.565
1161.00,49.576
1162.00,49.559
1163.00,49.575
1164.00,49.575
1165.00,49.568
1166.00,49.571
1167.00,49.550
1168.00,49.568
1169.00,49.554
1170.00,49.542
1171.00,49.539
1172.00,49.563
1173.00,49.561
1174.00,49.561
1175.00,49.550
1176.00,49.539
1177.00,49.541
1178.00,49.534
1179.00,49.555
1180.00,49.557
1181.00,49.567
1182.00,49.577
1183.00,49.562
1184.00,49.547
1185.00,49.572
1186.00,49.557
1187.00,49.565
1188.00,49.583
1189.00,49.536
1190.00,49.533
1191.00,49.525
1192.00,49.538
1193.00,49.530
1194.00,49.539
1195.00,49.511
1196.00,49.547
1197.00,49.557
1198.00,49.538
1199.00,49.543
1200.00,49.547
1201.00,49.577
1202.00,49.551
1203.00,49.526
1204.00,49.533
1205.00,49.555
1206.00,49.541
1207.00,49.555
1208.00,49.534
1209.00,49.547
1210.00,49.554
1211.00,49.547
1212.00,49.566
1213.00,49.522
1214.00,49.540
1215.00,49.534
1216.00,49.543
1217.00,49.533
1218.00,49.530
1219.00,49.544
1220.00,49.518
1221.00,49.561
1222.00,49.542
1223.00,49.571
1224.00,49.566
1225.00,49.536
1226.00,49.565
1227.00,49.564
1228.00,49.581
1229.00,49.566
1230.00,49.588
1231.00,49.601
1232.00,49.607
1233.00,49.627
1234.00,49.642
1235.00,49.634
1236.00,49.618
1237.00,49.626
1238.00,49.635
1239.00,49.635
1240.00,49.630
1241.00,49.634
1242.00,49.642
1243.00,49.666
1244.00,49.629
1245.00,49.660
1246.00,49.682
1247.00,49.650
1248.00,49.675
1249.00,49.713
1250.00,49.674
1251.00,49.672
1252.00,49.681
1253.00,49.674
1254.00,49.708
1255.00,49.684
1256.00,49.671
1257.00,49.671
1258.00,49.680
1259.00,49.696
1260.00,49.727
1261.00,49.727
1262.00,49.729
1263.00,49.742
1264.00,49.759
1265.00,49.751
1266.00,49.735
1267.00,49.759
1268.00,49.769
1269.00,49.750
1270.00,49.789
1271.00,49.815
1272.00,49.818
1273.00,49.836
1274.00,49.839
1275.00,49.831
1276.00,49.839
1277.00,49.840
1278.00,49.855
1279.00,49.858
1280.00,49.830
1281.00,49.861
1282.00,49.876
1283.00,49.842
1284.00,49.879
1285.00,49.868
1286.00,49.871
1287.00,49.888
1288.00,49.884
1289.00,49.893
1290.00,49.911
1291.00,49.897
1292.00,49.911
1293.00,49.928
1294.00,49.922
1295.00,49.952
1296.00,49.951
1297.00,49.964
1298.00,50.000
1299.00,49.957
1300.00,49.974
1301.00,49.953
1302.00,49.961
1303.00,49.980
1304.00,49.974
1305.00,49.999
1306.00,50.010
1307.00,50.026
1308.00,50.030
1309.00,50.040
1310.00,50.026
1311.00,50.027
1312.00,50.029
1313.00,50.025
1314.00,50.068
1315.00,50.077
1316.00,50.059
1317.00,50.109
1318.00,50.103
1319.00,50.096
1320.00,50.113
1321.00,50.290
1322.00,50.268
1323.00,50.264
1324.00,50.248
1325.00,50.238
1326.00,50.275
1327.00,50.243
1328.00,50.267
1329.00,50.270
1330.00,50.274
1331.00,50.291
1332.00,50.293
1333.00,50.295
1334.00,50.333
1335.00,50.347
1336.00,50.367
1337.00,50.403
1338.00,50.442
1339.00,50.501
1340.00,50.563
1341.00,50.607
1342.00,50.681
1343.00,50.740
1344.00,50.764
1345.00,50.843
1346.00,50.887
1347.00,50.897
1348.00,50.947
1349.00,50.958
1350.00,50.986
1351.00,51.013
1352.00,51.009
1353.00,51.194
1354.00,51.029
1355.00,50.955
1356.00,51.012
1357.00,51.025
1358.00,51.078
1359.00,51.127
1360.00,51.068
1361.00,51.078
1362.00,51.056
1363.00,51.149
1364.00,51.149
1365.00,51.117
1366.00,51.171
1367.00,51.091
1368.00,51.056
1369.00,51.106
1370.00,51.075
1371.00,51.026
1372.00,51.061
1373.00,51.100
1374.00,51.102
1375.00,51.101
1376.00,51.076
1377.00,51.030
1378.00,51.121
1379.00,51.092
1380.00,51.118
1381.00,51.105
1382.00,51.106
1383.00,51.098
1384.00,51.048
1385.00,51.072
1386.00,51.076
1387.00,51.064
1388.00,51.019
1389.00,51.092
1390.00,51.086
1391.00,50.983
1392.00,51.118
1393.00,51.087
1394.00,51.084
1395.00,50.965
1396.00,50.993
1397.00,50.985
1398.00,51.182
1399.00,51.010
1400.00,51.323
1401.00,51.032
1402.00,51.185
1403.00,51.040
1404.00,51.063
1405.00,51.142
1406.00,51.131
1407.00,51.138
1408.00,51.142
1409.00,51.116
1410.00,51.177
1411.00,51.144
1412.00,51.229
1413.00,51.173
1414.00,51.124
1415.00,51.126
1416.00,51.226
1417.00,51.313
1418.00,51.240
1419.00,51.223
1420.00,51.260
1421.00,51.336
1422.00,51.315
1423.00,51.292
1424.00,51.311
1425.00,51.348
1426.00,51.335
1427.00,51.376
1428.00,51.364
1429.00,51.378
1430.00,51.403
1431.00,51.401
1432.00,51.427
1433.00,51.449
1434.00,51.435
1435.00,51.503
1436.00,51.528
1437.00,51.492
1438.00,51.518
1439.00,51.576
1440.00,51.593
1441.00,51.585
1442.00,51.597
1443.00,51.667
1444.00,51.697
1445.00,51.606
1446.00,51.686
1447.00,51.692
1448.00,51.719
1449.00,51.726
1450.00,51.739
1451.00,51.746
1452.00,51.771
1453.00,51.800
1454.00,51.820
1455.00,51.856
1456.00,51.844
1457.00,51.833
1458.00,51.881
1459.00,51.877
1460.00,51.925
1461.00,51.934
1462.00,51.973
1463.00,52.002
1464.00,52.010
1465.00,52.000
1466.00,52.009
1467.00,52.034
1468.00,52.093
1469.00,52.072
1470.00,52.072
1471.00,52.112
1472.00,52.137
1473.00,52.148
1474.00,52.172
1475.00,52.198
1476.00,52.193
1477.00,52.180
1478.00,52.205
1479.00,52.227
1480.00,52.221
1481.00,52.218
1482.00,52.257
1483.00,52.282
1484.00,52.288
1485.00,52.309
1486.00,52.340
1487.00,52.360
1488.00,52.390
1489.00,52.362
1490.00,52.380
1491.00,52.386
1492.00,52.390
1493.00,52.398
1494.00,52.447
1495.00,52.423
1496.00,52.441
1497.00,52.461
1498.00,52.463
1499.00,52.487
1500.00,52.501
1501.00, 
1502.00, 
1503.00, 
1504.00, 
1505.00, 
1506.00, 
1507.00, 
1508.00, 
1509.00, 
1510.00, 
1511.00, 
1512.00, 
1513.00, 
1514.00, 
1515.00, 
1516.00, 
1517.00, 
1518.00, 
1519.00, 
1520.00, 
1521.00, 
1522.00, 
1523.00, 
1524.00, 
1525.00, 
1526.00, 
1527.00, 
1528.00, 
1529.00, 
1530.00, 
1531.00, 
1532.00, 
1533.00, 
1534.00, 
1535.00, 
1536.00, 
1537.00, 
1538.00, 
1539.00, 
1540.00, 
1541.00, 
1542.00, 
1543.00, 
1544.00, 
1545.00, 
1546.00, 
1547.00, 
1548.00, 
1549.00, 
1550.00, 
1551.00, 
1552.00, 
1553.00, 
1554.00, 
1555.00, 
1556.00, 
1557.00, 
1558.00, 
1559.00, 
1560.00, 
1561.00, 
1562.00, 
1563.00, 
1564.00, 
1565.00, 
1566.00, 
1567.00, 
1568.00, 
1569.00, 
1570.00, 
1571.00, 
1572.00, 
1573.00, 
1574.00, 
1575.00, 
1576.00, 
1577.00, 
1578.00, 
1579.00, 
1580.00, 
1581.00, 
1582.00, 
1583.00, 
1584.00, 
1585.00, 
1586.00, 
1587.00, 
1588.00, 
1589.00, 
1590.00, 
1591.00, 
1592.00, 
1593.00, 
1594.00, 
1595.00, 
1596.00, 
1597.00, 
1598.00, 
1599.00, 
1600.00, 
1601.00, 
1602.00, 
1603.00, 
1604.00, 
1605.00, 
1606.00, 
1607.00, 
1608.00, 
1609.00, 
1610.00, 
1611.00, 
1612.00, 
1613.00, 
1614.00, 
1615.00, 
1616.00, 
1617.00, 
1618.00, 
1619.00, 
1620.00, 
1621.00, 
1622.00, 
1623.00, 
1624.00, 
1625.00, 
1626.00, 
1627.00, 
1628.00, 
1629.00, 
1630.00, 
1631.00, 
1632.00, 
1633.00, 
1634.00, 
1635.00, 
1636.00, 
1637.00, 
1638.00, 
1639.00, 
1640.00, 
1641.00, 
1642.00, 
1643.00, 
1644.00, 
1645.00, 
1646.00, 
1647.00, 
1648.00, 
1649.00, 
1650.00, 
1651.00, 
1652.00, 
1653.00, 
1654.00, 
1655.00, 
1656.00, 
1657.00, 
1658.00, 
1659.00, 
1660.00, 
1661.00, 
1662.00, 
1663.00, 
1664.00, 
1665.00, 
1666.00, 
1667.00, 
1668.00, 
1669.00, 
1670.00, 
1671.00, 
1672.00, 
1673.00, 
1674.00, 
1675.00, 
1676.00, 
1677.00, 
1678.00, 
1679.00, 
1680.00, 
1681.00, 
1682.00, 
1683.00, 
1684.00, 
1685.00, 
1686.00, 
1687.00, 
1688.00, 
1689.00, 
1690.00, 
1691.00, 
1692.00, 
1693.00, 
1694.00, 
1695.00, 
1696.00, 
1697.00, 
1698.00, 
1699.00, 
1700.00, 
1701.00, 
1702.00, 
1703.00, 
1704.00, 
1705.00, 
1706.00, 
1707.00, 
1708.00, 
1709.00, 
1710.00, 
1711.00, 
1712.00, 
1713.00, 
1714.00, 
1715.00, 
1716.00, 
1717.00, 
1718.00, 
1719.00, 
1720.00, 
1721.00, 
1722.00, 
1723.00, 
1724.00, 
1725.00, 
1726.00, 
1727.00, 
1728.00, 
1729.00, 
1730.00, 
1731.00, 
1732.00, 
1733.00, 
1734.00, 
1735.00, 
1736.00, 
1737.00, 
1738.00, 
1739.00, 
1740.00, 
1741.00, 
1742.00, 
1743.00, 
1744.00, 
1745.00, 
1746.00, 
1747.00, 
1748.00, 
1749.00, 
1750.00, 
1751.00, 
1752.00, 
1753.00, 
1754.00, 
1755.00, 
1756.00, 
1757.00, 
1758.00, 
1759.00, 
1760.00, 
1761.00, 
1762.00, 
1763.00, 
1764.00, 
1765.00, 
1766.00, 
1767.00, 
1768.00, 
1769.00, 
1770.00, 
1771.00, 
1772.00, 
1773.00, 
1774.00, 
1775.00, 
1776.00, 
1777.00, 
1778.00, 
1779.00, 
1780.00, 
1781.00, 
1782.00, 
1783.00, 
1784.00, 
1785.00, 
1786.00, 
1787.00, 
1788.00, 
1789.00, 
1790.00, 
1791.00, 
1792.00, 
1793.00, 
1794.00, 
1795.00, 
1796.00, 
1797.00, 
1798.00, 
1799.00, 
1800.00, 
1801.00, 
1802.00, 
1803.00, 
1804.00, 
1805.00, 
1806.00, 
1807.00, 
1808.00, 
1809.00, 
1810.00, 
1811.00, 
1812.00, 
1813.00, 
1814.00, 
1815.00, 
1816.00, 
1817.00, 
1818.00, 
1819.00, 
1820.00, 
1821.00, 
1822.00, 
1823.00, 
1824.00, 
1825.00, 
1826.00, 
1827.00, 
1828.00, 
1829.00, 
1830.00, 
1831.00, 
1832.00, 
1833.00, 
1834.00, 
1835.00, 
1836.00, 
1837.00, 
1838.00, 
1839.00, 
1840.00, 
1841.00, 
1842.00, 
1843.00, 
1844.00, 
1845.00, 
1846.00, 
1847.00, 
1848.00, 
1849.00, 
1850.00, 
1851.00, 
1852.00, 
1853.00, 
1854.00, 
1855.00, 
1856.00, 
1857.00, 
1858.00, 
1859.00, 
1860.00, 
1861.00, 
1862.00, 
1863.00, 
1864.00, 
1865.00, 
1866.00, 
1867.00, 
1868.00, 
1869.00, 
1870.00, 
1871.00, 
1872.00, 
1873.00, 
1874.00, 
1875.00, 
1876.00, 
1877.00, 
1878.00, 
1879.00, 
1880.00, 
1881.00, 
1882.00, 
1883.00, 
1884.00, 
1885.00, 
1886.00, 
1887.00, 
1888.00, 
1889.00, 
1890.00, 
1891.00, 
1892.00, 
1893.00, 
1894.00, 
1895.00, 
1896.00, 
1897.00, 
1898.00, 
1899.00, 
1900.00, 
1901.00, 
1902.00, 
1903.00, 
1904.00, 
1905.00, 
1906.00, 
1907.00, 
1908.00, 
1909.00, 
1910.00, 
1911.00, 
1912.00, 
1913.00, 
1914.00, 
1915.00, 
1916.00, 
1917.00, 
1918.00, 
1919.00, 
1920.00, 
1921.00, 
1922.00, 
1923.00, 
1924.00, 
1925.00, 
1926.00, 
1927.00, 
1928.00, 
1929.00, 
1930.00, 
1931.00, 
1932.00, 
1933.00, 
1934.00, 
1935.00, 
1936.00, 
1937.00, 
1938.00, 
1939.00, 
1940.00, 
1941.00, 
1942.00, 
1943.00, 
1944.00, 
1945.00, 
1946.00, 
1947.00, 
1948.00, 
1949.00, 
1950.00, 
1951.00, 
1952.00, 
1953.00, 
1954.00, 
1955.00, 
1956.00, 
1957.00, 
1958.00, 
1959.00, 
1960.00, 
1961.00, 
1962.00, 
1963.00, 
1964.00, 
1965.00, 
1966.00, 
1967.00, 
1968.00, 
1969.00, 
1970.00, 
1971.00, 
1972.00, 
1973.00, 
1974.00, 
1975.00, 
1976.00, 
1977.00, 
1978.00, 
1979.00, 
1980.00, 
1981.00, 
1982.00, 
1983.00, 
1984.00, 
1985.00, 
1986.00, 
1987.00, 
1988.00, 
1989.00, 
1990.00, 
1991.00, 
1992.00, 
1993.00, 
1994.00, 
1995.00, 
1996.00, 
1997.00, 
1998.00, 
1999.00, 
2000.00, 
2001.00, 
2002.00, 
2003.00, 
2004.00, 
2005.00, 
2006.00, 
2007.00, 
2008.00, 
2009.00, 
2010.00, 
2011.00, 
2012.00, 
2013.00, 
2014.00, 
2015.00, 
2016.00, 
2017.00, 
2018.00, 
2019.00, 
2020.00, 
2021.00, 
2022.00, 
2023.00, 
2024.00, 
2025.00, 
2026.00, 
2027.00, 
2028.00, 
2029.00, 
2030.00, 
2031.00, 
2032.00, 
2033.00, 
2034.00, 
2035.00, 
2036.00, 
2037.00, 
2038.00, 
2039.00, 
2040.00, 
2041.00, 
2042.00, 
2043.00, 
2044.00, 
2045.00, 
2046.00, 
2047.00, 
2048.00, 
2049.00, 
2050.00, 
2051.00, 
2052.00, 
2053.00, 
2054.00, 
2055.00, 
2056.00, 
2057.00, 
2058.00, 
2059.00, 
2060.00, 
2061.00, 
2062.00, 
2063.00, 
2064.00, 
2065.00, 
2066.00, 
2067.00, 
2068.00, 
2069.00, 
2070.00, 
2071.00, 
2072.00, 
2073.00, 
2074.00, 
2075.00, 
2076.00, 
2077.00, 
2078.00, 
2079.00, 
2080.00, 
2081.00, 
2082.00, 
2083.00, 
2084.00, 
2085.00, 
2086.00, 
2087.00, 
2088.00, 
2089.00, 
2090.00, 
2091.00, 
2092.00, 
2093.00, 
2094.00, 
2095.00, 
2096.00, 
2097.00, 
2098.00, 
2099.00, 
2100.00, 
2101.00, 
2102.00, 
2103.00, 
2104.00, 
2105.00, 
2106.00, 
2107.00, 
2108.00, 
2109.00, 
2110.00, 
2111.00, 
2112.00, 
2113.00, 
2114.00, 
2115.00, 
2116.00, 
2117.00, 
2118.00, 
2119.00, 
2120.00, 
2121.00, 
2122.00, 
2123.00, 
2124.00, 
2125.00, 
2126.00, 
2127.00, 
2128.00, 
2129.00, 
2130.00, 
2131.00, 
2132.00, 
2133.00, 
2134.00, 
2135.00, 
2136.00, 
2137.00, 
2138.00, 
2139.00, 
2140.00, 
2141.00, 
2142.00, 
2143.00, 
2144.00, 
2145.00, 
2146.00, 
2147.00, 
2148.00, 
2149.00, 
2150.00, 
2151.00, 
2152.00, 
2153.00, 
2154.00, 
2155.00, 
2156.00, 
2157.00, 
2158.00, 
2159.00, 
2160.00, 
2161.00, 
2162.00, 
2163.00, 
2164.00, 
2165.00, 
2166.00, 
2167.00, 
2168.00, 
2169.00, 
2170.00, 
2171.00, 
2172.00, 
2173.00, 
2174.00, 
2175.00, 
2176.00, 
2177.00, 
2178.00, 
2179.00, 
2180.00, 
2181.00, 
2182.00, 
2183.00, 
2184.00, 
2185.00, 
2186.00, 
2187.00, 
2188.00, 
2189.00, 
2190.00, 
2191.00, 
2192.00, 
2193.00, 
2194.00, 
2195.00, 
2196.00, 
2197.00, 
2198.00, 
2199.00, 
2200.00, 
2201.00, 
2202.00, 
2203.00, 
2204.00, 
2205.00, 
2206.00, 
2207.00, 
2208.00, 
2209.00, 
2210.00, 
2211.00, 
2212.00, 
2213.00, 
2214.00, 
2215.00, 
2216.00, 
2217.00, 
2218.00, 
2219.00, 
2220.00, 
2221.00, 
2222.00, 
2223.00, 
2224.00, 
2225.00, 
2226.00, 
2227.00, 
2228.00, 
2229.00, 
2230.00, 
2231.00, 
2232.00, 
2233.00, 
2234.00, 
2235.00, 
2236.00, 
2237.00, 
2238.00, 
2239.00, 
2240.00, 
2241.00, 
2242.00, 
2243.00, 
2244.00, 
2245.00, 
2246.00, 
2247.00, 
2248.00, 
2249.00, 
2250.00, 
2251.00, 
2252.00, 
2253.00, 
2254.00, 
2255.00, 
2256.00, 
2257.00, 
2258.00, 
2259.00, 
2260.00, 
2261.00, 
2262.00, 
2263.00, 
2264.00, 
2265.00, 
2266.00, 
2267.00, 
2268.00, 
2269.00, 
2270.00, 
2271.00, 
2272.00, 
2273.00, 
2274.00, 
2275.00, 
2276.00, 
2277.00, 
2278.00, 
2279.00, 
2280.00, 
2281.00, 
2282.00, 
2283.00, 
2284.00, 
2285.00, 
2286.00, 
2287.00, 
2288.00, 
2289.00, 
2290.00, 
2291.00, 
2292.00, 
2293.00, 
2294.00, 
2295.00, 
2296.00, 
2297.00, 
2298.00, 
2299.00, 
2300.00, 
2301.00, 
2302.00, 
2303.00, 
2304.00, 
2305.00, 
2306.00, 
2307.00, 
2308.00, 
2309.00, 
2310.00, 
2311.00, 
2312.00, 
2313.00, 
2314.00, 
2315.00, 
2316.00, 
2317.00, 
2318.00, 
2319.00, 
2320.00, 
2321.00, 
2322.00, 
2323.00, 
2324.00, 
2325.00, 
2326.00, 
2327.00, 
2328.00, 
2329.00, 
2330.00, 
2331.00, 
2332.00, 
2333.00, 
2334.00, 
2335.00, 
2336.00, 
2337.00, 
2338.00, 
2339.00, 
2340.00, 
2341.00, 
2342.00, 
2343.00, 
2344.00, 
2345.00, 
2346.00, 
2347.00, 
2348.00, 
2349.00, 
2350.00, 
2351.00, 
2352.00, 
2353.00, 
2354.00, 
2355.00, 
2356.00, 
2357.00, 
2358.00, 
2359.00, 
2360.00, 
2361.00, 
2362.00, 
2363.00, 
2364.00, 
2365.00, 
2366.00, 
2367.00, 
2368.00, 
2369.00, 
2370.00, 
2371.00, 
2372.00, 
2373.00, 
2374.00, 
2375.00, 
2376.00, 
2377.00, 
2378.00, 
2379.00, 
2380.00, 
2381.00, 
2382.00, 
2383.00, 
2384.00, 
2385.00, 
2386.00, 
2387.00, 
2388.00, 
2389.00, 
2390.00, 
2391.00, 
2392.00, 
2393.00, 
2394.00, 
2395.00, 
2396.00, 
2397.00, 
2398.00, 
2399.00, 
2400.00, 
2401.00, 
2402.00, 
2403.00, 
2404.00, 
2405.00, 
2406.00, 
2407.00, 
2408.00, 
2409.00, 
2410.00, 
2411.00, 
2412.00, 
2413.00, 
2414.00, 
2415.00, 
2416.00, 
2417.00, 
2418.00, 
2419.00, 
2420.00, 
2421.00, 
2422.00, 
2423.00, 
2424.00, 
2425.00, 
2426.00, 
2427.00, 
2428.00, 
2429.00, 
2430.00, 
2431.00, 
2432.00, 
2433.00, 
2434.00, 
2435.00, 
2436.00, 
2437.00, 
2438.00, 
2439.00, 
2440.00, 
2441.00, 
2442.00, 
2443.00, 
2444.00, 
2445.00, 
2446.00, 
2447.00, 
2448.00, 
2449.00, 
2450.00, 
2451.00, 
2452.00, 
2453.00, 
2454.00, 
2455.00, 
2456.00, 
2457.00, 
2458.00, 
2459.00, 
2460.00, 
2461.00, 
2462.00, 
2463.00, 
2464.00, 
2465.00, 
2466.00, 
2467.00, 
2468.00, 
2469.00, 
2470.00, 
2471.00, 
2472.00, 
2473.00, 
2474.00, 
2475.00, 
2476.00, 
2477.00, 
2478.00, 
2479.00, 
2480.00, 
2481.00, 
2482.00, 
2483.00, 
2484.00, 
2485.00, 
2486.00, 
2487.00, 
2488.00, 
2489.00, 
2490.00, 
2491.00, 
2492.00, 
2493.00, 
2494.00, 
2495.00, 
2496.00, 
2497.00, 
2498.00, 
2499.00, 
2500.00, 
2501.00, 
2502.00, 
2503.00, 
2504.00, 
2505.00, 
2506.00, 
2507.00, 
2508.00, 
2509.00, 
2510.00, 
2511.00, 
2512.00, 
2513.00, 
2514.00, 
2515.00, 
2516.00, 
2517.00, 
2518.00, 
2519.00, 
2520.00, 
2521.00, 
2522.00, 
2523.00, 
2524.00, 
2525.00, 
2526.00, 
2527.00, 
2528.00, 
2529.00, 
2530.00, 
2531.00, 
2532.00, 
2533.00, 
2534.00, 
2535.00, 
2536.00, 
2537.00, 
2538.00, 
2539.00, 
2540.00, 
2541.00, 
2542.00, 
2543.00, 
2544.00, 
2545.00, 
2546.00, 
2547.00, 
2548.00, 
2549.00, 
2550.00, 
2551.00, 
2552.00, 
2553.00, 
2554.00, 
2555.00, 
2556.00, 
2557.00, 
2558.00, 
2559.00, 
2560.00, 
2561.00, 
2562.00, 
2563.00, 
2564.00, 
2565.00, 
2566.00, 
2567.00, 
2568.00, 
2569.00, 
2570.00, 
2571.00, 
2572.00, 
2573.00, 
2574.00, 
2575.00, 
2576.00, 
2577.00, 
2578.00, 
2579.00, 
2580.00, 
2581.00, 
2582.00, 
2583.00, 
2584.00, 
2585.00, 
2586.00, 
2587.00, 
2588.00, 
2589.00, 
2590.00, 
2591.00, 
2592.00, 
2593.00, 
2594.00, 
2595.00, 
2596.00, 
2597.00, 
2598.00, 
2599.00, 
2600.00, 
