"1cP3 - RawData"
"Wavelength nm.","T%"
200.00,-0.000
201.00,0.002
202.00,0.002
203.00,0.002
204.00,0.000
205.00,0.002
206.00,0.002
207.00,0.003
208.00,-0.001
209.00,-0.001
210.00,0.004
211.00,0.001
212.00,0.003
213.00,0.000
214.00,-0.002
215.00,0.003
216.00,0.001
217.00,0.000
218.00,0.002
219.00,0.003
220.00,-0.000
221.00,0.002
222.00,0.004
223.00,-0.002
224.00,0.002
225.00,0.002
226.00,0.003
227.00,0.002
228.00,-0.001
229.00,0.002
230.00,0.000
231.00,-0.001
232.00,0.001
233.00,0.001
234.00,0.001
235.00,0.000
236.00,-0.001
237.00,0.003
238.00,0.003
239.00,0.002
240.00,-0.000
241.00,0.001
242.00,0.000
243.00,0.001
244.00,0.002
245.00,0.001
246.00,-0.001
247.00,0.001
248.00,0.001
249.00,0.001
250.00,0.002
251.00,0.002
252.00,0.001
253.00,0.000
254.00,0.000
255.00,-0.002
256.00,-0.000
257.00,0.001
258.00,-0.001
259.00,-0.001
260.00,0.001
261.00,0.000
262.00,-0.000
263.00,0.002
264.00,-0.001
265.00,0.001
266.00,0.002
267.00,0.000
268.00,0.001
269.00,0.001
270.00,0.002
271.00,-0.000
272.00,0.000
273.00,0.001
274.00,0.000
275.00,0.000
276.00,0.001
277.00,-0.001
278.00,-0.000
279.00,0.000
280.00,0.000
281.00,-0.001
282.00,0.002
283.00,0.001
284.00,-0.000
285.00,-0.000
286.00,0.000
287.00,0.001
288.00,0.002
289.00,0.001
290.00,0.001
291.00,-0.000
292.00,0.001
293.00,0.000
294.00,-0.000
295.00,0.002
296.00,0.000
297.00,0.001
298.00,0.001
299.00,0.001
300.00,0.001
301.00,0.001
302.00,0.002
303.00,0.003
304.00,0.001
305.00,0.001
306.00,0.002
307.00,0.003
308.00,0.009
309.00,0.016
310.00,0.024
311.00,0.036
312.00,0.059
313.00,0.089
314.00,0.127
315.00,0.191
316.00,0.276
317.00,0.398
318.00,0.532
319.00,0.730
320.00,0.975
321.00,1.255
322.00,1.610
323.00,2.024
324.00,2.509
325.00,3.044
326.00,3.601
327.00,4.298
328.00,5.029
329.00,5.792
330.00,6.646
331.00,7.521
332.00,8.472
333.00,9.450
334.00,10.425
335.00,11.532
336.00,12.556
337.00,13.665
338.00,14.770
339.00,15.775
340.00,16.864
341.00,17.865
342.00,18.842
343.00,19.788
344.00,20.715
345.00,21.784
346.00,22.597
347.00,23.471
348.00,24.237
349.00,25.000
350.00,25.716
351.00,26.363
352.00,26.975
353.00,27.594
354.00,28.198
355.00,28.792
356.00,29.266
357.00,29.670
358.00,30.170
359.00,30.662
360.00,31.094
361.00,31.429
362.00,31.790
363.00,32.163
364.00,32.391
365.00,32.543
366.00,32.866
367.00,33.049
368.00,33.184
369.00,33.361
370.00,33.470
371.00,33.565
372.00,33.592
373.00,33.637
374.00,33.705
375.00,33.716
376.00,33.586
377.00,33.587
378.00,33.427
379.00,33.352
380.00,33.409
381.00,33.454
382.00,33.482
383.00,33.624
384.00,33.653
385.00,33.886
386.00,33.843
387.00,34.155
388.00,34.388
389.00,34.412
390.00,34.597
391.00,34.659
392.00,34.839
393.00,34.891
394.00,34.942
395.00,35.058
396.00,35.082
397.00,35.140
398.00,35.206
399.00,35.211
400.00,35.268
401.00,35.304
402.00,35.314
403.00,35.332
404.00,35.304
405.00,35.310
406.00,35.347
407.00,35.320
408.00,35.344
409.00,35.242
410.00,35.149
411.00,35.161
412.00,35.130
413.00,35.171
414.00,35.036
415.00,35.027
416.00,35.100
417.00,35.082
418.00,35.129
419.00,35.219
420.00,35.261
421.00,35.300
422.00,35.308
423.00,35.360
424.00,35.386
425.00,35.414
426.00,35.473
427.00,35.464
428.00,35.516
429.00,35.545
430.00,35.600
431.00,35.615
432.00,35.632
433.00,35.705
434.00,35.744
435.00,35.745
436.00,35.807
437.00,35.880
438.00,35.928
439.00,35.936
440.00,36.048
441.00,36.123
442.00,36.165
443.00,36.156
444.00,36.294
445.00,36.288
446.00,36.441
447.00,36.531
448.00,36.569
449.00,36.701
450.00,36.733
451.00,36.837
452.00,36.880
453.00,37.041
454.00,37.130
455.00,37.157
456.00,37.264
457.00,37.390
458.00,37.418
459.00,37.566
460.00,37.671
461.00,37.785
462.00,37.853
463.00,37.970
464.00,38.087
465.00,38.172
466.00,38.292
467.00,38.358
468.00,38.385
469.00,38.490
470.00,38.532
471.00,38.574
472.00,38.716
473.00,38.717
474.00,38.821
475.00,38.903
476.00,38.947
477.00,39.039
478.00,39.138
479.00,39.303
480.00,39.379
481.00,39.446
482.00,39.557
483.00,39.710
484.00,39.870
485.00,39.972
486.00,40.070
487.00,40.166
488.00,40.214
489.00,40.361
490.00,40.538
491.00,40.607
492.00,40.704
493.00,40.895
494.00,41.035
495.00,40.957
496.00,41.039
497.00,41.125
498.00,41.245
499.00,41.310
500.00,41.460
501.00,41.499
502.00,41.625
503.00,41.713
504.00,41.706
505.00,41.847
506.00,41.922
507.00,42.006
508.00,42.080
509.00,42.201
510.00,42.332
511.00,42.266
512.00,42.476
513.00,42.713
514.00,42.622
515.00,42.763
516.00,42.874
517.00,42.768
518.00,43.057
519.00,43.024
520.00,43.008
521.00,43.201
522.00,43.287
523.00,43.230
524.00,43.303
525.00,43.443
526.00,43.503
527.00,43.517
528.00,43.605
529.00,43.761
530.00,43.938
531.00,44.013
532.00,44.019
533.00,44.155
534.00,44.257
535.00,44.244
536.00,44.307
537.00,44.409
538.00,44.423
539.00,44.482
540.00,44.462
541.00,44.545
542.00,44.538
543.00,44.624
544.00,44.757
545.00,44.755
546.00,44.789
547.00,44.907
548.00,45.014
549.00,45.134
550.00,45.154
551.00,45.217
552.00,45.219
553.00,45.240
554.00,45.309
555.00,45.314
556.00,45.445
557.00,45.474
558.00,45.417
559.00,45.466
560.00,45.659
561.00,45.611
562.00,45.719
563.00,45.718
564.00,45.730
565.00,45.812
566.00,45.786
567.00,45.775
568.00,45.860
569.00,45.918
570.00,45.889
571.00,46.020
572.00,45.973
573.00,45.775
574.00,45.907
575.00,46.025
576.00,45.922
577.00,45.997
578.00,46.192
579.00,46.218
580.00,46.227
581.00,46.453
582.00,46.519
583.00,46.423
584.00,46.544
585.00,46.583
586.00,46.600
587.00,46.690
588.00,46.689
589.00,46.608
590.00,46.682
591.00,46.787
592.00,46.728
593.00,46.715
594.00,46.831
595.00,46.931
596.00,47.008
597.00,47.006
598.00,47.091
599.00,47.008
600.00,46.979
601.00,46.978
602.00,47.057
603.00,47.110
604.00,47.057
605.00,47.154
606.00,47.279
607.00,47.193
608.00,47.234
609.00,47.329
610.00,47.544
611.00,47.305
612.00,47.306
613.00,47.384
614.00,47.411
615.00,47.501
616.00,47.560
617.00,47.475
618.00,47.411
619.00,47.529
620.00,47.515
621.00,47.546
622.00,47.652
623.00,47.646
624.00,47.673
625.00,47.745
626.00,47.682
627.00,47.789
628.00,47.816
629.00,47.818
630.00,47.815
631.00,47.895
632.00,47.924
633.00,47.945
634.00,48.010
635.00,48.055
636.00,48.065
637.00,48.065
638.00,48.150
639.00,48.242
640.00,48.230
641.00,48.222
642.00,48.207
643.00,48.304
644.00,48.329
645.00,48.352
646.00,48.482
647.00,48.466
648.00,48.448
649.00,48.446
650.00,48.504
651.00,48.621
652.00,48.642
653.00,48.597
654.00,48.614
655.00,48.777
656.00,49.008
657.00,48.776
658.00,48.764
659.00,48.890
660.00,48.947
661.00,48.820
662.00,48.955
663.00,48.961
664.00,49.285
665.00,49.280
666.00,49.099
667.00,49.145
668.00,49.096
669.00,49.379
670.00,49.586
671.00,49.336
672.00,49.412
673.00,49.390
674.00,49.388
675.00,49.417
676.00,49.648
677.00,49.794
678.00,49.479
679.00,49.603
680.00,49.696
681.00,49.826
682.00,49.665
683.00,49.653
684.00,49.783
685.00,49.775
686.00,49.805
687.00,49.816
688.00,49.750
689.00,49.767
690.00,50.055
691.00,50.307
692.00,49.950
693.00,49.903
694.00,50.012
695.00,50.024
696.00,50.009
697.00,50.000
698.00,49.985
699.00,50.295
700.00,50.245
701.00,50.068
702.00,50.187
703.00,50.361
704.00,50.316
705.00,50.262
706.00,50.330
707.00,50.338
708.00,50.090
709.00,50.548
710.00,50.903
711.00,50.245
712.00,50.246
713.00,50.519
714.00,50.478
715.00,50.500
716.00,50.259
717.00,50.611
718.00,50.667
719.00,50.474
720.00,50.516
721.00,55.455
722.00,55.300
723.00,55.400
724.00,55.334
725.00,55.326
726.00,55.285
727.00,55.231
728.00,55.158
729.00,55.136
730.00,55.129
731.00,55.142
732.00,55.111
733.00,55.061
734.00,55.047
735.00,55.093
736.00,55.070
737.00,54.958
738.00,55.022
739.00,55.024
740.00,54.997
741.00,54.927
742.00,55.011
743.00,54.872
744.00,54.825
745.00,54.910
746.00,54.816
747.00,54.718
748.00,54.724
749.00,54.747
750.00,54.706
751.00,54.618
752.00,54.551
753.00,54.598
754.00,54.537
755.00,54.502
756.00,54.432
757.00,54.460
758.00,54.393
759.00,54.371
760.00,54.443
761.00,54.284
762.00,54.343
763.00,54.374
764.00,54.290
765.00,54.301
766.00,54.297
767.00,54.339
768.00,54.244
769.00,54.238
770.00,54.221
771.00,54.156
772.00,54.225
773.00,54.181
774.00,54.106
775.00,54.124
776.00,54.037
777.00,54.078
778.00,54.101
779.00,54.098
780.00,53.954
781.00,53.991
782.00,53.979
783.00,53.914
784.00,53.910
785.00,53.846
786.00,53.889
787.00,53.800
788.00,53.801
789.00,53.738
790.00,53.698
791.00,53.763
792.00,53.646
793.00,53.669
794.00,53.613
795.00,53.627
796.00,53.504
797.00,53.464
798.00,53.522
799.00,53.411
800.00,53.418
801.00,53.400
802.00,53.386
803.00,53.309
804.00,53.279
805.00,53.341
806.00,53.238
807.00,53.171
808.00,53.217
809.00,53.265
810.00,53.174
811.00,53.133
812.00,53.061
813.00,53.030
814.00,52.951
815.00,52.917
816.00,53.041
817.00,52.913
818.00,52.909
819.00,52.950
820.00,52.810
821.00,52.871
822.00,52.806
823.00,52.746
824.00,52.734
825.00,52.787
826.00,52.935
827.00,52.741
828.00,52.691
829.00,52.702
830.00,52.668
831.00,54.939
832.00,54.898
833.00,54.821
834.00,54.870
835.00,54.757
836.00,54.805
837.00,54.775
838.00,54.718
839.00,54.813
840.00,54.680
841.00,54.709
842.00,54.664
843.00,54.658
844.00,54.613
845.00,54.542
846.00,54.545
847.00,54.474
848.00,54.490
849.00,54.414
850.00,54.403
851.00,54.336
852.00,54.359
853.00,54.276
854.00,54.251
855.00,54.232
856.00,54.199
857.00,54.162
858.00,54.116
859.00,54.109
860.00,54.069
861.00,54.045
862.00,53.971
863.00,53.998
864.00,53.937
865.00,53.985
866.00,53.918
867.00,53.917
868.00,53.865
869.00,53.856
870.00,53.874
871.00,53.866
872.00,53.854
873.00,53.811
874.00,53.780
875.00,53.912
876.00,53.794
877.00,53.749
878.00,53.757
879.00,53.723
880.00,53.714
881.00,53.687
882.00,53.742
883.00,53.634
884.00,53.580
885.00,53.587
886.00,53.568
887.00,53.542
888.00,53.491
889.00,53.474
890.00,53.491
891.00,53.440
892.00,53.414
893.00,53.404
894.00,53.376
895.00,53.261
896.00,53.361
897.00,53.313
898.00,53.283
899.00,53.254
900.00,53.234
901.00,53.258
902.00,53.234
903.00,53.350
904.00,53.162
905.00,53.181
906.00,53.161
907.00,53.127
908.00,53.037
909.00,53.073
910.00,53.057
911.00,53.010
912.00,53.024
913.00,52.996
914.00,52.950
915.00,52.899
916.00,52.888
917.00,52.887
918.00,52.844
919.00,52.751
920.00,52.833
921.00,52.767
922.00,52.775
923.00,52.727
924.00,52.727
925.00,52.729
926.00,52.714
927.00,52.690
928.00,52.659
929.00,52.650
930.00,52.627
931.00,52.564
932.00,52.582
933.00,52.565
934.00,52.468
935.00,52.479
936.00,52.512
937.00,52.461
938.00,52.477
939.00,52.460
940.00,52.412
941.00,52.412
942.00,52.357
943.00,52.358
944.00,52.316
945.00,52.321
946.00,52.290
947.00,52.249
948.00,52.258
949.00,52.216
950.00,52.161
951.00,52.259
952.00,52.164
953.00,52.137
954.00,52.109
955.00,52.059
956.00,52.039
957.00,52.015
958.00,52.020
959.00,51.964
960.00,51.961
961.00,51.948
962.00,51.938
963.00,51.911
964.00,51.886
965.00,51.894
966.00,51.873
967.00,51.860
968.00,51.840
969.00,51.862
970.00,51.826
971.00,51.839
972.00,51.794
973.00,51.847
974.00,51.860
975.00,51.823
976.00,51.848
977.00,51.837
978.00,51.872
979.00,51.849
980.00,51.852
981.00,51.928
982.00,51.821
983.00,51.826
984.00,51.797
985.00,51.818
986.00,51.751
987.00,51.783
988.00,51.739
989.00,51.729
990.00,51.726
991.00,51.723
992.00,51.727
993.00,51.708
994.00,51.672
995.00,51.653
996.00,51.650
997.00,51.630
998.00,51.611
999.00,51.629
1000.00,51.579
1001.00,51.588
1002.00,51.570
1003.00,51.551
1004.00,51.530
1005.00,51.506
1006.00,51.529
1007.00,51.495
1008.00,51.486
1009.00,51.478
1010.00,51.482
1011.00,51.471
1012.00,51.443
1013.00,51.441
1014.00,51.398
1015.00,51.422
1016.00,51.374
1017.00,51.347
1018.00,51.351
1019.00,51.320
1020.00,51.315
1021.00,51.298
1022.00,51.284
1023.00,51.249
1024.00,51.262
1025.00,51.230
1026.00,51.222
1027.00,51.236
1028.00,51.185
1029.00,51.187
1030.00,51.157
1031.00,51.165
1032.00,51.133
1033.00,51.129
1034.00,51.117
1035.00,51.077
1036.00,51.047
1037.00,51.040
1038.00,51.017
1039.00,50.997
1040.00,50.972
1041.00,50.936
1042.00,50.966
1043.00,50.916
1044.00,50.946
1045.00,50.937
1046.00,50.905
1047.00,50.930
1048.00,50.960
1049.00,50.969
1050.00,50.970
1051.00,51.023
1052.00,51.007
1053.00,51.010
1054.00,50.995
1055.00,51.020
1056.00,51.039
1057.00,51.040
1058.00,51.019
1059.00,51.008
1060.00,51.006
1061.00,50.982
1062.00,50.998
1063.00,51.010
1064.00,51.003
1065.00,50.999
1066.00,50.982
1067.00,50.984
1068.00,50.993
1069.00,50.952
1070.00,50.932
1071.00,50.910
1072.00,50.934
1073.00,50.912
1074.00,50.899
1075.00,50.904
1076.00,50.899
1077.00,50.882
1078.00,50.864
1079.00,50.863
1080.00,50.855
1081.00,50.849
1082.00,50.844
1083.00,50.826
1084.00,50.836
1085.00,50.836
1086.00,50.813
1087.00,50.822
1088.00,50.820
1089.00,50.795
1090.00,50.787
1091.00,50.755
1092.00,50.761
1093.00,50.749
1094.00,50.726
1095.00,50.724
1096.00,50.708
1097.00,50.720
1098.00,50.706
1099.00,50.691
1100.00,50.705
1101.00,50.680
1102.00,50.673
1103.00,50.711
1104.00,50.662
1105.00,50.647
1106.00,50.642
1107.00,50.629
1108.00,50.625
1109.00,50.623
1110.00,50.608
1111.00,50.607
1112.00,50.591
1113.00,50.589
1114.00,50.583
1115.00,50.586
1116.00,50.564
1117.00,50.551
1118.00,50.529
1119.00,50.533
1120.00,50.538
1121.00,50.532
1122.00,50.525
1123.00,50.520
1124.00,50.507
1125.00,50.515
1126.00,50.505
1127.00,50.487
1128.00,50.478
1129.00,50.464
1130.00,50.463
1131.00,50.472
1132.00,50.472
1133.00,50.468
1134.00,50.430
1135.00,50.409
1136.00,50.430
1137.00,50.430
1138.00,50.429
1139.00,50.434
1140.00,50.422
1141.00,50.420
1142.00,50.419
1143.00,50.423
1144.00,50.402
1145.00,50.410
1146.00,50.402
1147.00,50.394
1148.00,50.392
1149.00,50.418
1150.00,50.408
1151.00,50.389
1152.00,50.382
1153.00,50.391
1154.00,50.376
1155.00,50.395
1156.00,50.379
1157.00,50.369
1158.00,50.374
1159.00,50.367
1160.00,50.350
1161.00,50.381
1162.00,50.371
1163.00,50.382
1164.00,50.396
1165.00,50.371
1166.00,50.378
1167.00,50.361
1168.00,50.363
1169.00,50.376
1170.00,50.363
1171.00,50.333
1172.00,50.346
1173.00,50.343
1174.00,50.353
1175.00,50.342
1176.00,50.354
1177.00,50.350
1178.00,50.364
1179.00,50.374
1180.00,50.352
1181.00,50.357
1182.00,50.340
1183.00,50.339
1184.00,50.330
1185.00,50.345
1186.00,50.330
1187.00,50.334
1188.00,50.341
1189.00,50.325
1190.00,50.319
1191.00,50.323
1192.00,50.349
1193.00,50.328
1194.00,50.346
1195.00,50.324
1196.00,50.342
1197.00,50.343
1198.00,50.324
1199.00,50.336
1200.00,50.339
1201.00,50.345
1202.00,50.342
1203.00,50.327
1204.00,50.314
1205.00,50.338
1206.00,50.323
1207.00,50.343
1208.00,50.323
1209.00,50.346
1210.00,50.357
1211.00,50.336
1212.00,50.354
1213.00,50.336
1214.00,50.365
1215.00,50.330
1216.00,50.353
1217.00,50.360
1218.00,50.328
1219.00,50.344
1220.00,50.323
1221.00,50.356
1222.00,50.340
1223.00,50.349
1224.00,50.352
1225.00,50.351
1226.00,50.336
1227.00,50.344
1228.00,50.363
1229.00,50.345
1230.00,50.376
1231.00,50.362
1232.00,50.386
1233.00,50.393
1234.00,50.390
1235.00,50.403
1236.00,50.387
1237.00,50.387
1238.00,50.406
1239.00,50.410
1240.00,50.399
1241.00,50.409
1242.00,50.405
1243.00,50.431
1244.00,50.421
1245.00,50.439
1246.00,50.456
1247.00,50.438
1248.00,50.420
1249.00,50.446
1250.00,50.445
1251.00,50.436
1252.00,50.455
1253.00,50.444
1254.00,50.488
1255.00,50.471
1256.00,50.452
1257.00,50.454
1258.00,50.497
1259.00,50.486
1260.00,50.515
1261.00,50.512
1262.00,50.493
1263.00,50.492
1264.00,50.500
1265.00,50.514
1266.00,50.526
1267.00,50.528
1268.00,50.549
1269.00,50.535
1270.00,50.551
1271.00,50.561
1272.00,50.561
1273.00,50.569
1274.00,50.573
1275.00,50.574
1276.00,50.579
1277.00,50.588
1278.00,50.608
1279.00,50.613
1280.00,50.594
1281.00,50.616
1282.00,50.630
1283.00,50.621
1284.00,50.631
1285.00,50.631
1286.00,50.644
1287.00,50.635
1288.00,50.649
1289.00,50.635
1290.00,50.672
1291.00,50.665
1292.00,50.653
1293.00,50.682
1294.00,50.681
1295.00,50.714
1296.00,50.724
1297.00,50.726
1298.00,50.759
1299.00,50.741
1300.00,50.742
1301.00,50.747
1302.00,50.770
1303.00,50.760
1304.00,50.751
1305.00,50.774
1306.00,50.786
1307.00,50.796
1308.00,50.792
1309.00,50.819
1310.00,50.826
1311.00,50.817
1312.00,50.813
1313.00,50.828
1314.00,50.838
1315.00,50.860
1316.00,50.859
1317.00,50.892
1318.00,50.886
1319.00,50.874
1320.00,50.889
1321.00,51.066
1322.00,51.057
1323.00,51.052
1324.00,51.045
1325.00,51.035
1326.00,51.080
1327.00,51.064
1328.00,51.036
1329.00,51.075
1330.00,51.072
1331.00,51.061
1332.00,51.075
1333.00,51.064
1334.00,51.118
1335.00,51.123
1336.00,51.152
1337.00,51.191
1338.00,51.224
1339.00,51.264
1340.00,51.339
1341.00,51.394
1342.00,51.455
1343.00,51.505
1344.00,51.514
1345.00,51.605
1346.00,51.654
1347.00,51.655
1348.00,51.684
1349.00,51.718
1350.00,51.740
1351.00,51.785
1352.00,51.784
1353.00,51.832
1354.00,51.784
1355.00,51.725
1356.00,51.810
1357.00,51.828
1358.00,51.869
1359.00,51.891
1360.00,51.946
1361.00,51.767
1362.00,51.823
1363.00,51.856
1364.00,51.845
1365.00,51.889
1366.00,51.925
1367.00,51.845
1368.00,51.903
1369.00,51.907
1370.00,51.843
1371.00,51.812
1372.00,51.827
1373.00,51.918
1374.00,51.876
1375.00,51.895
1376.00,51.907
1377.00,51.823
1378.00,51.925
1379.00,51.904
1380.00,51.911
1381.00,51.887
1382.00,51.805
1383.00,51.900
1384.00,51.812
1385.00,51.841
1386.00,51.873
1387.00,51.797
1388.00,51.826
1389.00,51.848
1390.00,52.036
1391.00,51.656
1392.00,51.890
1393.00,51.905
1394.00,51.862
1395.00,51.802
1396.00,51.795
1397.00,51.881
1398.00,51.922
1399.00,51.838
1400.00,51.797
1401.00,51.855
1402.00,51.979
1403.00,51.814
1404.00,51.890
1405.00,51.915
1406.00,51.936
1407.00,51.950
1408.00,51.903
1409.00,51.939
1410.00,51.980
1411.00,51.944
1412.00,52.096
1413.00,51.963
1414.00,51.910
1415.00,51.996
1416.00,52.010
1417.00,52.099
1418.00,52.029
1419.00,52.019
1420.00,52.054
1421.00,52.120
1422.00,52.123
1423.00,52.112
1424.00,52.115
1425.00,52.159
1426.00,52.167
1427.00,52.180
1428.00,52.183
1429.00,52.243
1430.00,52.229
1431.00,52.250
1432.00,52.272
1433.00,52.287
1434.00,52.307
1435.00,52.336
1436.00,52.369
1437.00,52.330
1438.00,52.336
1439.00,52.397
1440.00,52.399
1441.00,52.402
1442.00,52.404
1443.00,52.461
1444.00,52.549
1445.00,52.444
1446.00,52.461
1447.00,52.518
1448.00,52.555
1449.00,52.552
1450.00,52.564
1451.00,52.575
1452.00,52.610
1453.00,52.623
1454.00,52.642
1455.00,52.692
1456.00,52.708
1457.00,52.685
1458.00,52.730
1459.00,52.736
1460.00,52.751
1461.00,52.773
1462.00,52.811
1463.00,52.818
1464.00,52.846
1465.00,52.862
1466.00,52.864
1467.00,52.879
1468.00,52.930
1469.00,52.918
1470.00,52.922
1471.00,52.923
1472.00,52.957
1473.00,52.987
1474.00,53.009
1475.00,53.031
1476.00,53.043
1477.00,53.036
1478.00,53.071
1479.00,53.075
1480.00,53.077
1481.00,53.095
1482.00,53.131
1483.00,53.162
1484.00,53.159
1485.00,53.159
1486.00,53.174
1487.00,53.192
1488.00,53.227
1489.00,53.226
1490.00,53.220
1491.00,53.252
1492.00,53.262
1493.00,53.245
1494.00,53.301
1495.00,53.292
1496.00,53.302
1497.00,53.320
1498.00,53.338
1499.00,53.367
1500.00,53.377
1501.00, 
1502.00, 
1503.00, 
1504.00, 
1505.00, 
1506.00, 
1507.00, 
1508.00, 
1509.00, 
1510.00, 
1511.00, 
1512.00, 
1513.00, 
1514.00, 
1515.00, 
1516.00, 
1517.00, 
1518.00, 
1519.00, 
1520.00, 
1521.00, 
1522.00, 
1523.00, 
1524.00, 
1525.00, 
1526.00, 
1527.00, 
1528.00, 
1529.00, 
1530.00, 
1531.00, 
1532.00, 
1533.00, 
1534.00, 
1535.00, 
1536.00, 
1537.00, 
1538.00, 
1539.00, 
1540.00, 
1541.00, 
1542.00, 
1543.00, 
1544.00, 
1545.00, 
1546.00, 
1547.00, 
1548.00, 
1549.00, 
1550.00, 
1551.00, 
1552.00, 
1553.00, 
1554.00, 
1555.00, 
1556.00, 
1557.00, 
1558.00, 
1559.00, 
1560.00, 
1561.00, 
1562.00, 
1563.00, 
1564.00, 
1565.00, 
1566.00, 
1567.00, 
1568.00, 
1569.00, 
1570.00, 
1571.00, 
1572.00, 
1573.00, 
1574.00, 
1575.00, 
1576.00, 
1577.00, 
1578.00, 
1579.00, 
1580.00, 
1581.00, 
1582.00, 
1583.00, 
1584.00, 
1585.00, 
1586.00, 
1587.00, 
1588.00, 
1589.00, 
1590.00, 
1591.00, 
1592.00, 
1593.00, 
1594.00, 
1595.00, 
1596.00, 
1597.00, 
1598.00, 
1599.00, 
1600.00, 
1601.00, 
1602.00, 
1603.00, 
1604.00, 
1605.00, 
1606.00, 
1607.00, 
1608.00, 
1609.00, 
1610.00, 
1611.00, 
1612.00, 
1613.00, 
1614.00, 
1615.00, 
1616.00, 
1617.00, 
1618.00, 
1619.00, 
1620.00, 
1621.00, 
1622.00, 
1623.00, 
1624.00, 
1625.00, 
1626.00, 
1627.00, 
1628.00, 
1629.00, 
1630.00, 
1631.00, 
1632.00, 
1633.00, 
1634.00, 
1635.00, 
1636.00, 
1637.00, 
1638.00, 
1639.00, 
1640.00, 
1641.00, 
1642.00, 
1643.00, 
1644.00, 
1645.00, 
1646.00, 
1647.00, 
1648.00, 
1649.00, 
1650.00, 
1651.00, 
1652.00, 
1653.00, 
1654.00, 
1655.00, 
1656.00, 
1657.00, 
1658.00, 
1659.00, 
1660.00, 
1661.00, 
1662.00, 
1663.00, 
1664.00, 
1665.00, 
1666.00, 
1667.00, 
1668.00, 
1669.00, 
1670.00, 
1671.00, 
1672.00, 
1673.00, 
1674.00, 
1675.00, 
1676.00, 
1677.00, 
1678.00, 
1679.00, 
1680.00, 
1681.00, 
1682.00, 
1683.00, 
1684.00, 
1685.00, 
1686.00, 
1687.00, 
1688.00, 
1689.00, 
1690.00, 
1691.00, 
1692.00, 
1693.00, 
1694.00, 
1695.00, 
1696.00, 
1697.00, 
1698.00, 
1699.00, 
1700.00, 
1701.00, 
1702.00, 
1703.00, 
1704.00, 
1705.00, 
1706.00, 
1707.00, 
1708.00, 
1709.00, 
1710.00, 
1711.00, 
1712.00, 
1713.00, 
1714.00, 
1715.00, 
1716.00, 
1717.00, 
1718.00, 
1719.00, 
1720.00, 
1721.00, 
1722.00, 
1723.00, 
1724.00, 
1725.00, 
1726.00, 
1727.00, 
1728.00, 
1729.00, 
1730.00, 
1731.00, 
1732.00, 
1733.00, 
1734.00, 
1735.00, 
1736.00, 
1737.00, 
1738.00, 
1739.00, 
1740.00, 
1741.00, 
1742.00, 
1743.00, 
1744.00, 
1745.00, 
1746.00, 
1747.00, 
1748.00, 
1749.00, 
1750.00, 
1751.00, 
1752.00, 
1753.00, 
1754.00, 
1755.00, 
1756.00, 
1757.00, 
1758.00, 
1759.00, 
1760.00, 
1761.00, 
1762.00, 
1763.00, 
1764.00, 
1765.00, 
1766.00, 
1767.00, 
1768.00, 
1769.00, 
1770.00, 
1771.00, 
1772.00, 
1773.00, 
1774.00, 
1775.00, 
1776.00, 
1777.00, 
1778.00, 
1779.00, 
1780.00, 
1781.00, 
1782.00, 
1783.00, 
1784.00, 
1785.00, 
1786.00, 
1787.00, 
1788.00, 
1789.00, 
1790.00, 
1791.00, 
1792.00, 
1793.00, 
1794.00, 
1795.00, 
1796.00, 
1797.00, 
1798.00, 
1799.00, 
1800.00, 
1801.00, 
1802.00, 
1803.00, 
1804.00, 
1805.00, 
1806.00, 
1807.00, 
1808.00, 
1809.00, 
1810.00, 
1811.00, 
1812.00, 
1813.00, 
1814.00, 
1815.00, 
1816.00, 
1817.00, 
1818.00, 
1819.00, 
1820.00, 
1821.00, 
1822.00, 
1823.00, 
1824.00, 
1825.00, 
1826.00, 
1827.00, 
1828.00, 
1829.00, 
1830.00, 
1831.00, 
1832.00, 
1833.00, 
1834.00, 
1835.00, 
1836.00, 
1837.00, 
1838.00, 
1839.00, 
1840.00, 
1841.00, 
1842.00, 
1843.00, 
1844.00, 
1845.00, 
1846.00, 
1847.00, 
1848.00, 
1849.00, 
1850.00, 
1851.00, 
1852.00, 
1853.00, 
1854.00, 
1855.00, 
1856.00, 
1857.00, 
1858.00, 
1859.00, 
1860.00, 
1861.00, 
1862.00, 
1863.00, 
1864.00, 
1865.00, 
1866.00, 
1867.00, 
1868.00, 
1869.00, 
1870.00, 
1871.00, 
1872.00, 
1873.00, 
1874.00, 
1875.00, 
1876.00, 
1877.00, 
1878.00, 
1879.00, 
1880.00, 
1881.00, 
1882.00, 
1883.00, 
1884.00, 
1885.00, 
1886.00, 
1887.00, 
1888.00, 
1889.00, 
1890.00, 
1891.00, 
1892.00, 
1893.00, 
1894.00, 
1895.00, 
1896.00, 
1897.00, 
1898.00, 
1899.00, 
1900.00, 
1901.00, 
1902.00, 
1903.00, 
1904.00, 
1905.00, 
1906.00, 
1907.00, 
1908.00, 
1909.00, 
1910.00, 
1911.00, 
1912.00, 
1913.00, 
1914.00, 
1915.00, 
1916.00, 
1917.00, 
1918.00, 
1919.00, 
1920.00, 
1921.00, 
1922.00, 
1923.00, 
1924.00, 
1925.00, 
1926.00, 
1927.00, 
1928.00, 
1929.00, 
1930.00, 
1931.00, 
1932.00, 
1933.00, 
1934.00, 
1935.00, 
1936.00, 
1937.00, 
1938.00, 
1939.00, 
1940.00, 
1941.00, 
1942.00, 
1943.00, 
1944.00, 
1945.00, 
1946.00, 
1947.00, 
1948.00, 
1949.00, 
1950.00, 
1951.00, 
1952.00, 
1953.00, 
1954.00, 
1955.00, 
1956.00, 
1957.00, 
1958.00, 
1959.00, 
1960.00, 
1961.00, 
1962.00, 
1963.00, 
1964.00, 
1965.00, 
1966.00, 
1967.00, 
1968.00, 
1969.00, 
1970.00, 
1971.00, 
1972.00, 
1973.00, 
1974.00, 
1975.00, 
1976.00, 
1977.00, 
1978.00, 
1979.00, 
1980.00, 
1981.00, 
1982.00, 
1983.00, 
1984.00, 
1985.00, 
1986.00, 
1987.00, 
1988.00, 
1989.00, 
1990.00, 
1991.00, 
1992.00, 
1993.00, 
1994.00, 
1995.00, 
1996.00, 
1997.00, 
1998.00, 
1999.00, 
2000.00, 
2001.00, 
2002.00, 
2003.00, 
2004.00, 
2005.00, 
2006.00, 
2007.00, 
2008.00, 
2009.00, 
2010.00, 
2011.00, 
2012.00, 
2013.00, 
2014.00, 
2015.00, 
2016.00, 
2017.00, 
2018.00, 
2019.00, 
2020.00, 
2021.00, 
2022.00, 
2023.00, 
2024.00, 
2025.00, 
2026.00, 
2027.00, 
2028.00, 
2029.00, 
2030.00, 
2031.00, 
2032.00, 
2033.00, 
2034.00, 
2035.00, 
2036.00, 
2037.00, 
2038.00, 
2039.00, 
2040.00, 
2041.00, 
2042.00, 
2043.00, 
2044.00, 
2045.00, 
2046.00, 
2047.00, 
2048.00, 
2049.00, 
2050.00, 
2051.00, 
2052.00, 
2053.00, 
2054.00, 
2055.00, 
2056.00, 
2057.00, 
2058.00, 
2059.00, 
2060.00, 
2061.00, 
2062.00, 
2063.00, 
2064.00, 
2065.00, 
2066.00, 
2067.00, 
2068.00, 
2069.00, 
2070.00, 
2071.00, 
2072.00, 
2073.00, 
2074.00, 
2075.00, 
2076.00, 
2077.00, 
2078.00, 
2079.00, 
2080.00, 
2081.00, 
2082.00, 
2083.00, 
2084.00, 
2085.00, 
2086.00, 
2087.00, 
2088.00, 
2089.00, 
2090.00, 
2091.00, 
2092.00, 
2093.00, 
2094.00, 
2095.00, 
2096.00, 
2097.00, 
2098.00, 
2099.00, 
2100.00, 
2101.00, 
2102.00, 
2103.00, 
2104.00, 
2105.00, 
2106.00, 
2107.00, 
2108.00, 
2109.00, 
2110.00, 
2111.00, 
2112.00, 
2113.00, 
2114.00, 
2115.00, 
2116.00, 
2117.00, 
2118.00, 
2119.00, 
2120.00, 
2121.00, 
2122.00, 
2123.00, 
2124.00, 
2125.00, 
2126.00, 
2127.00, 
2128.00, 
2129.00, 
2130.00, 
2131.00, 
2132.00, 
2133.00, 
2134.00, 
2135.00, 
2136.00, 
2137.00, 
2138.00, 
2139.00, 
2140.00, 
2141.00, 
2142.00, 
2143.00, 
2144.00, 
2145.00, 
2146.00, 
2147.00, 
2148.00, 
2149.00, 
2150.00, 
2151.00, 
2152.00, 
2153.00, 
2154.00, 
2155.00, 
2156.00, 
2157.00, 
2158.00, 
2159.00, 
2160.00, 
2161.00, 
2162.00, 
2163.00, 
2164.00, 
2165.00, 
2166.00, 
2167.00, 
2168.00, 
2169.00, 
2170.00, 
2171.00, 
2172.00, 
2173.00, 
2174.00, 
2175.00, 
2176.00, 
2177.00, 
2178.00, 
2179.00, 
2180.00, 
2181.00, 
2182.00, 
2183.00, 
2184.00, 
2185.00, 
2186.00, 
2187.00, 
2188.00, 
2189.00, 
2190.00, 
2191.00, 
2192.00, 
2193.00, 
2194.00, 
2195.00, 
2196.00, 
2197.00, 
2198.00, 
2199.00, 
2200.00, 
2201.00, 
2202.00, 
2203.00, 
2204.00, 
2205.00, 
2206.00, 
2207.00, 
2208.00, 
2209.00, 
2210.00, 
2211.00, 
2212.00, 
2213.00, 
2214.00, 
2215.00, 
2216.00, 
2217.00, 
2218.00, 
2219.00, 
2220.00, 
2221.00, 
2222.00, 
2223.00, 
2224.00, 
2225.00, 
2226.00, 
2227.00, 
2228.00, 
2229.00, 
2230.00, 
2231.00, 
2232.00, 
2233.00, 
2234.00, 
2235.00, 
2236.00, 
2237.00, 
2238.00, 
2239.00, 
2240.00, 
2241.00, 
2242.00, 
2243.00, 
2244.00, 
2245.00, 
2246.00, 
2247.00, 
2248.00, 
2249.00, 
2250.00, 
2251.00, 
2252.00, 
2253.00, 
2254.00, 
2255.00, 
2256.00, 
2257.00, 
2258.00, 
2259.00, 
2260.00, 
2261.00, 
2262.00, 
2263.00, 
2264.00, 
2265.00, 
2266.00, 
2267.00, 
2268.00, 
2269.00, 
2270.00, 
2271.00, 
2272.00, 
2273.00, 
2274.00, 
2275.00, 
2276.00, 
2277.00, 
2278.00, 
2279.00, 
2280.00, 
2281.00, 
2282.00, 
2283.00, 
2284.00, 
2285.00, 
2286.00, 
2287.00, 
2288.00, 
2289.00, 
2290.00, 
2291.00, 
2292.00, 
2293.00, 
2294.00, 
2295.00, 
2296.00, 
2297.00, 
2298.00, 
2299.00, 
2300.00, 
2301.00, 
2302.00, 
2303.00, 
2304.00, 
2305.00, 
2306.00, 
2307.00, 
2308.00, 
2309.00, 
2310.00, 
2311.00, 
2312.00, 
2313.00, 
2314.00, 
2315.00, 
2316.00, 
2317.00, 
2318.00, 
2319.00, 
2320.00, 
2321.00, 
2322.00, 
2323.00, 
2324.00, 
2325.00, 
2326.00, 
2327.00, 
2328.00, 
2329.00, 
2330.00, 
2331.00, 
2332.00, 
2333.00, 
2334.00, 
2335.00, 
2336.00, 
2337.00, 
2338.00, 
2339.00, 
2340.00, 
2341.00, 
2342.00, 
2343.00, 
2344.00, 
2345.00, 
2346.00, 
2347.00, 
2348.00, 
2349.00, 
2350.00, 
2351.00, 
2352.00, 
2353.00, 
2354.00, 
2355.00, 
2356.00, 
2357.00, 
2358.00, 
2359.00, 
2360.00, 
2361.00, 
2362.00, 
2363.00, 
2364.00, 
2365.00, 
2366.00, 
2367.00, 
2368.00, 
2369.00, 
2370.00, 
2371.00, 
2372.00, 
2373.00, 
2374.00, 
2375.00, 
2376.00, 
2377.00, 
2378.00, 
2379.00, 
2380.00, 
2381.00, 
2382.00, 
2383.00, 
2384.00, 
2385.00, 
2386.00, 
2387.00, 
2388.00, 
2389.00, 
2390.00, 
2391.00, 
2392.00, 
2393.00, 
2394.00, 
2395.00, 
2396.00, 
2397.00, 
2398.00, 
2399.00, 
2400.00, 
2401.00, 
2402.00, 
2403.00, 
2404.00, 
2405.00, 
2406.00, 
2407.00, 
2408.00, 
2409.00, 
2410.00, 
2411.00, 
2412.00, 
2413.00, 
2414.00, 
2415.00, 
2416.00, 
2417.00, 
2418.00, 
2419.00, 
2420.00, 
2421.00, 
2422.00, 
2423.00, 
2424.00, 
2425.00, 
2426.00, 
2427.00, 
2428.00, 
2429.00, 
2430.00, 
2431.00, 
2432.00, 
2433.00, 
2434.00, 
2435.00, 
2436.00, 
2437.00, 
2438.00, 
2439.00, 
2440.00, 
2441.00, 
2442.00, 
2443.00, 
2444.00, 
2445.00, 
2446.00, 
2447.00, 
2448.00, 
2449.00, 
2450.00, 
2451.00, 
2452.00, 
2453.00, 
2454.00, 
2455.00, 
2456.00, 
2457.00, 
2458.00, 
2459.00, 
2460.00, 
2461.00, 
2462.00, 
2463.00, 
2464.00, 
2465.00, 
2466.00, 
2467.00, 
2468.00, 
2469.00, 
2470.00, 
2471.00, 
2472.00, 
2473.00, 
2474.00, 
2475.00, 
2476.00, 
2477.00, 
2478.00, 
2479.00, 
2480.00, 
2481.00, 
2482.00, 
2483.00, 
2484.00, 
2485.00, 
2486.00, 
2487.00, 
2488.00, 
2489.00, 
2490.00, 
2491.00, 
2492.00, 
2493.00, 
2494.00, 
2495.00, 
2496.00, 
2497.00, 
2498.00, 
2499.00, 
2500.00, 
2501.00, 
2502.00, 
2503.00, 
2504.00, 
2505.00, 
2506.00, 
2507.00, 
2508.00, 
2509.00, 
2510.00, 
2511.00, 
2512.00, 
2513.00, 
2514.00, 
2515.00, 
2516.00, 
2517.00, 
2518.00, 
2519.00, 
2520.00, 
2521.00, 
2522.00, 
2523.00, 
2524.00, 
2525.00, 
2526.00, 
2527.00, 
2528.00, 
2529.00, 
2530.00, 
2531.00, 
2532.00, 
2533.00, 
2534.00, 
2535.00, 
2536.00, 
2537.00, 
2538.00, 
2539.00, 
2540.00, 
2541.00, 
2542.00, 
2543.00, 
2544.00, 
2545.00, 
2546.00, 
2547.00, 
2548.00, 
2549.00, 
2550.00, 
2551.00, 
2552.00, 
2553.00, 
2554.00, 
2555.00, 
2556.00, 
2557.00, 
2558.00, 
2559.00, 
2560.00, 
2561.00, 
2562.00, 
2563.00, 
2564.00, 
2565.00, 
2566.00, 
2567.00, 
2568.00, 
2569.00, 
2570.00, 
2571.00, 
2572.00, 
2573.00, 
2574.00, 
2575.00, 
2576.00, 
2577.00, 
2578.00, 
2579.00, 
2580.00, 
2581.00, 
2582.00, 
2583.00, 
2584.00, 
2585.00, 
2586.00, 
2587.00, 
2588.00, 
2589.00, 
2590.00, 
2591.00, 
2592.00, 
2593.00, 
2594.00, 
2595.00, 
2596.00, 
2597.00, 
2598.00, 
2599.00, 
2600.00, 
