"1cP4 - RawData"
"Wavelength nm.","T%"
200.00,0.001
201.00,0.001
202.00,0.003
203.00,0.001
204.00,0.006
205.00,0.002
206.00,-0.001
207.00,-0.001
208.00,-0.001
209.00,0.001
210.00,0.001
211.00,-0.001
212.00,0.001
213.00,-0.000
214.00,0.002
215.00,0.000
216.00,0.001
217.00,-0.001
218.00,-0.001
219.00,0.001
220.00,0.003
221.00,0.002
222.00,0.004
223.00,0.003
224.00,-0.001
225.00,-0.001
226.00,0.002
227.00,0.003
228.00,0.001
229.00,-0.000
230.00,-0.000
231.00,0.002
232.00,-0.000
233.00,0.002
234.00,0.000
235.00,0.002
236.00,-0.001
237.00,0.001
238.00,0.003
239.00,0.000
240.00,0.001
241.00,0.002
242.00,-0.000
243.00,-0.000
244.00,0.001
245.00,-0.001
246.00,0.001
247.00,0.001
248.00,0.000
249.00,-0.000
250.00,0.003
251.00,-0.000
252.00,0.000
253.00,0.001
254.00,0.001
255.00,-0.001
256.00,0.001
257.00,-0.000
258.00,0.001
259.00,0.001
260.00,0.000
261.00,0.000
262.00,-0.002
263.00,0.001
264.00,0.001
265.00,0.000
266.00,-0.000
267.00,-0.001
268.00,0.000
269.00,0.001
270.00,-0.002
271.00,0.000
272.00,-0.000
273.00,0.000
274.00,0.002
275.00,-0.000
276.00,0.000
277.00,0.000
278.00,0.000
279.00,-0.001
280.00,-0.000
281.00,0.002
282.00,0.000
283.00,0.001
284.00,-0.000
285.00,0.000
286.00,0.001
287.00,0.000
288.00,0.000
289.00,-0.000
290.00,-0.001
291.00,0.001
292.00,-0.000
293.00,-0.001
294.00,0.001
295.00,0.001
296.00,0.001
297.00,-0.001
298.00,0.000
299.00,-0.001
300.00,0.001
301.00,0.002
302.00,0.001
303.00,0.000
304.00,0.001
305.00,0.003
306.00,0.000
307.00,0.004
308.00,0.008
309.00,0.013
310.00,0.019
311.00,0.029
312.00,0.051
313.00,0.072
314.00,0.109
315.00,0.165
316.00,0.230
317.00,0.330
318.00,0.449
319.00,0.605
320.00,0.809
321.00,1.047
322.00,1.328
323.00,1.708
324.00,2.103
325.00,2.515
326.00,2.983
327.00,3.550
328.00,4.149
329.00,4.785
330.00,5.490
331.00,6.200
332.00,6.952
333.00,7.778
334.00,8.576
335.00,9.467
336.00,10.269
337.00,11.195
338.00,11.944
339.00,12.862
340.00,13.682
341.00,14.513
342.00,15.311
343.00,16.105
344.00,16.806
345.00,17.610
346.00,18.280
347.00,18.923
348.00,19.570
349.00,20.129
350.00,20.754
351.00,21.236
352.00,21.725
353.00,22.183
354.00,22.610
355.00,23.053
356.00,23.409
357.00,23.739
358.00,24.056
359.00,24.430
360.00,24.764
361.00,25.004
362.00,25.272
363.00,25.543
364.00,25.650
365.00,25.837
366.00,26.010
367.00,26.109
368.00,26.158
369.00,26.269
370.00,26.364
371.00,26.385
372.00,26.361
373.00,26.377
374.00,26.421
375.00,26.365
376.00,26.285
377.00,26.272
378.00,26.146
379.00,26.043
380.00,26.039
381.00,26.083
382.00,26.051
383.00,26.136
384.00,26.233
385.00,26.243
386.00,26.312
387.00,26.467
388.00,26.586
389.00,26.602
390.00,26.758
391.00,26.811
392.00,26.906
393.00,26.894
394.00,26.962
395.00,27.045
396.00,27.023
397.00,27.050
398.00,27.091
399.00,27.101
400.00,27.111
401.00,27.146
402.00,27.163
403.00,27.157
404.00,27.128
405.00,27.151
406.00,27.143
407.00,27.051
408.00,27.085
409.00,27.050
410.00,26.975
411.00,27.004
412.00,26.959
413.00,26.960
414.00,26.960
415.00,26.917
416.00,26.992
417.00,26.954
418.00,26.995
419.00,27.078
420.00,27.092
421.00,27.150
422.00,27.180
423.00,27.219
424.00,27.265
425.00,27.309
426.00,27.360
427.00,27.388
428.00,27.428
429.00,27.468
430.00,27.571
431.00,27.541
432.00,27.560
433.00,27.595
434.00,27.718
435.00,27.790
436.00,27.853
437.00,27.945
438.00,28.005
439.00,28.035
440.00,28.124
441.00,28.188
442.00,28.277
443.00,28.337
444.00,28.458
445.00,28.560
446.00,28.645
447.00,28.745
448.00,28.827
449.00,28.911
450.00,29.031
451.00,29.136
452.00,29.212
453.00,29.366
454.00,29.474
455.00,29.543
456.00,29.655
457.00,29.803
458.00,29.844
459.00,30.045
460.00,30.192
461.00,30.282
462.00,30.390
463.00,30.553
464.00,30.679
465.00,30.783
466.00,30.940
467.00,31.065
468.00,31.131
469.00,31.247
470.00,31.348
471.00,31.407
472.00,31.553
473.00,31.615
474.00,31.715
475.00,31.855
476.00,31.918
477.00,32.068
478.00,32.145
479.00,32.338
480.00,32.489
481.00,32.557
482.00,32.703
483.00,32.870
484.00,33.020
485.00,33.195
486.00,33.281
487.00,33.411
488.00,33.485
489.00,33.655
490.00,33.836
491.00,33.953
492.00,34.061
493.00,34.296
494.00,34.436
495.00,34.429
496.00,34.553
497.00,34.660
498.00,34.794
499.00,34.891
500.00,35.052
501.00,35.151
502.00,35.288
503.00,35.346
504.00,35.373
505.00,35.521
506.00,35.686
507.00,35.718
508.00,35.847
509.00,36.056
510.00,36.163
511.00,36.172
512.00,36.384
513.00,36.512
514.00,36.577
515.00,36.744
516.00,36.816
517.00,36.841
518.00,37.027
519.00,37.058
520.00,37.113
521.00,37.215
522.00,37.281
523.00,37.319
524.00,37.391
525.00,37.507
526.00,37.586
527.00,37.625
528.00,37.660
529.00,37.832
530.00,37.999
531.00,38.110
532.00,38.142
533.00,38.300
534.00,38.321
535.00,38.434
536.00,38.519
537.00,38.561
538.00,38.638
539.00,38.690
540.00,38.712
541.00,38.774
542.00,38.783
543.00,38.844
544.00,38.968
545.00,39.045
546.00,39.050
547.00,39.111
548.00,39.206
549.00,39.304
550.00,39.414
551.00,39.443
552.00,39.469
553.00,39.506
554.00,39.529
555.00,39.533
556.00,39.621
557.00,39.667
558.00,39.671
559.00,39.814
560.00,39.848
561.00,39.844
562.00,39.942
563.00,39.993
564.00,40.085
565.00,40.137
566.00,40.199
567.00,40.206
568.00,40.242
569.00,40.236
570.00,40.274
571.00,40.356
572.00,40.329
573.00,40.267
574.00,40.365
575.00,40.343
576.00,40.346
577.00,40.358
578.00,40.526
579.00,40.590
580.00,40.547
581.00,40.724
582.00,40.810
583.00,40.749
584.00,40.928
585.00,40.987
586.00,40.952
587.00,40.994
588.00,40.991
589.00,40.840
590.00,41.008
591.00,41.142
592.00,41.087
593.00,41.017
594.00,41.231
595.00,41.389
596.00,41.350
597.00,41.399
598.00,41.455
599.00,41.461
600.00,41.525
601.00,41.484
602.00,41.530
603.00,41.563
604.00,41.567
605.00,41.613
606.00,41.707
607.00,41.705
608.00,41.727
609.00,41.809
610.00,42.023
611.00,41.823
612.00,41.875
613.00,41.919
614.00,42.018
615.00,42.079
616.00,42.158
617.00,42.105
618.00,42.086
619.00,42.140
620.00,42.195
621.00,42.262
622.00,42.326
623.00,42.387
624.00,42.447
625.00,42.542
626.00,42.539
627.00,42.593
628.00,42.600
629.00,42.652
630.00,42.638
631.00,42.677
632.00,42.803
633.00,42.897
634.00,42.919
635.00,43.012
636.00,43.088
637.00,43.088
638.00,43.134
639.00,43.297
640.00,43.288
641.00,43.335
642.00,43.352
643.00,43.417
644.00,43.522
645.00,43.538
646.00,43.725
647.00,43.761
648.00,43.720
649.00,43.775
650.00,43.771
651.00,43.891
652.00,43.956
653.00,44.040
654.00,43.974
655.00,44.111
656.00,44.362
657.00,44.122
658.00,44.329
659.00,44.367
660.00,44.401
661.00,44.384
662.00,44.636
663.00,44.590
664.00,44.923
665.00,45.000
666.00,44.901
667.00,45.085
668.00,44.973
669.00,45.175
670.00,45.459
671.00,45.244
672.00,45.420
673.00,45.507
674.00,45.530
675.00,45.593
676.00,45.757
677.00,45.909
678.00,45.727
679.00,45.867
680.00,45.934
681.00,46.151
682.00,46.020
683.00,46.115
684.00,46.149
685.00,46.172
686.00,46.267
687.00,46.368
688.00,46.371
689.00,46.399
690.00,46.660
691.00,46.928
692.00,46.617
693.00,46.578
694.00,46.756
695.00,46.999
696.00,46.964
697.00,46.876
698.00,46.982
699.00,47.225
700.00,47.188
701.00,47.251
702.00,47.278
703.00,47.499
704.00,47.456
705.00,47.367
706.00,47.438
707.00,47.564
708.00,47.427
709.00,47.900
710.00,48.173
711.00,47.598
712.00,47.696
713.00,47.867
714.00,47.977
715.00,47.918
716.00,47.821
717.00,48.097
718.00,48.209
719.00,48.115
720.00,48.202
721.00,52.750
722.00,52.655
723.00,52.730
724.00,52.781
725.00,52.771
726.00,52.705
727.00,52.787
728.00,52.704
729.00,52.725
730.00,52.748
731.00,52.680
732.00,52.753
733.00,52.761
734.00,52.818
735.00,52.803
736.00,52.799
737.00,52.814
738.00,52.784
739.00,52.844
740.00,52.873
741.00,52.865
742.00,52.921
743.00,52.858
744.00,52.874
745.00,52.948
746.00,52.872
747.00,52.772
748.00,52.849
749.00,52.769
750.00,52.786
751.00,52.728
752.00,52.765
753.00,52.766
754.00,52.680
755.00,52.722
756.00,52.674
757.00,52.700
758.00,52.717
759.00,52.708
760.00,52.725
761.00,52.673
762.00,52.651
763.00,52.745
764.00,52.637
765.00,52.581
766.00,52.684
767.00,52.718
768.00,52.635
769.00,52.606
770.00,52.655
771.00,52.647
772.00,52.628
773.00,52.647
774.00,52.700
775.00,52.644
776.00,52.582
777.00,52.586
778.00,52.653
779.00,52.623
780.00,52.549
781.00,52.620
782.00,52.636
783.00,52.540
784.00,52.559
785.00,52.546
786.00,52.538
787.00,52.478
788.00,52.421
789.00,52.465
790.00,52.456
791.00,52.503
792.00,52.409
793.00,52.437
794.00,52.374
795.00,52.455
796.00,52.342
797.00,52.267
798.00,52.256
799.00,52.224
800.00,52.189
801.00,52.241
802.00,52.167
803.00,52.213
804.00,52.157
805.00,52.180
806.00,52.087
807.00,52.102
808.00,52.103
809.00,52.194
810.00,52.066
811.00,52.053
812.00,52.029
813.00,51.919
814.00,51.903
815.00,51.921
816.00,51.988
817.00,51.858
818.00,51.821
819.00,51.878
820.00,51.780
821.00,51.802
822.00,51.840
823.00,51.739
824.00,51.809
825.00,51.758
826.00,51.833
827.00,51.760
828.00,51.618
829.00,51.763
830.00,51.755
831.00,53.905
832.00,53.878
833.00,53.813
834.00,53.830
835.00,53.819
836.00,53.814
837.00,53.767
838.00,53.741
839.00,53.713
840.00,53.675
841.00,53.675
842.00,53.659
843.00,53.658
844.00,53.666
845.00,53.570
846.00,53.587
847.00,53.565
848.00,53.523
849.00,53.455
850.00,53.425
851.00,53.362
852.00,53.414
853.00,53.353
854.00,53.322
855.00,53.255
856.00,53.248
857.00,53.222
858.00,53.190
859.00,53.155
860.00,53.165
861.00,53.164
862.00,53.108
863.00,53.129
864.00,53.074
865.00,53.085
866.00,53.066
867.00,53.066
868.00,53.010
869.00,53.013
870.00,53.027
871.00,53.002
872.00,52.993
873.00,52.974
874.00,52.994
875.00,52.956
876.00,52.964
877.00,52.908
878.00,52.940
879.00,52.879
880.00,52.855
881.00,52.839
882.00,52.871
883.00,52.928
884.00,52.769
885.00,52.779
886.00,52.750
887.00,52.736
888.00,52.691
889.00,52.671
890.00,52.675
891.00,52.632
892.00,52.641
893.00,52.583
894.00,52.586
895.00,52.558
896.00,52.537
897.00,52.534
898.00,52.495
899.00,52.482
900.00,52.471
901.00,52.460
902.00,52.475
903.00,52.453
904.00,52.413
905.00,52.424
906.00,52.390
907.00,52.391
908.00,52.309
909.00,52.337
910.00,52.300
911.00,52.213
912.00,52.326
913.00,52.254
914.00,52.212
915.00,52.192
916.00,52.175
917.00,52.151
918.00,52.139
919.00,52.118
920.00,52.063
921.00,52.069
922.00,52.011
923.00,52.001
924.00,51.984
925.00,51.978
926.00,51.991
927.00,51.969
928.00,51.925
929.00,51.932
930.00,51.908
931.00,51.872
932.00,51.871
933.00,51.877
934.00,51.838
935.00,51.772
936.00,51.847
937.00,51.820
938.00,51.768
939.00,51.747
940.00,51.730
941.00,51.732
942.00,51.688
943.00,51.666
944.00,51.625
945.00,51.626
946.00,51.611
947.00,51.589
948.00,51.564
949.00,51.556
950.00,51.517
951.00,51.508
952.00,51.491
953.00,51.452
954.00,51.424
955.00,51.389
956.00,51.368
957.00,51.341
958.00,51.340
959.00,51.288
960.00,51.288
961.00,51.279
962.00,51.278
963.00,51.237
964.00,51.212
965.00,51.224
966.00,51.218
967.00,51.201
968.00,51.187
969.00,51.237
970.00,51.203
971.00,51.210
972.00,51.161
973.00,51.205
974.00,51.221
975.00,51.175
976.00,51.199
977.00,51.182
978.00,51.201
979.00,51.175
980.00,51.200
981.00,51.205
982.00,51.193
983.00,51.181
984.00,51.175
985.00,51.243
986.00,51.106
987.00,51.155
988.00,51.112
989.00,51.093
990.00,51.086
991.00,51.074
992.00,51.095
993.00,51.058
994.00,51.041
995.00,51.042
996.00,51.039
997.00,51.018
998.00,51.009
999.00,51.018
1000.00,50.972
1001.00,50.982
1002.00,50.965
1003.00,50.962
1004.00,50.930
1005.00,50.890
1006.00,50.923
1007.00,50.889
1008.00,50.876
1009.00,50.873
1010.00,50.873
1011.00,50.852
1012.00,50.834
1013.00,50.845
1014.00,50.809
1015.00,50.829
1016.00,50.773
1017.00,50.767
1018.00,50.754
1019.00,50.708
1020.00,50.723
1021.00,50.697
1022.00,50.679
1023.00,50.640
1024.00,50.649
1025.00,50.639
1026.00,50.630
1027.00,50.588
1028.00,50.592
1029.00,50.590
1030.00,50.562
1031.00,50.582
1032.00,50.530
1033.00,50.520
1034.00,50.508
1035.00,50.469
1036.00,50.460
1037.00,50.436
1038.00,50.428
1039.00,50.409
1040.00,50.395
1041.00,50.360
1042.00,50.359
1043.00,50.367
1044.00,50.372
1045.00,50.358
1046.00,50.354
1047.00,50.357
1048.00,50.375
1049.00,50.366
1050.00,50.367
1051.00,50.400
1052.00,50.391
1053.00,50.406
1054.00,50.388
1055.00,50.418
1056.00,50.434
1057.00,50.441
1058.00,50.426
1059.00,50.427
1060.00,50.409
1061.00,50.407
1062.00,50.399
1063.00,50.387
1064.00,50.415
1065.00,50.402
1066.00,50.367
1067.00,50.372
1068.00,50.390
1069.00,50.355
1070.00,50.330
1071.00,50.308
1072.00,50.333
1073.00,50.317
1074.00,50.292
1075.00,50.309
1076.00,50.321
1077.00,50.291
1078.00,50.284
1079.00,50.287
1080.00,50.288
1081.00,50.273
1082.00,50.255
1083.00,50.255
1084.00,50.245
1085.00,50.232
1086.00,50.224
1087.00,50.229
1088.00,50.218
1089.00,50.219
1090.00,50.219
1091.00,50.207
1092.00,50.204
1093.00,50.175
1094.00,50.163
1095.00,50.156
1096.00,50.118
1097.00,50.137
1098.00,50.131
1099.00,50.116
1100.00,50.110
1101.00,50.099
1102.00,50.100
1103.00,50.096
1104.00,50.074
1105.00,50.085
1106.00,50.081
1107.00,50.039
1108.00,50.049
1109.00,50.049
1110.00,50.025
1111.00,50.025
1112.00,50.006
1113.00,50.003
1114.00,50.007
1115.00,49.995
1116.00,49.988
1117.00,49.968
1118.00,49.951
1119.00,49.972
1120.00,49.974
1121.00,49.970
1122.00,49.956
1123.00,49.940
1124.00,49.925
1125.00,49.928
1126.00,49.910
1127.00,49.907
1128.00,49.888
1129.00,49.867
1130.00,49.886
1131.00,49.884
1132.00,49.891
1133.00,49.894
1134.00,49.853
1135.00,49.847
1136.00,49.855
1137.00,49.861
1138.00,49.870
1139.00,49.858
1140.00,49.841
1141.00,49.852
1142.00,49.842
1143.00,49.852
1144.00,49.847
1145.00,49.852
1146.00,49.849
1147.00,49.852
1148.00,49.825
1149.00,49.839
1150.00,49.839
1151.00,49.821
1152.00,49.835
1153.00,49.865
1154.00,49.838
1155.00,49.822
1156.00,49.816
1157.00,49.807
1158.00,49.812
1159.00,49.789
1160.00,49.796
1161.00,49.800
1162.00,49.781
1163.00,49.812
1164.00,49.799
1165.00,49.805
1166.00,49.844
1167.00,49.798
1168.00,49.815
1169.00,49.805
1170.00,49.796
1171.00,49.780
1172.00,49.785
1173.00,49.768
1174.00,49.799
1175.00,49.795
1176.00,49.798
1177.00,49.785
1178.00,49.782
1179.00,49.806
1180.00,49.804
1181.00,49.815
1182.00,49.804
1183.00,49.791
1184.00,49.770
1185.00,49.800
1186.00,49.791
1187.00,49.775
1188.00,49.787
1189.00,49.779
1190.00,49.766
1191.00,49.770
1192.00,49.773
1193.00,49.772
1194.00,49.777
1195.00,49.743
1196.00,49.792
1197.00,49.789
1198.00,49.782
1199.00,49.810
1200.00,49.790
1201.00,49.796
1202.00,49.774
1203.00,49.752
1204.00,49.753
1205.00,49.773
1206.00,49.753
1207.00,49.772
1208.00,49.751
1209.00,49.774
1210.00,49.790
1211.00,49.776
1212.00,49.805
1213.00,49.777
1214.00,49.809
1215.00,49.795
1216.00,49.783
1217.00,49.774
1218.00,49.761
1219.00,49.791
1220.00,49.766
1221.00,49.806
1222.00,49.791
1223.00,49.808
1224.00,49.809
1225.00,49.775
1226.00,49.799
1227.00,49.788
1228.00,49.794
1229.00,49.782
1230.00,49.816
1231.00,49.811
1232.00,49.835
1233.00,49.844
1234.00,49.832
1235.00,49.842
1236.00,49.831
1237.00,49.840
1238.00,49.841
1239.00,49.841
1240.00,49.839
1241.00,49.839
1242.00,49.838
1243.00,49.869
1244.00,49.847
1245.00,49.871
1246.00,49.889
1247.00,49.870
1248.00,49.871
1249.00,49.884
1250.00,49.883
1251.00,49.886
1252.00,49.906
1253.00,49.892
1254.00,49.942
1255.00,49.926
1256.00,49.914
1257.00,49.916
1258.00,49.930
1259.00,49.935
1260.00,49.968
1261.00,49.953
1262.00,49.938
1263.00,49.943
1264.00,49.958
1265.00,49.983
1266.00,49.974
1267.00,49.982
1268.00,50.005
1269.00,49.982
1270.00,50.005
1271.00,50.018
1272.00,50.003
1273.00,50.029
1274.00,50.031
1275.00,50.056
1276.00,50.073
1277.00,50.050
1278.00,50.064
1279.00,50.067
1280.00,50.045
1281.00,50.064
1282.00,50.073
1283.00,50.067
1284.00,50.078
1285.00,50.068
1286.00,50.074
1287.00,50.085
1288.00,50.086
1289.00,50.083
1290.00,50.117
1291.00,50.098
1292.00,50.106
1293.00,50.121
1294.00,50.111
1295.00,50.140
1296.00,50.150
1297.00,50.165
1298.00,50.203
1299.00,50.163
1300.00,50.171
1301.00,50.176
1302.00,50.192
1303.00,50.210
1304.00,50.180
1305.00,50.190
1306.00,50.214
1307.00,50.229
1308.00,50.217
1309.00,50.245
1310.00,50.244
1311.00,50.242
1312.00,50.252
1313.00,50.252
1314.00,50.278
1315.00,50.282
1316.00,50.264
1317.00,50.321
1318.00,50.318
1319.00,50.311
1320.00,50.339
1321.00,50.522
1322.00,50.497
1323.00,50.474
1324.00,50.478
1325.00,50.452
1326.00,50.477
1327.00,50.469
1328.00,50.449
1329.00,50.449
1330.00,50.412
1331.00,50.492
1332.00,50.555
1333.00,50.418
1334.00,50.555
1335.00,50.553
1336.00,50.571
1337.00,50.616
1338.00,50.648
1339.00,50.693
1340.00,50.758
1341.00,50.795
1342.00,50.878
1343.00,50.923
1344.00,50.950
1345.00,51.047
1346.00,51.085
1347.00,51.081
1348.00,51.104
1349.00,51.135
1350.00,51.155
1351.00,51.157
1352.00,51.164
1353.00,51.187
1354.00,51.199
1355.00,51.152
1356.00,51.137
1357.00,51.183
1358.00,51.296
1359.00,51.294
1360.00,51.326
1361.00,51.105
1362.00,51.225
1363.00,51.302
1364.00,51.191
1365.00,51.319
1366.00,51.542
1367.00,51.226
1368.00,51.296
1369.00,51.273
1370.00,51.246
1371.00,51.189
1372.00,51.227
1373.00,51.261
1374.00,51.274
1375.00,51.267
1376.00,51.270
1377.00,51.226
1378.00,51.435
1379.00,51.301
1380.00,51.341
1381.00,51.469
1382.00,51.170
1383.00,51.353
1384.00,51.237
1385.00,51.204
1386.00,51.270
1387.00,51.234
1388.00,51.214
1389.00,51.345
1390.00,51.293
1391.00,51.210
1392.00,51.312
1393.00,51.346
1394.00,51.260
1395.00,51.130
1396.00,51.175
1397.00,51.286
1398.00,51.332
1399.00,51.219
1400.00,51.131
1401.00,51.252
1402.00,51.385
1403.00,51.243
1404.00,51.257
1405.00,51.345
1406.00,51.318
1407.00,51.312
1408.00,51.273
1409.00,51.303
1410.00,51.350
1411.00,51.409
1412.00,51.634
1413.00,51.355
1414.00,51.309
1415.00,51.372
1416.00,51.409
1417.00,51.479
1418.00,51.389
1419.00,51.399
1420.00,51.415
1421.00,51.507
1422.00,51.509
1423.00,51.491
1424.00,51.512
1425.00,51.539
1426.00,51.570
1427.00,51.586
1428.00,51.544
1429.00,51.584
1430.00,51.598
1431.00,51.605
1432.00,51.624
1433.00,51.641
1434.00,51.639
1435.00,51.710
1436.00,51.726
1437.00,51.699
1438.00,51.712
1439.00,51.771
1440.00,51.769
1441.00,51.787
1442.00,51.792
1443.00,51.837
1444.00,51.901
1445.00,51.811
1446.00,51.854
1447.00,51.898
1448.00,51.944
1449.00,51.934
1450.00,51.938
1451.00,51.951
1452.00,51.981
1453.00,51.993
1454.00,52.001
1455.00,52.034
1456.00,52.042
1457.00,52.043
1458.00,52.093
1459.00,52.093
1460.00,52.111
1461.00,52.124
1462.00,52.138
1463.00,52.156
1464.00,52.180
1465.00,52.184
1466.00,52.192
1467.00,52.217
1468.00,52.279
1469.00,52.259
1470.00,52.268
1471.00,52.295
1472.00,52.318
1473.00,52.324
1474.00,52.344
1475.00,52.370
1476.00,52.370
1477.00,52.378
1478.00,52.424
1479.00,52.419
1480.00,52.433
1481.00,52.422
1482.00,52.472
1483.00,52.496
1484.00,52.476
1485.00,52.497
1486.00,52.506
1487.00,52.527
1488.00,52.564
1489.00,52.552
1490.00,52.569
1491.00,52.598
1492.00,52.615
1493.00,52.601
1494.00,52.648
1495.00,52.623
1496.00,52.653
1497.00,52.657
1498.00,52.652
1499.00,52.679
1500.00,52.695
1501.00, 
1502.00, 
1503.00, 
1504.00, 
1505.00, 
1506.00, 
1507.00, 
1508.00, 
1509.00, 
1510.00, 
1511.00, 
1512.00, 
1513.00, 
1514.00, 
1515.00, 
1516.00, 
1517.00, 
1518.00, 
1519.00, 
1520.00, 
1521.00, 
1522.00, 
1523.00, 
1524.00, 
1525.00, 
1526.00, 
1527.00, 
1528.00, 
1529.00, 
1530.00, 
1531.00, 
1532.00, 
1533.00, 
1534.00, 
1535.00, 
1536.00, 
1537.00, 
1538.00, 
1539.00, 
1540.00, 
1541.00, 
1542.00, 
1543.00, 
1544.00, 
1545.00, 
1546.00, 
1547.00, 
1548.00, 
1549.00, 
1550.00, 
1551.00, 
1552.00, 
1553.00, 
1554.00, 
1555.00, 
1556.00, 
1557.00, 
1558.00, 
1559.00, 
1560.00, 
1561.00, 
1562.00, 
1563.00, 
1564.00, 
1565.00, 
1566.00, 
1567.00, 
1568.00, 
1569.00, 
1570.00, 
1571.00, 
1572.00, 
1573.00, 
1574.00, 
1575.00, 
1576.00, 
1577.00, 
1578.00, 
1579.00, 
1580.00, 
1581.00, 
1582.00, 
1583.00, 
1584.00, 
1585.00, 
1586.00, 
1587.00, 
1588.00, 
1589.00, 
1590.00, 
1591.00, 
1592.00, 
1593.00, 
1594.00, 
1595.00, 
1596.00, 
1597.00, 
1598.00, 
1599.00, 
1600.00, 
1601.00, 
1602.00, 
1603.00, 
1604.00, 
1605.00, 
1606.00, 
1607.00, 
1608.00, 
1609.00, 
1610.00, 
1611.00, 
1612.00, 
1613.00, 
1614.00, 
1615.00, 
1616.00, 
1617.00, 
1618.00, 
1619.00, 
1620.00, 
1621.00, 
1622.00, 
1623.00, 
1624.00, 
1625.00, 
1626.00, 
1627.00, 
1628.00, 
1629.00, 
1630.00, 
1631.00, 
1632.00, 
1633.00, 
1634.00, 
1635.00, 
1636.00, 
1637.00, 
1638.00, 
1639.00, 
1640.00, 
1641.00, 
1642.00, 
1643.00, 
1644.00, 
1645.00, 
1646.00, 
1647.00, 
1648.00, 
1649.00, 
1650.00, 
1651.00, 
1652.00, 
1653.00, 
1654.00, 
1655.00, 
1656.00, 
1657.00, 
1658.00, 
1659.00, 
1660.00, 
1661.00, 
1662.00, 
1663.00, 
1664.00, 
1665.00, 
1666.00, 
1667.00, 
1668.00, 
1669.00, 
1670.00, 
1671.00, 
1672.00, 
1673.00, 
1674.00, 
1675.00, 
1676.00, 
1677.00, 
1678.00, 
1679.00, 
1680.00, 
1681.00, 
1682.00, 
1683.00, 
1684.00, 
1685.00, 
1686.00, 
1687.00, 
1688.00, 
1689.00, 
1690.00, 
1691.00, 
1692.00, 
1693.00, 
1694.00, 
1695.00, 
1696.00, 
1697.00, 
1698.00, 
1699.00, 
1700.00, 
1701.00, 
1702.00, 
1703.00, 
1704.00, 
1705.00, 
1706.00, 
1707.00, 
1708.00, 
1709.00, 
1710.00, 
1711.00, 
1712.00, 
1713.00, 
1714.00, 
1715.00, 
1716.00, 
1717.00, 
1718.00, 
1719.00, 
1720.00, 
1721.00, 
1722.00, 
1723.00, 
1724.00, 
1725.00, 
1726.00, 
1727.00, 
1728.00, 
1729.00, 
1730.00, 
1731.00, 
1732.00, 
1733.00, 
1734.00, 
1735.00, 
1736.00, 
1737.00, 
1738.00, 
1739.00, 
1740.00, 
1741.00, 
1742.00, 
1743.00, 
1744.00, 
1745.00, 
1746.00, 
1747.00, 
1748.00, 
1749.00, 
1750.00, 
1751.00, 
1752.00, 
1753.00, 
1754.00, 
1755.00, 
1756.00, 
1757.00, 
1758.00, 
1759.00, 
1760.00, 
1761.00, 
1762.00, 
1763.00, 
1764.00, 
1765.00, 
1766.00, 
1767.00, 
1768.00, 
1769.00, 
1770.00, 
1771.00, 
1772.00, 
1773.00, 
1774.00, 
1775.00, 
1776.00, 
1777.00, 
1778.00, 
1779.00, 
1780.00, 
1781.00, 
1782.00, 
1783.00, 
1784.00, 
1785.00, 
1786.00, 
1787.00, 
1788.00, 
1789.00, 
1790.00, 
1791.00, 
1792.00, 
1793.00, 
1794.00, 
1795.00, 
1796.00, 
1797.00, 
1798.00, 
1799.00, 
1800.00, 
1801.00, 
1802.00, 
1803.00, 
1804.00, 
1805.00, 
1806.00, 
1807.00, 
1808.00, 
1809.00, 
1810.00, 
1811.00, 
1812.00, 
1813.00, 
1814.00, 
1815.00, 
1816.00, 
1817.00, 
1818.00, 
1819.00, 
1820.00, 
1821.00, 
1822.00, 
1823.00, 
1824.00, 
1825.00, 
1826.00, 
1827.00, 
1828.00, 
1829.00, 
1830.00, 
1831.00, 
1832.00, 
1833.00, 
1834.00, 
1835.00, 
1836.00, 
1837.00, 
1838.00, 
1839.00, 
1840.00, 
1841.00, 
1842.00, 
1843.00, 
1844.00, 
1845.00, 
1846.00, 
1847.00, 
1848.00, 
1849.00, 
1850.00, 
1851.00, 
1852.00, 
1853.00, 
1854.00, 
1855.00, 
1856.00, 
1857.00, 
1858.00, 
1859.00, 
1860.00, 
1861.00, 
1862.00, 
1863.00, 
1864.00, 
1865.00, 
1866.00, 
1867.00, 
1868.00, 
1869.00, 
1870.00, 
1871.00, 
1872.00, 
1873.00, 
1874.00, 
1875.00, 
1876.00, 
1877.00, 
1878.00, 
1879.00, 
1880.00, 
1881.00, 
1882.00, 
1883.00, 
1884.00, 
1885.00, 
1886.00, 
1887.00, 
1888.00, 
1889.00, 
1890.00, 
1891.00, 
1892.00, 
1893.00, 
1894.00, 
1895.00, 
1896.00, 
1897.00, 
1898.00, 
1899.00, 
1900.00, 
1901.00, 
1902.00, 
1903.00, 
1904.00, 
1905.00, 
1906.00, 
1907.00, 
1908.00, 
1909.00, 
1910.00, 
1911.00, 
1912.00, 
1913.00, 
1914.00, 
1915.00, 
1916.00, 
1917.00, 
1918.00, 
1919.00, 
1920.00, 
1921.00, 
1922.00, 
1923.00, 
1924.00, 
1925.00, 
1926.00, 
1927.00, 
1928.00, 
1929.00, 
1930.00, 
1931.00, 
1932.00, 
1933.00, 
1934.00, 
1935.00, 
1936.00, 
1937.00, 
1938.00, 
1939.00, 
1940.00, 
1941.00, 
1942.00, 
1943.00, 
1944.00, 
1945.00, 
1946.00, 
1947.00, 
1948.00, 
1949.00, 
1950.00, 
1951.00, 
1952.00, 
1953.00, 
1954.00, 
1955.00, 
1956.00, 
1957.00, 
1958.00, 
1959.00, 
1960.00, 
1961.00, 
1962.00, 
1963.00, 
1964.00, 
1965.00, 
1966.00, 
1967.00, 
1968.00, 
1969.00, 
1970.00, 
1971.00, 
1972.00, 
1973.00, 
1974.00, 
1975.00, 
1976.00, 
1977.00, 
1978.00, 
1979.00, 
1980.00, 
1981.00, 
1982.00, 
1983.00, 
1984.00, 
1985.00, 
1986.00, 
1987.00, 
1988.00, 
1989.00, 
1990.00, 
1991.00, 
1992.00, 
1993.00, 
1994.00, 
1995.00, 
1996.00, 
1997.00, 
1998.00, 
1999.00, 
2000.00, 
2001.00, 
2002.00, 
2003.00, 
2004.00, 
2005.00, 
2006.00, 
2007.00, 
2008.00, 
2009.00, 
2010.00, 
2011.00, 
2012.00, 
2013.00, 
2014.00, 
2015.00, 
2016.00, 
2017.00, 
2018.00, 
2019.00, 
2020.00, 
2021.00, 
2022.00, 
2023.00, 
2024.00, 
2025.00, 
2026.00, 
2027.00, 
2028.00, 
2029.00, 
2030.00, 
2031.00, 
2032.00, 
2033.00, 
2034.00, 
2035.00, 
2036.00, 
2037.00, 
2038.00, 
2039.00, 
2040.00, 
2041.00, 
2042.00, 
2043.00, 
2044.00, 
2045.00, 
2046.00, 
2047.00, 
2048.00, 
2049.00, 
2050.00, 
2051.00, 
2052.00, 
2053.00, 
2054.00, 
2055.00, 
2056.00, 
2057.00, 
2058.00, 
2059.00, 
2060.00, 
2061.00, 
2062.00, 
2063.00, 
2064.00, 
2065.00, 
2066.00, 
2067.00, 
2068.00, 
2069.00, 
2070.00, 
2071.00, 
2072.00, 
2073.00, 
2074.00, 
2075.00, 
2076.00, 
2077.00, 
2078.00, 
2079.00, 
2080.00, 
2081.00, 
2082.00, 
2083.00, 
2084.00, 
2085.00, 
2086.00, 
2087.00, 
2088.00, 
2089.00, 
2090.00, 
2091.00, 
2092.00, 
2093.00, 
2094.00, 
2095.00, 
2096.00, 
2097.00, 
2098.00, 
2099.00, 
2100.00, 
2101.00, 
2102.00, 
2103.00, 
2104.00, 
2105.00, 
2106.00, 
2107.00, 
2108.00, 
2109.00, 
2110.00, 
2111.00, 
2112.00, 
2113.00, 
2114.00, 
2115.00, 
2116.00, 
2117.00, 
2118.00, 
2119.00, 
2120.00, 
2121.00, 
2122.00, 
2123.00, 
2124.00, 
2125.00, 
2126.00, 
2127.00, 
2128.00, 
2129.00, 
2130.00, 
2131.00, 
2132.00, 
2133.00, 
2134.00, 
2135.00, 
2136.00, 
2137.00, 
2138.00, 
2139.00, 
2140.00, 
2141.00, 
2142.00, 
2143.00, 
2144.00, 
2145.00, 
2146.00, 
2147.00, 
2148.00, 
2149.00, 
2150.00, 
2151.00, 
2152.00, 
2153.00, 
2154.00, 
2155.00, 
2156.00, 
2157.00, 
2158.00, 
2159.00, 
2160.00, 
2161.00, 
2162.00, 
2163.00, 
2164.00, 
2165.00, 
2166.00, 
2167.00, 
2168.00, 
2169.00, 
2170.00, 
2171.00, 
2172.00, 
2173.00, 
2174.00, 
2175.00, 
2176.00, 
2177.00, 
2178.00, 
2179.00, 
2180.00, 
2181.00, 
2182.00, 
2183.00, 
2184.00, 
2185.00, 
2186.00, 
2187.00, 
2188.00, 
2189.00, 
2190.00, 
2191.00, 
2192.00, 
2193.00, 
2194.00, 
2195.00, 
2196.00, 
2197.00, 
2198.00, 
2199.00, 
2200.00, 
2201.00, 
2202.00, 
2203.00, 
2204.00, 
2205.00, 
2206.00, 
2207.00, 
2208.00, 
2209.00, 
2210.00, 
2211.00, 
2212.00, 
2213.00, 
2214.00, 
2215.00, 
2216.00, 
2217.00, 
2218.00, 
2219.00, 
2220.00, 
2221.00, 
2222.00, 
2223.00, 
2224.00, 
2225.00, 
2226.00, 
2227.00, 
2228.00, 
2229.00, 
2230.00, 
2231.00, 
2232.00, 
2233.00, 
2234.00, 
2235.00, 
2236.00, 
2237.00, 
2238.00, 
2239.00, 
2240.00, 
2241.00, 
2242.00, 
2243.00, 
2244.00, 
2245.00, 
2246.00, 
2247.00, 
2248.00, 
2249.00, 
2250.00, 
2251.00, 
2252.00, 
2253.00, 
2254.00, 
2255.00, 
2256.00, 
2257.00, 
2258.00, 
2259.00, 
2260.00, 
2261.00, 
2262.00, 
2263.00, 
2264.00, 
2265.00, 
2266.00, 
2267.00, 
2268.00, 
2269.00, 
2270.00, 
2271.00, 
2272.00, 
2273.00, 
2274.00, 
2275.00, 
2276.00, 
2277.00, 
2278.00, 
2279.00, 
2280.00, 
2281.00, 
2282.00, 
2283.00, 
2284.00, 
2285.00, 
2286.00, 
2287.00, 
2288.00, 
2289.00, 
2290.00, 
2291.00, 
2292.00, 
2293.00, 
2294.00, 
2295.00, 
2296.00, 
2297.00, 
2298.00, 
2299.00, 
2300.00, 
2301.00, 
2302.00, 
2303.00, 
2304.00, 
2305.00, 
2306.00, 
2307.00, 
2308.00, 
2309.00, 
2310.00, 
2311.00, 
2312.00, 
2313.00, 
2314.00, 
2315.00, 
2316.00, 
2317.00, 
2318.00, 
2319.00, 
2320.00, 
2321.00, 
2322.00, 
2323.00, 
2324.00, 
2325.00, 
2326.00, 
2327.00, 
2328.00, 
2329.00, 
2330.00, 
2331.00, 
2332.00, 
2333.00, 
2334.00, 
2335.00, 
2336.00, 
2337.00, 
2338.00, 
2339.00, 
2340.00, 
2341.00, 
2342.00, 
2343.00, 
2344.00, 
2345.00, 
2346.00, 
2347.00, 
2348.00, 
2349.00, 
2350.00, 
2351.00, 
2352.00, 
2353.00, 
2354.00, 
2355.00, 
2356.00, 
2357.00, 
2358.00, 
2359.00, 
2360.00, 
2361.00, 
2362.00, 
2363.00, 
2364.00, 
2365.00, 
2366.00, 
2367.00, 
2368.00, 
2369.00, 
2370.00, 
2371.00, 
2372.00, 
2373.00, 
2374.00, 
2375.00, 
2376.00, 
2377.00, 
2378.00, 
2379.00, 
2380.00, 
2381.00, 
2382.00, 
2383.00, 
2384.00, 
2385.00, 
2386.00, 
2387.00, 
2388.00, 
2389.00, 
2390.00, 
2391.00, 
2392.00, 
2393.00, 
2394.00, 
2395.00, 
2396.00, 
2397.00, 
2398.00, 
2399.00, 
2400.00, 
2401.00, 
2402.00, 
2403.00, 
2404.00, 
2405.00, 
2406.00, 
2407.00, 
2408.00, 
2409.00, 
2410.00, 
2411.00, 
2412.00, 
2413.00, 
2414.00, 
2415.00, 
2416.00, 
2417.00, 
2418.00, 
2419.00, 
2420.00, 
2421.00, 
2422.00, 
2423.00, 
2424.00, 
2425.00, 
2426.00, 
2427.00, 
2428.00, 
2429.00, 
2430.00, 
2431.00, 
2432.00, 
2433.00, 
2434.00, 
2435.00, 
2436.00, 
2437.00, 
2438.00, 
2439.00, 
2440.00, 
2441.00, 
2442.00, 
2443.00, 
2444.00, 
2445.00, 
2446.00, 
2447.00, 
2448.00, 
2449.00, 
2450.00, 
2451.00, 
2452.00, 
2453.00, 
2454.00, 
2455.00, 
2456.00, 
2457.00, 
2458.00, 
2459.00, 
2460.00, 
2461.00, 
2462.00, 
2463.00, 
2464.00, 
2465.00, 
2466.00, 
2467.00, 
2468.00, 
2469.00, 
2470.00, 
2471.00, 
2472.00, 
2473.00, 
2474.00, 
2475.00, 
2476.00, 
2477.00, 
2478.00, 
2479.00, 
2480.00, 
2481.00, 
2482.00, 
2483.00, 
2484.00, 
2485.00, 
2486.00, 
2487.00, 
2488.00, 
2489.00, 
2490.00, 
2491.00, 
2492.00, 
2493.00, 
2494.00, 
2495.00, 
2496.00, 
2497.00, 
2498.00, 
2499.00, 
2500.00, 
2501.00, 
2502.00, 
2503.00, 
2504.00, 
2505.00, 
2506.00, 
2507.00, 
2508.00, 
2509.00, 
2510.00, 
2511.00, 
2512.00, 
2513.00, 
2514.00, 
2515.00, 
2516.00, 
2517.00, 
2518.00, 
2519.00, 
2520.00, 
2521.00, 
2522.00, 
2523.00, 
2524.00, 
2525.00, 
2526.00, 
2527.00, 
2528.00, 
2529.00, 
2530.00, 
2531.00, 
2532.00, 
2533.00, 
2534.00, 
2535.00, 
2536.00, 
2537.00, 
2538.00, 
2539.00, 
2540.00, 
2541.00, 
2542.00, 
2543.00, 
2544.00, 
2545.00, 
2546.00, 
2547.00, 
2548.00, 
2549.00, 
2550.00, 
2551.00, 
2552.00, 
2553.00, 
2554.00, 
2555.00, 
2556.00, 
2557.00, 
2558.00, 
2559.00, 
2560.00, 
2561.00, 
2562.00, 
2563.00, 
2564.00, 
2565.00, 
2566.00, 
2567.00, 
2568.00, 
2569.00, 
2570.00, 
2571.00, 
2572.00, 
2573.00, 
2574.00, 
2575.00, 
2576.00, 
2577.00, 
2578.00, 
2579.00, 
2580.00, 
2581.00, 
2582.00, 
2583.00, 
2584.00, 
2585.00, 
2586.00, 
2587.00, 
2588.00, 
2589.00, 
2590.00, 
2591.00, 
2592.00, 
2593.00, 
2594.00, 
2595.00, 
2596.00, 
2597.00, 
2598.00, 
2599.00, 
2600.00, 
