"1cP5 - RawData"
"Wavelength nm.","T%"
200.00,0.001
201.00,0.002
202.00,0.000
203.00,-0.002
204.00,0.002
205.00,-0.002
206.00,0.001
207.00,0.002
208.00,-0.001
209.00,0.004
210.00,0.001
211.00,0.002
212.00,-0.003
213.00,0.001
214.00,-0.001
215.00,-0.000
216.00,0.001
217.00,0.000
218.00,0.004
219.00,0.003
220.00,0.002
221.00,-0.003
222.00,0.002
223.00,0.002
224.00,0.001
225.00,-0.001
226.00,0.001
227.00,0.002
228.00,0.001
229.00,0.003
230.00,0.001
231.00,0.000
232.00,0.000
233.00,0.002
234.00,-0.001
235.00,0.001
236.00,0.001
237.00,0.002
238.00,0.000
239.00,-0.001
240.00,-0.001
241.00,0.002
242.00,-0.001
243.00,0.000
244.00,0.001
245.00,-0.000
246.00,-0.000
247.00,0.002
248.00,0.000
249.00,0.001
250.00,0.000
251.00,0.000
252.00,-0.001
253.00,0.002
254.00,-0.000
255.00,0.000
256.00,-0.000
257.00,-0.001
258.00,-0.000
259.00,0.000
260.00,0.001
261.00,-0.000
262.00,0.002
263.00,0.001
264.00,0.001
265.00,-0.002
266.00,0.001
267.00,-0.001
268.00,0.001
269.00,-0.001
270.00,-0.000
271.00,0.000
272.00,0.001
273.00,-0.000
274.00,-0.000
275.00,0.002
276.00,-0.001
277.00,0.001
278.00,0.001
279.00,-0.000
280.00,0.002
281.00,-0.000
282.00,-0.000
283.00,-0.000
284.00,-0.001
285.00,0.001
286.00,-0.001
287.00,0.000
288.00,0.002
289.00,0.000
290.00,0.001
291.00,0.000
292.00,0.001
293.00,-0.001
294.00,-0.000
295.00,-0.000
296.00,-0.001
297.00,0.000
298.00,-0.000
299.00,-0.001
300.00,0.002
301.00,0.001
302.00,0.001
303.00,-0.001
304.00,0.000
305.00,0.001
306.00,0.002
307.00,0.001
308.00,0.008
309.00,0.013
310.00,0.019
311.00,0.030
312.00,0.047
313.00,0.071
314.00,0.104
315.00,0.151
316.00,0.217
317.00,0.313
318.00,0.425
319.00,0.575
320.00,0.773
321.00,0.951
322.00,1.255
323.00,1.602
324.00,1.960
325.00,2.362
326.00,2.820
327.00,3.348
328.00,3.930
329.00,4.498
330.00,5.145
331.00,5.822
332.00,6.546
333.00,7.275
334.00,8.034
335.00,8.840
336.00,9.626
337.00,10.488
338.00,11.291
339.00,12.040
340.00,12.859
341.00,13.587
342.00,14.335
343.00,15.024
344.00,15.719
345.00,16.444
346.00,17.054
347.00,17.693
348.00,18.323
349.00,18.850
350.00,19.360
351.00,19.843
352.00,20.282
353.00,20.715
354.00,21.072
355.00,21.524
356.00,21.872
357.00,22.146
358.00,22.435
359.00,22.768
360.00,23.072
361.00,23.319
362.00,23.512
363.00,23.716
364.00,23.901
365.00,24.045
366.00,24.215
367.00,24.288
368.00,24.353
369.00,24.436
370.00,24.513
371.00,24.522
372.00,24.508
373.00,24.530
374.00,24.517
375.00,24.424
376.00,24.389
377.00,24.346
378.00,24.242
379.00,24.132
380.00,24.136
381.00,24.152
382.00,24.167
383.00,24.167
384.00,24.242
385.00,24.312
386.00,24.341
387.00,24.460
388.00,24.600
389.00,24.620
390.00,24.688
391.00,24.767
392.00,24.804
393.00,24.851
394.00,24.891
395.00,24.931
396.00,24.935
397.00,24.910
398.00,24.952
399.00,24.978
400.00,24.926
401.00,25.011
402.00,24.924
403.00,24.980
404.00,24.945
405.00,24.957
406.00,24.931
407.00,24.906
408.00,24.949
409.00,24.849
410.00,24.824
411.00,24.789
412.00,24.741
413.00,24.785
414.00,24.757
415.00,24.709
416.00,24.776
417.00,24.757
418.00,24.783
419.00,24.857
420.00,24.890
421.00,24.951
422.00,24.976
423.00,24.992
424.00,25.053
425.00,25.063
426.00,25.140
427.00,25.190
428.00,25.196
429.00,25.240
430.00,25.261
431.00,25.341
432.00,25.376
433.00,25.449
434.00,25.492
435.00,25.583
436.00,25.652
437.00,25.691
438.00,25.789
439.00,25.812
440.00,25.891
441.00,25.976
442.00,26.061
443.00,26.128
444.00,26.231
445.00,26.347
446.00,26.454
447.00,26.514
448.00,26.615
449.00,26.738
450.00,26.833
451.00,26.932
452.00,27.049
453.00,27.174
454.00,27.299
455.00,27.381
456.00,27.481
457.00,27.656
458.00,27.705
459.00,27.844
460.00,28.013
461.00,28.111
462.00,28.199
463.00,28.332
464.00,28.508
465.00,28.615
466.00,28.711
467.00,28.866
468.00,28.930
469.00,29.064
470.00,29.183
471.00,29.255
472.00,29.384
473.00,29.482
474.00,29.561
475.00,29.751
476.00,29.861
477.00,29.957
478.00,30.079
479.00,30.273
480.00,30.390
481.00,30.488
482.00,30.629
483.00,30.820
484.00,30.967
485.00,31.133
486.00,31.262
487.00,31.363
488.00,31.514
489.00,31.654
490.00,31.820
491.00,31.955
492.00,32.071
493.00,32.304
494.00,32.425
495.00,32.460
496.00,32.573
497.00,32.644
498.00,32.848
499.00,32.972
500.00,33.107
501.00,33.130
502.00,33.299
503.00,33.379
504.00,33.503
505.00,33.683
506.00,33.792
507.00,33.862
508.00,34.003
509.00,34.126
510.00,34.255
511.00,34.333
512.00,34.480
513.00,34.629
514.00,34.725
515.00,34.862
516.00,34.947
517.00,34.992
518.00,35.177
519.00,35.251
520.00,35.223
521.00,35.410
522.00,35.520
523.00,35.551
524.00,35.574
525.00,35.674
526.00,35.790
527.00,35.865
528.00,35.908
529.00,36.063
530.00,36.215
531.00,36.364
532.00,36.461
533.00,36.554
534.00,36.649
535.00,36.732
536.00,36.757
537.00,36.840
538.00,36.927
539.00,36.969
540.00,37.006
541.00,37.048
542.00,37.049
543.00,37.186
544.00,37.289
545.00,37.255
546.00,37.266
547.00,37.425
548.00,37.584
549.00,37.697
550.00,37.752
551.00,37.759
552.00,37.864
553.00,37.873
554.00,37.949
555.00,38.025
556.00,38.090
557.00,38.092
558.00,38.146
559.00,38.231
560.00,38.318
561.00,38.353
562.00,38.412
563.00,38.447
564.00,38.493
565.00,38.542
566.00,38.573
567.00,38.582
568.00,38.612
569.00,38.634
570.00,38.646
571.00,38.710
572.00,38.710
573.00,38.659
574.00,38.760
575.00,38.747
576.00,38.756
577.00,38.785
578.00,38.918
579.00,38.980
580.00,38.982
581.00,39.124
582.00,39.240
583.00,39.187
584.00,39.293
585.00,39.346
586.00,39.329
587.00,39.400
588.00,39.438
589.00,39.393
590.00,39.441
591.00,39.536
592.00,39.526
593.00,39.540
594.00,39.592
595.00,39.682
596.00,39.742
597.00,39.775
598.00,39.858
599.00,39.895
600.00,39.853
601.00,39.851
602.00,39.878
603.00,39.981
604.00,40.013
605.00,40.048
606.00,40.115
607.00,40.117
608.00,40.163
609.00,40.217
610.00,40.388
611.00,40.228
612.00,40.352
613.00,40.265
614.00,40.355
615.00,40.426
616.00,40.477
617.00,40.476
618.00,40.413
619.00,40.595
620.00,40.600
621.00,40.694
622.00,40.752
623.00,40.766
624.00,40.876
625.00,40.932
626.00,40.905
627.00,40.998
628.00,41.031
629.00,41.040
630.00,41.075
631.00,41.077
632.00,41.219
633.00,41.298
634.00,41.344
635.00,41.444
636.00,41.472
637.00,41.568
638.00,41.603
639.00,41.732
640.00,41.771
641.00,41.702
642.00,41.781
643.00,41.860
644.00,41.996
645.00,42.018
646.00,42.120
647.00,42.165
648.00,42.215
649.00,42.294
650.00,42.256
651.00,42.415
652.00,42.505
653.00,42.540
654.00,42.535
655.00,42.725
656.00,42.860
657.00,42.794
658.00,42.811
659.00,42.924
660.00,42.915
661.00,43.008
662.00,43.149
663.00,43.144
664.00,43.463
665.00,43.559
666.00,43.583
667.00,43.632
668.00,43.514
669.00,43.746
670.00,43.963
671.00,43.869
672.00,44.096
673.00,44.095
674.00,44.171
675.00,44.203
676.00,44.352
677.00,44.540
678.00,44.480
679.00,44.572
680.00,44.616
681.00,44.841
682.00,44.809
683.00,44.792
684.00,44.937
685.00,45.146
686.00,45.106
687.00,45.105
688.00,45.188
689.00,45.162
690.00,45.314
691.00,45.618
692.00,45.514
693.00,45.554
694.00,45.529
695.00,45.688
696.00,45.762
697.00,45.668
698.00,45.673
699.00,46.041
700.00,46.042
701.00,46.063
702.00,46.192
703.00,46.287
704.00,46.050
705.00,46.168
706.00,46.752
707.00,46.605
708.00,46.382
709.00,46.752
710.00,47.090
711.00,46.678
712.00,46.701
713.00,46.858
714.00,46.961
715.00,46.998
716.00,46.942
717.00,47.130
718.00,47.125
719.00,47.140
720.00,47.277
721.00,51.665
722.00,51.692
723.00,51.836
724.00,51.793
725.00,51.791
726.00,51.752
727.00,51.770
728.00,51.753
729.00,51.774
730.00,51.851
731.00,51.819
732.00,51.885
733.00,51.890
734.00,51.990
735.00,51.977
736.00,52.012
737.00,52.018
738.00,52.056
739.00,52.100
740.00,52.089
741.00,52.021
742.00,52.068
743.00,52.039
744.00,52.028
745.00,52.041
746.00,52.046
747.00,52.003
748.00,52.066
749.00,52.041
750.00,52.078
751.00,51.949
752.00,51.994
753.00,52.049
754.00,52.030
755.00,52.026
756.00,52.048
757.00,52.049
758.00,52.070
759.00,51.984
760.00,52.123
761.00,52.043
762.00,52.015
763.00,52.061
764.00,51.968
765.00,52.064
766.00,52.103
767.00,52.106
768.00,52.070
769.00,52.044
770.00,52.162
771.00,52.047
772.00,52.052
773.00,52.050
774.00,52.105
775.00,52.117
776.00,52.068
777.00,52.084
778.00,52.100
779.00,52.106
780.00,52.038
781.00,52.083
782.00,52.053
783.00,52.063
784.00,52.051
785.00,51.992
786.00,52.132
787.00,52.024
788.00,51.944
789.00,52.016
790.00,51.938
791.00,52.059
792.00,51.967
793.00,51.927
794.00,51.860
795.00,51.951
796.00,51.855
797.00,51.795
798.00,51.859
799.00,51.772
800.00,51.822
801.00,51.776
802.00,51.762
803.00,51.652
804.00,51.660
805.00,51.712
806.00,51.655
807.00,51.691
808.00,51.685
809.00,51.704
810.00,51.633
811.00,51.690
812.00,51.599
813.00,51.498
814.00,51.503
815.00,51.455
816.00,51.583
817.00,51.449
818.00,51.425
819.00,51.433
820.00,51.411
821.00,51.392
822.00,51.380
823.00,51.287
824.00,51.383
825.00,51.275
826.00,51.427
827.00,51.409
828.00,51.316
829.00,51.304
830.00,51.310
831.00,53.597
832.00,53.572
833.00,53.492
834.00,53.509
835.00,53.470
836.00,53.478
837.00,53.451
838.00,53.454
839.00,53.416
840.00,53.393
841.00,53.411
842.00,53.336
843.00,53.342
844.00,53.365
845.00,53.281
846.00,53.269
847.00,53.231
848.00,53.237
849.00,53.157
850.00,53.150
851.00,53.128
852.00,53.113
853.00,53.039
854.00,53.040
855.00,53.002
856.00,52.976
857.00,52.951
858.00,52.941
859.00,52.942
860.00,52.926
861.00,52.906
862.00,52.882
863.00,52.900
864.00,52.801
865.00,52.848
866.00,52.815
867.00,52.818
868.00,52.764
869.00,52.751
870.00,52.757
871.00,52.743
872.00,52.697
873.00,52.700
874.00,52.722
875.00,52.663
876.00,52.667
877.00,52.675
878.00,52.662
879.00,52.670
880.00,52.618
881.00,52.593
882.00,52.655
883.00,52.571
884.00,52.536
885.00,52.511
886.00,52.499
887.00,52.475
888.00,52.444
889.00,52.442
890.00,52.457
891.00,52.388
892.00,52.393
893.00,52.362
894.00,52.339
895.00,52.328
896.00,52.312
897.00,52.277
898.00,52.261
899.00,52.246
900.00,52.226
901.00,52.235
902.00,52.255
903.00,52.224
904.00,52.189
905.00,52.186
906.00,52.179
907.00,52.148
908.00,52.072
909.00,52.093
910.00,52.077
911.00,52.033
912.00,52.051
913.00,52.029
914.00,51.998
915.00,51.949
916.00,51.950
917.00,51.932
918.00,51.918
919.00,51.813
920.00,51.892
921.00,51.862
922.00,51.869
923.00,51.808
924.00,51.788
925.00,51.796
926.00,51.786
927.00,51.766
928.00,51.733
929.00,51.719
930.00,51.720
931.00,51.649
932.00,51.636
933.00,51.650
934.00,51.556
935.00,51.565
936.00,51.566
937.00,51.546
938.00,51.546
939.00,51.540
940.00,51.518
941.00,51.517
942.00,51.470
943.00,51.458
944.00,51.432
945.00,51.437
946.00,51.417
947.00,51.383
948.00,51.355
949.00,51.340
950.00,51.318
951.00,51.309
952.00,51.288
953.00,51.265
954.00,51.257
955.00,51.206
956.00,51.147
957.00,51.145
958.00,51.143
959.00,51.025
960.00,51.054
961.00,51.071
962.00,51.090
963.00,51.033
964.00,51.009
965.00,51.048
966.00,51.023
967.00,50.989
968.00,50.992
969.00,51.025
970.00,50.977
971.00,50.995
972.00,50.950
973.00,50.993
974.00,51.008
975.00,50.967
976.00,50.988
977.00,50.972
978.00,50.997
979.00,50.970
980.00,50.998
981.00,51.082
982.00,50.955
983.00,50.969
984.00,50.951
985.00,50.971
986.00,50.927
987.00,50.954
988.00,50.918
989.00,50.891
990.00,50.910
991.00,50.889
992.00,50.882
993.00,50.880
994.00,50.835
995.00,50.807
996.00,50.835
997.00,50.831
998.00,50.807
999.00,50.825
1000.00,50.767
1001.00,50.771
1002.00,50.764
1003.00,50.741
1004.00,50.728
1005.00,50.691
1006.00,50.735
1007.00,50.691
1008.00,50.675
1009.00,50.709
1010.00,50.662
1011.00,50.649
1012.00,50.627
1013.00,50.624
1014.00,50.580
1015.00,50.627
1016.00,50.576
1017.00,50.559
1018.00,50.568
1019.00,50.532
1020.00,50.518
1021.00,50.505
1022.00,50.495
1023.00,50.454
1024.00,50.449
1025.00,50.428
1026.00,50.434
1027.00,50.407
1028.00,50.394
1029.00,50.392
1030.00,50.346
1031.00,50.360
1032.00,50.316
1033.00,50.303
1034.00,50.305
1035.00,50.256
1036.00,50.227
1037.00,50.226
1038.00,50.186
1039.00,50.200
1040.00,50.179
1041.00,50.146
1042.00,50.184
1043.00,50.132
1044.00,50.154
1045.00,50.156
1046.00,50.118
1047.00,50.125
1048.00,50.153
1049.00,50.157
1050.00,50.157
1051.00,50.202
1052.00,50.195
1053.00,50.223
1054.00,50.215
1055.00,50.216
1056.00,50.234
1057.00,50.266
1058.00,50.225
1059.00,50.228
1060.00,50.233
1061.00,50.210
1062.00,50.197
1063.00,50.196
1064.00,50.195
1065.00,50.176
1066.00,50.159
1067.00,50.173
1068.00,50.191
1069.00,50.155
1070.00,50.144
1071.00,50.130
1072.00,50.156
1073.00,50.137
1074.00,50.125
1075.00,50.118
1076.00,50.110
1077.00,50.086
1078.00,50.082
1079.00,50.071
1080.00,50.065
1081.00,50.069
1082.00,50.065
1083.00,50.060
1084.00,50.062
1085.00,50.056
1086.00,50.043
1087.00,50.039
1088.00,50.014
1089.00,50.008
1090.00,50.008
1091.00,49.973
1092.00,49.987
1093.00,49.962
1094.00,49.935
1095.00,49.939
1096.00,49.919
1097.00,49.937
1098.00,49.932
1099.00,49.901
1100.00,49.920
1101.00,49.903
1102.00,49.895
1103.00,49.934
1104.00,49.884
1105.00,49.875
1106.00,49.869
1107.00,49.849
1108.00,49.844
1109.00,49.843
1110.00,49.820
1111.00,49.827
1112.00,49.805
1113.00,49.795
1114.00,49.808
1115.00,49.798
1116.00,49.779
1117.00,49.791
1118.00,49.779
1119.00,49.766
1120.00,49.762
1121.00,49.757
1122.00,49.748
1123.00,49.740
1124.00,49.720
1125.00,49.739
1126.00,49.733
1127.00,49.724
1128.00,49.711
1129.00,49.694
1130.00,49.690
1131.00,49.681
1132.00,49.661
1133.00,49.673
1134.00,49.657
1135.00,49.638
1136.00,49.655
1137.00,49.650
1138.00,49.657
1139.00,49.668
1140.00,49.641
1141.00,49.638
1142.00,49.636
1143.00,49.640
1144.00,49.613
1145.00,49.619
1146.00,49.609
1147.00,49.609
1148.00,49.596
1149.00,49.620
1150.00,49.637
1151.00,49.606
1152.00,49.599
1153.00,49.617
1154.00,49.597
1155.00,49.600
1156.00,49.588
1157.00,49.586
1158.00,49.590
1159.00,49.573
1160.00,49.571
1161.00,49.597
1162.00,49.582
1163.00,49.603
1164.00,49.631
1165.00,49.592
1166.00,49.606
1167.00,49.595
1168.00,49.605
1169.00,49.598
1170.00,49.591
1171.00,49.579
1172.00,49.574
1173.00,49.566
1174.00,49.588
1175.00,49.581
1176.00,49.585
1177.00,49.582
1178.00,49.591
1179.00,49.594
1180.00,49.580
1181.00,49.602
1182.00,49.590
1183.00,49.580
1184.00,49.561
1185.00,49.585
1186.00,49.580
1187.00,49.564
1188.00,49.573
1189.00,49.578
1190.00,49.554
1191.00,49.563
1192.00,49.589
1193.00,49.566
1194.00,49.576
1195.00,49.548
1196.00,49.581
1197.00,49.580
1198.00,49.561
1199.00,49.577
1200.00,49.576
1201.00,49.589
1202.00,49.575
1203.00,49.566
1204.00,49.554
1205.00,49.583
1206.00,49.578
1207.00,49.584
1208.00,49.570
1209.00,49.569
1210.00,49.574
1211.00,49.571
1212.00,49.587
1213.00,49.556
1214.00,49.587
1215.00,49.580
1216.00,49.588
1217.00,49.586
1218.00,49.587
1219.00,49.600
1220.00,49.561
1221.00,49.587
1222.00,49.590
1223.00,49.592
1224.00,49.595
1225.00,49.605
1226.00,49.590
1227.00,49.587
1228.00,49.620
1229.00,49.615
1230.00,49.645
1231.00,49.628
1232.00,49.636
1233.00,49.644
1234.00,49.653
1235.00,49.653
1236.00,49.652
1237.00,49.668
1238.00,49.657
1239.00,49.644
1240.00,49.637
1241.00,49.653
1242.00,49.647
1243.00,49.678
1244.00,49.657
1245.00,49.660
1246.00,49.678
1247.00,49.671
1248.00,49.669
1249.00,49.684
1250.00,49.683
1251.00,49.687
1252.00,49.708
1253.00,49.681
1254.00,49.724
1255.00,49.709
1256.00,49.686
1257.00,49.690
1258.00,49.725
1259.00,49.727
1260.00,49.750
1261.00,49.748
1262.00,49.736
1263.00,49.746
1264.00,49.758
1265.00,49.774
1266.00,49.764
1267.00,49.761
1268.00,49.785
1269.00,49.772
1270.00,49.780
1271.00,49.785
1272.00,49.786
1273.00,49.802
1274.00,49.803
1275.00,49.802
1276.00,49.823
1277.00,49.807
1278.00,49.821
1279.00,49.833
1280.00,49.809
1281.00,49.838
1282.00,49.850
1283.00,49.847
1284.00,49.861
1285.00,49.858
1286.00,49.869
1287.00,49.859
1288.00,49.870
1289.00,49.863
1290.00,49.909
1291.00,49.919
1292.00,49.909
1293.00,49.927
1294.00,49.910
1295.00,49.936
1296.00,49.961
1297.00,49.950
1298.00,49.982
1299.00,49.949
1300.00,49.955
1301.00,49.951
1302.00,49.964
1303.00,49.975
1304.00,49.965
1305.00,49.984
1306.00,50.004
1307.00,50.027
1308.00,50.017
1309.00,50.034
1310.00,50.043
1311.00,50.030
1312.00,50.032
1313.00,50.043
1314.00,50.070
1315.00,50.093
1316.00,50.081
1317.00,50.116
1318.00,50.119
1319.00,50.102
1320.00,50.124
1321.00,50.297
1322.00,50.273
1323.00,50.272
1324.00,50.254
1325.00,50.238
1326.00,50.275
1327.00,50.275
1328.00,50.262
1329.00,50.273
1330.00,50.286
1331.00,50.273
1332.00,50.276
1333.00,50.269
1334.00,50.317
1335.00,50.325
1336.00,50.341
1337.00,50.390
1338.00,50.448
1339.00,50.498
1340.00,50.564
1341.00,50.616
1342.00,50.679
1343.00,50.726
1344.00,50.752
1345.00,50.836
1346.00,50.864
1347.00,50.870
1348.00,50.921
1349.00,50.933
1350.00,50.950
1351.00,50.988
1352.00,50.985
1353.00,51.011
1354.00,51.004
1355.00,50.998
1356.00,50.995
1357.00,50.982
1358.00,51.002
1359.00,51.063
1360.00,51.048
1361.00,51.041
1362.00,51.055
1363.00,51.020
1364.00,50.960
1365.00,51.057
1366.00,51.077
1367.00,50.991
1368.00,51.088
1369.00,51.045
1370.00,51.043
1371.00,51.017
1372.00,51.015
1373.00,51.060
1374.00,51.038
1375.00,51.090
1376.00,51.079
1377.00,51.020
1378.00,51.183
1379.00,51.075
1380.00,51.103
1381.00,51.053
1382.00,51.003
1383.00,51.106
1384.00,50.973
1385.00,50.999
1386.00,51.045
1387.00,50.985
1388.00,50.984
1389.00,50.988
1390.00,51.091
1391.00,50.886
1392.00,51.077
1393.00,51.092
1394.00,51.057
1395.00,50.964
1396.00,50.964
1397.00,51.058
1398.00,51.088
1399.00,51.016
1400.00,50.963
1401.00,51.007
1402.00,51.089
1403.00,51.028
1404.00,51.040
1405.00,51.080
1406.00,51.100
1407.00,51.105
1408.00,51.086
1409.00,51.081
1410.00,51.126
1411.00,51.102
1412.00,51.219
1413.00,51.120
1414.00,51.065
1415.00,51.107
1416.00,51.144
1417.00,51.255
1418.00,51.203
1419.00,51.210
1420.00,51.230
1421.00,51.278
1422.00,51.268
1423.00,51.258
1424.00,51.254
1425.00,51.273
1426.00,51.295
1427.00,51.321
1428.00,51.324
1429.00,51.342
1430.00,51.351
1431.00,51.370
1432.00,51.376
1433.00,51.404
1434.00,51.422
1435.00,51.448
1436.00,51.489
1437.00,51.475
1438.00,51.523
1439.00,51.551
1440.00,51.547
1441.00,51.559
1442.00,51.563
1443.00,51.603
1444.00,51.685
1445.00,51.604
1446.00,51.624
1447.00,51.661
1448.00,51.695
1449.00,51.689
1450.00,51.723
1451.00,51.728
1452.00,51.757
1453.00,51.760
1454.00,51.779
1455.00,51.820
1456.00,51.824
1457.00,51.831
1458.00,51.860
1459.00,51.853
1460.00,51.875
1461.00,51.899
1462.00,51.936
1463.00,51.938
1464.00,51.963
1465.00,51.967
1466.00,51.962
1467.00,51.994
1468.00,52.028
1469.00,52.026
1470.00,52.034
1471.00,52.062
1472.00,52.074
1473.00,52.080
1474.00,52.113
1475.00,52.133
1476.00,52.136
1477.00,52.126
1478.00,52.155
1479.00,52.161
1480.00,52.170
1481.00,52.203
1482.00,52.212
1483.00,52.250
1484.00,52.262
1485.00,52.264
1486.00,52.280
1487.00,52.284
1488.00,52.339
1489.00,52.328
1490.00,52.326
1491.00,52.349
1492.00,52.360
1493.00,52.343
1494.00,52.397
1495.00,52.393
1496.00,52.412
1497.00,52.420
1498.00,52.410
1499.00,52.451
1500.00,52.463
1501.00, 
1502.00, 
1503.00, 
1504.00, 
1505.00, 
1506.00, 
1507.00, 
1508.00, 
1509.00, 
1510.00, 
1511.00, 
1512.00, 
1513.00, 
1514.00, 
1515.00, 
1516.00, 
1517.00, 
1518.00, 
1519.00, 
1520.00, 
1521.00, 
1522.00, 
1523.00, 
1524.00, 
1525.00, 
1526.00, 
1527.00, 
1528.00, 
1529.00, 
1530.00, 
1531.00, 
1532.00, 
1533.00, 
1534.00, 
1535.00, 
1536.00, 
1537.00, 
1538.00, 
1539.00, 
1540.00, 
1541.00, 
1542.00, 
1543.00, 
1544.00, 
1545.00, 
1546.00, 
1547.00, 
1548.00, 
1549.00, 
1550.00, 
1551.00, 
1552.00, 
1553.00, 
1554.00, 
1555.00, 
1556.00, 
1557.00, 
1558.00, 
1559.00, 
1560.00, 
1561.00, 
1562.00, 
1563.00, 
1564.00, 
1565.00, 
1566.00, 
1567.00, 
1568.00, 
1569.00, 
1570.00, 
1571.00, 
1572.00, 
1573.00, 
1574.00, 
1575.00, 
1576.00, 
1577.00, 
1578.00, 
1579.00, 
1580.00, 
1581.00, 
1582.00, 
1583.00, 
1584.00, 
1585.00, 
1586.00, 
1587.00, 
1588.00, 
1589.00, 
1590.00, 
1591.00, 
1592.00, 
1593.00, 
1594.00, 
1595.00, 
1596.00, 
1597.00, 
1598.00, 
1599.00, 
1600.00, 
1601.00, 
1602.00, 
1603.00, 
1604.00, 
1605.00, 
1606.00, 
1607.00, 
1608.00, 
1609.00, 
1610.00, 
1611.00, 
1612.00, 
1613.00, 
1614.00, 
1615.00, 
1616.00, 
1617.00, 
1618.00, 
1619.00, 
1620.00, 
1621.00, 
1622.00, 
1623.00, 
1624.00, 
1625.00, 
1626.00, 
1627.00, 
1628.00, 
1629.00, 
1630.00, 
1631.00, 
1632.00, 
1633.00, 
1634.00, 
1635.00, 
1636.00, 
1637.00, 
1638.00, 
1639.00, 
1640.00, 
1641.00, 
1642.00, 
1643.00, 
1644.00, 
1645.00, 
1646.00, 
1647.00, 
1648.00, 
1649.00, 
1650.00, 
1651.00, 
1652.00, 
1653.00, 
1654.00, 
1655.00, 
1656.00, 
1657.00, 
1658.00, 
1659.00, 
1660.00, 
1661.00, 
1662.00, 
1663.00, 
1664.00, 
1665.00, 
1666.00, 
1667.00, 
1668.00, 
1669.00, 
1670.00, 
1671.00, 
1672.00, 
1673.00, 
1674.00, 
1675.00, 
1676.00, 
1677.00, 
1678.00, 
1679.00, 
1680.00, 
1681.00, 
1682.00, 
1683.00, 
1684.00, 
1685.00, 
1686.00, 
1687.00, 
1688.00, 
1689.00, 
1690.00, 
1691.00, 
1692.00, 
1693.00, 
1694.00, 
1695.00, 
1696.00, 
1697.00, 
1698.00, 
1699.00, 
1700.00, 
1701.00, 
1702.00, 
1703.00, 
1704.00, 
1705.00, 
1706.00, 
1707.00, 
1708.00, 
1709.00, 
1710.00, 
1711.00, 
1712.00, 
1713.00, 
1714.00, 
1715.00, 
1716.00, 
1717.00, 
1718.00, 
1719.00, 
1720.00, 
1721.00, 
1722.00, 
1723.00, 
1724.00, 
1725.00, 
1726.00, 
1727.00, 
1728.00, 
1729.00, 
1730.00, 
1731.00, 
1732.00, 
1733.00, 
1734.00, 
1735.00, 
1736.00, 
1737.00, 
1738.00, 
1739.00, 
1740.00, 
1741.00, 
1742.00, 
1743.00, 
1744.00, 
1745.00, 
1746.00, 
1747.00, 
1748.00, 
1749.00, 
1750.00, 
1751.00, 
1752.00, 
1753.00, 
1754.00, 
1755.00, 
1756.00, 
1757.00, 
1758.00, 
1759.00, 
1760.00, 
1761.00, 
1762.00, 
1763.00, 
1764.00, 
1765.00, 
1766.00, 
1767.00, 
1768.00, 
1769.00, 
1770.00, 
1771.00, 
1772.00, 
1773.00, 
1774.00, 
1775.00, 
1776.00, 
1777.00, 
1778.00, 
1779.00, 
1780.00, 
1781.00, 
1782.00, 
1783.00, 
1784.00, 
1785.00, 
1786.00, 
1787.00, 
1788.00, 
1789.00, 
1790.00, 
1791.00, 
1792.00, 
1793.00, 
1794.00, 
1795.00, 
1796.00, 
1797.00, 
1798.00, 
1799.00, 
1800.00, 
1801.00, 
1802.00, 
1803.00, 
1804.00, 
1805.00, 
1806.00, 
1807.00, 
1808.00, 
1809.00, 
1810.00, 
1811.00, 
1812.00, 
1813.00, 
1814.00, 
1815.00, 
1816.00, 
1817.00, 
1818.00, 
1819.00, 
1820.00, 
1821.00, 
1822.00, 
1823.00, 
1824.00, 
1825.00, 
1826.00, 
1827.00, 
1828.00, 
1829.00, 
1830.00, 
1831.00, 
1832.00, 
1833.00, 
1834.00, 
1835.00, 
1836.00, 
1837.00, 
1838.00, 
1839.00, 
1840.00, 
1841.00, 
1842.00, 
1843.00, 
1844.00, 
1845.00, 
1846.00, 
1847.00, 
1848.00, 
1849.00, 
1850.00, 
1851.00, 
1852.00, 
1853.00, 
1854.00, 
1855.00, 
1856.00, 
1857.00, 
1858.00, 
1859.00, 
1860.00, 
1861.00, 
1862.00, 
1863.00, 
1864.00, 
1865.00, 
1866.00, 
1867.00, 
1868.00, 
1869.00, 
1870.00, 
1871.00, 
1872.00, 
1873.00, 
1874.00, 
1875.00, 
1876.00, 
1877.00, 
1878.00, 
1879.00, 
1880.00, 
1881.00, 
1882.00, 
1883.00, 
1884.00, 
1885.00, 
1886.00, 
1887.00, 
1888.00, 
1889.00, 
1890.00, 
1891.00, 
1892.00, 
1893.00, 
1894.00, 
1895.00, 
1896.00, 
1897.00, 
1898.00, 
1899.00, 
1900.00, 
1901.00, 
1902.00, 
1903.00, 
1904.00, 
1905.00, 
1906.00, 
1907.00, 
1908.00, 
1909.00, 
1910.00, 
1911.00, 
1912.00, 
1913.00, 
1914.00, 
1915.00, 
1916.00, 
1917.00, 
1918.00, 
1919.00, 
1920.00, 
1921.00, 
1922.00, 
1923.00, 
1924.00, 
1925.00, 
1926.00, 
1927.00, 
1928.00, 
1929.00, 
1930.00, 
1931.00, 
1932.00, 
1933.00, 
1934.00, 
1935.00, 
1936.00, 
1937.00, 
1938.00, 
1939.00, 
1940.00, 
1941.00, 
1942.00, 
1943.00, 
1944.00, 
1945.00, 
1946.00, 
1947.00, 
1948.00, 
1949.00, 
1950.00, 
1951.00, 
1952.00, 
1953.00, 
1954.00, 
1955.00, 
1956.00, 
1957.00, 
1958.00, 
1959.00, 
1960.00, 
1961.00, 
1962.00, 
1963.00, 
1964.00, 
1965.00, 
1966.00, 
1967.00, 
1968.00, 
1969.00, 
1970.00, 
1971.00, 
1972.00, 
1973.00, 
1974.00, 
1975.00, 
1976.00, 
1977.00, 
1978.00, 
1979.00, 
1980.00, 
1981.00, 
1982.00, 
1983.00, 
1984.00, 
1985.00, 
1986.00, 
1987.00, 
1988.00, 
1989.00, 
1990.00, 
1991.00, 
1992.00, 
1993.00, 
1994.00, 
1995.00, 
1996.00, 
1997.00, 
1998.00, 
1999.00, 
2000.00, 
2001.00, 
2002.00, 
2003.00, 
2004.00, 
2005.00, 
2006.00, 
2007.00, 
2008.00, 
2009.00, 
2010.00, 
2011.00, 
2012.00, 
2013.00, 
2014.00, 
2015.00, 
2016.00, 
2017.00, 
2018.00, 
2019.00, 
2020.00, 
2021.00, 
2022.00, 
2023.00, 
2024.00, 
2025.00, 
2026.00, 
2027.00, 
2028.00, 
2029.00, 
2030.00, 
2031.00, 
2032.00, 
2033.00, 
2034.00, 
2035.00, 
2036.00, 
2037.00, 
2038.00, 
2039.00, 
2040.00, 
2041.00, 
2042.00, 
2043.00, 
2044.00, 
2045.00, 
2046.00, 
2047.00, 
2048.00, 
2049.00, 
2050.00, 
2051.00, 
2052.00, 
2053.00, 
2054.00, 
2055.00, 
2056.00, 
2057.00, 
2058.00, 
2059.00, 
2060.00, 
2061.00, 
2062.00, 
2063.00, 
2064.00, 
2065.00, 
2066.00, 
2067.00, 
2068.00, 
2069.00, 
2070.00, 
2071.00, 
2072.00, 
2073.00, 
2074.00, 
2075.00, 
2076.00, 
2077.00, 
2078.00, 
2079.00, 
2080.00, 
2081.00, 
2082.00, 
2083.00, 
2084.00, 
2085.00, 
2086.00, 
2087.00, 
2088.00, 
2089.00, 
2090.00, 
2091.00, 
2092.00, 
2093.00, 
2094.00, 
2095.00, 
2096.00, 
2097.00, 
2098.00, 
2099.00, 
2100.00, 
2101.00, 
2102.00, 
2103.00, 
2104.00, 
2105.00, 
2106.00, 
2107.00, 
2108.00, 
2109.00, 
2110.00, 
2111.00, 
2112.00, 
2113.00, 
2114.00, 
2115.00, 
2116.00, 
2117.00, 
2118.00, 
2119.00, 
2120.00, 
2121.00, 
2122.00, 
2123.00, 
2124.00, 
2125.00, 
2126.00, 
2127.00, 
2128.00, 
2129.00, 
2130.00, 
2131.00, 
2132.00, 
2133.00, 
2134.00, 
2135.00, 
2136.00, 
2137.00, 
2138.00, 
2139.00, 
2140.00, 
2141.00, 
2142.00, 
2143.00, 
2144.00, 
2145.00, 
2146.00, 
2147.00, 
2148.00, 
2149.00, 
2150.00, 
2151.00, 
2152.00, 
2153.00, 
2154.00, 
2155.00, 
2156.00, 
2157.00, 
2158.00, 
2159.00, 
2160.00, 
2161.00, 
2162.00, 
2163.00, 
2164.00, 
2165.00, 
2166.00, 
2167.00, 
2168.00, 
2169.00, 
2170.00, 
2171.00, 
2172.00, 
2173.00, 
2174.00, 
2175.00, 
2176.00, 
2177.00, 
2178.00, 
2179.00, 
2180.00, 
2181.00, 
2182.00, 
2183.00, 
2184.00, 
2185.00, 
2186.00, 
2187.00, 
2188.00, 
2189.00, 
2190.00, 
2191.00, 
2192.00, 
2193.00, 
2194.00, 
2195.00, 
2196.00, 
2197.00, 
2198.00, 
2199.00, 
2200.00, 
2201.00, 
2202.00, 
2203.00, 
2204.00, 
2205.00, 
2206.00, 
2207.00, 
2208.00, 
2209.00, 
2210.00, 
2211.00, 
2212.00, 
2213.00, 
2214.00, 
2215.00, 
2216.00, 
2217.00, 
2218.00, 
2219.00, 
2220.00, 
2221.00, 
2222.00, 
2223.00, 
2224.00, 
2225.00, 
2226.00, 
2227.00, 
2228.00, 
2229.00, 
2230.00, 
2231.00, 
2232.00, 
2233.00, 
2234.00, 
2235.00, 
2236.00, 
2237.00, 
2238.00, 
2239.00, 
2240.00, 
2241.00, 
2242.00, 
2243.00, 
2244.00, 
2245.00, 
2246.00, 
2247.00, 
2248.00, 
2249.00, 
2250.00, 
2251.00, 
2252.00, 
2253.00, 
2254.00, 
2255.00, 
2256.00, 
2257.00, 
2258.00, 
2259.00, 
2260.00, 
2261.00, 
2262.00, 
2263.00, 
2264.00, 
2265.00, 
2266.00, 
2267.00, 
2268.00, 
2269.00, 
2270.00, 
2271.00, 
2272.00, 
2273.00, 
2274.00, 
2275.00, 
2276.00, 
2277.00, 
2278.00, 
2279.00, 
2280.00, 
2281.00, 
2282.00, 
2283.00, 
2284.00, 
2285.00, 
2286.00, 
2287.00, 
2288.00, 
2289.00, 
2290.00, 
2291.00, 
2292.00, 
2293.00, 
2294.00, 
2295.00, 
2296.00, 
2297.00, 
2298.00, 
2299.00, 
2300.00, 
2301.00, 
2302.00, 
2303.00, 
2304.00, 
2305.00, 
2306.00, 
2307.00, 
2308.00, 
2309.00, 
2310.00, 
2311.00, 
2312.00, 
2313.00, 
2314.00, 
2315.00, 
2316.00, 
2317.00, 
2318.00, 
2319.00, 
2320.00, 
2321.00, 
2322.00, 
2323.00, 
2324.00, 
2325.00, 
2326.00, 
2327.00, 
2328.00, 
2329.00, 
2330.00, 
2331.00, 
2332.00, 
2333.00, 
2334.00, 
2335.00, 
2336.00, 
2337.00, 
2338.00, 
2339.00, 
2340.00, 
2341.00, 
2342.00, 
2343.00, 
2344.00, 
2345.00, 
2346.00, 
2347.00, 
2348.00, 
2349.00, 
2350.00, 
2351.00, 
2352.00, 
2353.00, 
2354.00, 
2355.00, 
2356.00, 
2357.00, 
2358.00, 
2359.00, 
2360.00, 
2361.00, 
2362.00, 
2363.00, 
2364.00, 
2365.00, 
2366.00, 
2367.00, 
2368.00, 
2369.00, 
2370.00, 
2371.00, 
2372.00, 
2373.00, 
2374.00, 
2375.00, 
2376.00, 
2377.00, 
2378.00, 
2379.00, 
2380.00, 
2381.00, 
2382.00, 
2383.00, 
2384.00, 
2385.00, 
2386.00, 
2387.00, 
2388.00, 
2389.00, 
2390.00, 
2391.00, 
2392.00, 
2393.00, 
2394.00, 
2395.00, 
2396.00, 
2397.00, 
2398.00, 
2399.00, 
2400.00, 
2401.00, 
2402.00, 
2403.00, 
2404.00, 
2405.00, 
2406.00, 
2407.00, 
2408.00, 
2409.00, 
2410.00, 
2411.00, 
2412.00, 
2413.00, 
2414.00, 
2415.00, 
2416.00, 
2417.00, 
2418.00, 
2419.00, 
2420.00, 
2421.00, 
2422.00, 
2423.00, 
2424.00, 
2425.00, 
2426.00, 
2427.00, 
2428.00, 
2429.00, 
2430.00, 
2431.00, 
2432.00, 
2433.00, 
2434.00, 
2435.00, 
2436.00, 
2437.00, 
2438.00, 
2439.00, 
2440.00, 
2441.00, 
2442.00, 
2443.00, 
2444.00, 
2445.00, 
2446.00, 
2447.00, 
2448.00, 
2449.00, 
2450.00, 
2451.00, 
2452.00, 
2453.00, 
2454.00, 
2455.00, 
2456.00, 
2457.00, 
2458.00, 
2459.00, 
2460.00, 
2461.00, 
2462.00, 
2463.00, 
2464.00, 
2465.00, 
2466.00, 
2467.00, 
2468.00, 
2469.00, 
2470.00, 
2471.00, 
2472.00, 
2473.00, 
2474.00, 
2475.00, 
2476.00, 
2477.00, 
2478.00, 
2479.00, 
2480.00, 
2481.00, 
2482.00, 
2483.00, 
2484.00, 
2485.00, 
2486.00, 
2487.00, 
2488.00, 
2489.00, 
2490.00, 
2491.00, 
2492.00, 
2493.00, 
2494.00, 
2495.00, 
2496.00, 
2497.00, 
2498.00, 
2499.00, 
2500.00, 
2501.00, 
2502.00, 
2503.00, 
2504.00, 
2505.00, 
2506.00, 
2507.00, 
2508.00, 
2509.00, 
2510.00, 
2511.00, 
2512.00, 
2513.00, 
2514.00, 
2515.00, 
2516.00, 
2517.00, 
2518.00, 
2519.00, 
2520.00, 
2521.00, 
2522.00, 
2523.00, 
2524.00, 
2525.00, 
2526.00, 
2527.00, 
2528.00, 
2529.00, 
2530.00, 
2531.00, 
2532.00, 
2533.00, 
2534.00, 
2535.00, 
2536.00, 
2537.00, 
2538.00, 
2539.00, 
2540.00, 
2541.00, 
2542.00, 
2543.00, 
2544.00, 
2545.00, 
2546.00, 
2547.00, 
2548.00, 
2549.00, 
2550.00, 
2551.00, 
2552.00, 
2553.00, 
2554.00, 
2555.00, 
2556.00, 
2557.00, 
2558.00, 
2559.00, 
2560.00, 
2561.00, 
2562.00, 
2563.00, 
2564.00, 
2565.00, 
2566.00, 
2567.00, 
2568.00, 
2569.00, 
2570.00, 
2571.00, 
2572.00, 
2573.00, 
2574.00, 
2575.00, 
2576.00, 
2577.00, 
2578.00, 
2579.00, 
2580.00, 
2581.00, 
2582.00, 
2583.00, 
2584.00, 
2585.00, 
2586.00, 
2587.00, 
2588.00, 
2589.00, 
2590.00, 
2591.00, 
2592.00, 
2593.00, 
2594.00, 
2595.00, 
2596.00, 
2597.00, 
2598.00, 
2599.00, 
2600.00, 
