"2aP2 - RawData"
"Wavelength nm.","T%"
200.00,0.003
201.00,0.004
202.00,0.001
203.00,0.000
204.00,0.000
205.00,0.002
206.00,0.000
207.00,0.003
208.00,0.003
209.00,0.001
210.00,0.004
211.00,0.002
212.00,-0.001
213.00,0.000
214.00,0.002
215.00,0.000
216.00,0.002
217.00,0.003
218.00,0.007
219.00,0.004
220.00,0.003
221.00,0.002
222.00,-0.001
223.00,0.002
224.00,0.002
225.00,0.003
226.00,0.001
227.00,0.003
228.00,0.002
229.00,0.000
230.00,0.002
231.00,0.004
232.00,0.002
233.00,0.002
234.00,0.004
235.00,0.002
236.00,0.003
237.00,0.002
238.00,0.002
239.00,0.002
240.00,0.001
241.00,0.003
242.00,0.001
243.00,0.002
244.00,0.002
245.00,0.001
246.00,0.001
247.00,-0.001
248.00,0.000
249.00,0.001
250.00,0.001
251.00,0.000
252.00,-0.000
253.00,-0.001
254.00,0.001
255.00,0.000
256.00,0.002
257.00,0.000
258.00,-0.000
259.00,0.000
260.00,0.002
261.00,-0.001
262.00,0.001
263.00,0.000
264.00,-0.001
265.00,0.001
266.00,0.001
267.00,0.002
268.00,0.001
269.00,-0.000
270.00,-0.001
271.00,0.002
272.00,0.000
273.00,0.001
274.00,-0.001
275.00,0.001
276.00,0.000
277.00,0.001
278.00,0.001
279.00,-0.000
280.00,-0.001
281.00,0.002
282.00,0.000
283.00,-0.001
284.00,0.002
285.00,0.001
286.00,0.002
287.00,0.001
288.00,0.000
289.00,0.000
290.00,-0.000
291.00,0.000
292.00,0.000
293.00,0.002
294.00,-0.000
295.00,0.000
296.00,-0.001
297.00,-0.001
298.00,0.002
299.00,0.002
300.00,0.003
301.00,0.004
302.00,0.005
303.00,0.007
304.00,0.011
305.00,0.018
306.00,0.029
307.00,0.044
308.00,0.068
309.00,0.104
310.00,0.148
311.00,0.194
312.00,0.274
313.00,0.362
314.00,0.478
315.00,0.617
316.00,0.789
317.00,1.004
318.00,1.234
319.00,1.506
320.00,1.838
321.00,2.198
322.00,2.590
323.00,3.059
324.00,3.548
325.00,4.057
326.00,4.571
327.00,5.140
328.00,5.740
329.00,6.354
330.00,6.975
331.00,7.592
332.00,8.279
333.00,8.997
334.00,9.623
335.00,10.307
336.00,10.993
337.00,11.637
338.00,12.297
339.00,12.890
340.00,13.531
341.00,14.118
342.00,14.699
343.00,15.225
344.00,15.775
345.00,16.326
346.00,16.787
347.00,17.229
348.00,17.708
349.00,18.049
350.00,18.472
351.00,18.778
352.00,19.118
353.00,19.439
354.00,19.737
355.00,20.016
356.00,20.256
357.00,20.488
358.00,20.668
359.00,20.961
360.00,21.186
361.00,21.329
362.00,21.474
363.00,21.627
364.00,21.810
365.00,21.755
366.00,21.981
367.00,22.010
368.00,22.066
369.00,22.175
370.00,22.184
371.00,22.204
372.00,22.247
373.00,22.230
374.00,22.286
375.00,22.265
376.00,22.177
377.00,22.220
378.00,22.138
379.00,22.043
380.00,22.051
381.00,22.072
382.00,22.049
383.00,22.061
384.00,22.124
385.00,22.128
386.00,22.137
387.00,22.221
388.00,22.263
389.00,22.291
390.00,22.342
391.00,22.356
392.00,22.357
393.00,22.368
394.00,22.395
395.00,22.429
396.00,22.441
397.00,22.431
398.00,22.425
399.00,22.427
400.00,22.416
401.00,22.452
402.00,22.479
403.00,22.457
404.00,22.399
405.00,22.414
406.00,22.438
407.00,22.398
408.00,22.407
409.00,22.354
410.00,22.333
411.00,22.324
412.00,22.306
413.00,22.298
414.00,22.312
415.00,22.263
416.00,22.359
417.00,22.330
418.00,22.398
419.00,22.464
420.00,22.496
421.00,22.512
422.00,22.567
423.00,22.600
424.00,22.675
425.00,22.683
426.00,22.714
427.00,22.801
428.00,22.832
429.00,22.913
430.00,22.928
431.00,22.950
432.00,22.952
433.00,23.048
434.00,23.159
435.00,23.231
436.00,23.313
437.00,23.367
438.00,23.458
439.00,23.489
440.00,23.565
441.00,23.672
442.00,23.751
443.00,23.849
444.00,23.962
445.00,24.041
446.00,24.162
447.00,24.238
448.00,24.308
449.00,24.416
450.00,24.550
451.00,24.652
452.00,24.749
453.00,24.882
454.00,24.996
455.00,25.092
456.00,25.218
457.00,25.347
458.00,25.429
459.00,25.583
460.00,25.726
461.00,25.842
462.00,25.983
463.00,26.095
464.00,26.251
465.00,26.385
466.00,26.506
467.00,26.635
468.00,26.736
469.00,26.872
470.00,26.981
471.00,27.071
472.00,27.215
473.00,27.286
474.00,27.445
475.00,27.544
476.00,27.665
477.00,27.787
478.00,27.885
479.00,28.081
480.00,28.190
481.00,28.348
482.00,28.483
483.00,28.659
484.00,28.843
485.00,28.956
486.00,29.139
487.00,29.256
488.00,29.386
489.00,29.558
490.00,29.706
491.00,29.842
492.00,29.972
493.00,30.223
494.00,30.335
495.00,30.363
496.00,30.481
497.00,30.625
498.00,30.757
499.00,30.876
500.00,31.040
501.00,31.087
502.00,31.312
503.00,31.469
504.00,31.447
505.00,31.570
506.00,31.740
507.00,31.825
508.00,31.977
509.00,32.147
510.00,32.270
511.00,32.372
512.00,32.506
513.00,32.662
514.00,32.771
515.00,32.924
516.00,33.004
517.00,33.100
518.00,33.260
519.00,33.310
520.00,33.314
521.00,33.492
522.00,33.566
523.00,33.606
524.00,33.696
525.00,33.823
526.00,33.901
527.00,33.965
528.00,34.025
529.00,34.166
530.00,34.338
531.00,34.498
532.00,34.523
533.00,34.640
534.00,34.744
535.00,34.812
536.00,34.925
537.00,34.947
538.00,35.051
539.00,35.116
540.00,35.141
541.00,35.235
542.00,35.252
543.00,35.348
544.00,35.444
545.00,35.493
546.00,35.496
547.00,35.679
548.00,35.761
549.00,35.859
550.00,35.930
551.00,35.955
552.00,36.039
553.00,36.091
554.00,36.130
555.00,36.159
556.00,36.220
557.00,36.215
558.00,36.286
559.00,36.388
560.00,36.432
561.00,36.545
562.00,36.604
563.00,36.558
564.00,36.641
565.00,36.727
566.00,36.685
567.00,36.770
568.00,36.791
569.00,36.875
570.00,36.880
571.00,36.941
572.00,36.996
573.00,36.948
574.00,37.031
575.00,37.065
576.00,37.088
577.00,37.104
578.00,37.255
579.00,37.265
580.00,37.297
581.00,37.429
582.00,37.559
583.00,37.542
584.00,37.595
585.00,37.693
586.00,37.771
587.00,37.802
588.00,37.799
589.00,37.762
590.00,37.863
591.00,37.963
592.00,37.901
593.00,37.960
594.00,38.062
595.00,38.144
596.00,38.222
597.00,38.249
598.00,38.323
599.00,38.307
600.00,38.346
601.00,38.354
602.00,38.452
603.00,38.509
604.00,38.528
605.00,38.562
606.00,38.619
607.00,38.655
608.00,38.650
609.00,38.753
610.00,38.928
611.00,38.788
612.00,38.860
613.00,38.913
614.00,38.934
615.00,39.022
616.00,39.123
617.00,39.145
618.00,39.131
619.00,39.228
620.00,39.303
621.00,39.339
622.00,39.416
623.00,39.419
624.00,39.544
625.00,39.630
626.00,39.627
627.00,39.789
628.00,39.774
629.00,39.824
630.00,39.872
631.00,39.911
632.00,39.985
633.00,40.123
634.00,40.210
635.00,40.306
636.00,40.312
637.00,40.404
638.00,40.461
639.00,40.600
640.00,40.656
641.00,40.689
642.00,40.791
643.00,40.792
644.00,40.946
645.00,41.012
646.00,41.103
647.00,41.173
648.00,41.278
649.00,41.319
650.00,41.363
651.00,41.508
652.00,41.582
653.00,41.605
654.00,41.647
655.00,41.867
656.00,42.151
657.00,41.881
658.00,41.985
659.00,42.198
660.00,42.325
661.00,42.217
662.00,42.400
663.00,42.470
664.00,42.810
665.00,42.875
666.00,42.836
667.00,42.898
668.00,42.904
669.00,43.133
670.00,43.411
671.00,43.245
672.00,43.427
673.00,43.526
674.00,43.519
675.00,43.673
676.00,43.890
677.00,44.105
678.00,43.920
679.00,44.106
680.00,44.109
681.00,44.304
682.00,44.313
683.00,44.292
684.00,44.557
685.00,44.630
686.00,44.660
687.00,44.761
688.00,44.732
689.00,44.802
690.00,45.108
691.00,45.371
692.00,45.263
693.00,45.240
694.00,45.352
695.00,45.499
696.00,45.540
697.00,45.550
698.00,45.712
699.00,46.045
700.00,46.077
701.00,46.008
702.00,46.142
703.00,46.209
704.00,46.309
705.00,46.265
706.00,46.468
707.00,46.517
708.00,46.391
709.00,46.868
710.00,47.194
711.00,46.666
712.00,46.782
713.00,47.003
714.00,47.087
715.00,47.034
716.00,47.078
717.00,47.394
718.00,47.408
719.00,47.347
720.00,47.505
721.00,52.066
722.00,51.974
723.00,52.074
724.00,52.117
725.00,52.160
726.00,52.134
727.00,52.228
728.00,52.160
729.00,52.158
730.00,52.281
731.00,52.272
732.00,52.360
733.00,52.380
734.00,52.446
735.00,52.492
736.00,52.507
737.00,52.533
738.00,52.596
739.00,52.673
740.00,52.627
741.00,52.650
742.00,52.692
743.00,52.740
744.00,52.709
745.00,52.748
746.00,52.791
747.00,52.773
748.00,52.736
749.00,52.746
750.00,52.810
751.00,52.733
752.00,52.805
753.00,52.839
754.00,52.807
755.00,52.835
756.00,52.791
757.00,52.888
758.00,52.897
759.00,52.857
760.00,52.935
761.00,52.889
762.00,52.996
763.00,52.934
764.00,52.953
765.00,52.990
766.00,53.041
767.00,53.132
768.00,52.990
769.00,53.046
770.00,53.133
771.00,53.041
772.00,53.136
773.00,53.132
774.00,53.126
775.00,53.171
776.00,53.083
777.00,53.170
778.00,53.178
779.00,53.248
780.00,53.059
781.00,53.227
782.00,53.190
783.00,53.206
784.00,53.226
785.00,53.179
786.00,53.275
787.00,53.179
788.00,53.187
789.00,53.196
790.00,53.099
791.00,53.190
792.00,53.161
793.00,53.147
794.00,53.154
795.00,53.180
796.00,53.055
797.00,53.028
798.00,53.140
799.00,53.035
800.00,53.089
801.00,53.065
802.00,53.038
803.00,53.042
804.00,52.984
805.00,53.035
806.00,52.982
807.00,52.981
808.00,52.973
809.00,53.088
810.00,52.985
811.00,52.975
812.00,52.977
813.00,52.930
814.00,52.874
815.00,52.828
816.00,52.962
817.00,52.888
818.00,52.872
819.00,52.882
820.00,52.825
821.00,52.856
822.00,52.853
823.00,52.760
824.00,52.848
825.00,52.759
826.00,52.783
827.00,52.875
828.00,52.758
829.00,52.831
830.00,52.696
831.00,54.904
832.00,54.871
833.00,54.803
834.00,54.832
835.00,54.777
836.00,54.813
837.00,54.767
838.00,54.788
839.00,54.757
840.00,54.756
841.00,54.746
842.00,54.733
843.00,54.700
844.00,54.724
845.00,54.670
846.00,54.638
847.00,54.678
848.00,54.610
849.00,54.544
850.00,54.524
851.00,54.512
852.00,54.521
853.00,54.371
854.00,54.452
855.00,54.376
856.00,54.368
857.00,54.360
858.00,54.327
859.00,54.325
860.00,54.312
861.00,54.275
862.00,54.286
863.00,54.289
864.00,54.196
865.00,54.274
866.00,54.221
867.00,54.220
868.00,54.169
869.00,54.156
870.00,54.184
871.00,54.144
872.00,54.128
873.00,54.140
874.00,54.148
875.00,54.114
876.00,54.129
877.00,54.109
878.00,54.114
879.00,54.079
880.00,54.090
881.00,54.059
882.00,54.093
883.00,54.032
884.00,54.011
885.00,53.971
886.00,53.948
887.00,53.951
888.00,53.911
889.00,53.905
890.00,53.926
891.00,53.862
892.00,53.876
893.00,53.835
894.00,53.824
895.00,53.809
896.00,53.788
897.00,53.762
898.00,53.752
899.00,53.752
900.00,53.727
901.00,53.720
902.00,53.714
903.00,53.687
904.00,53.652
905.00,53.680
906.00,53.665
907.00,53.622
908.00,53.530
909.00,53.601
910.00,53.574
911.00,53.463
912.00,53.614
913.00,53.529
914.00,53.484
915.00,53.442
916.00,53.426
917.00,53.392
918.00,53.377
919.00,53.383
920.00,53.331
921.00,53.344
922.00,53.335
923.00,53.308
924.00,53.271
925.00,53.278
926.00,53.274
927.00,53.281
928.00,53.209
929.00,53.224
930.00,53.213
931.00,53.169
932.00,53.148
933.00,53.171
934.00,53.124
935.00,53.104
936.00,53.105
937.00,53.073
938.00,53.026
939.00,53.053
940.00,53.008
941.00,53.035
942.00,52.979
943.00,52.964
944.00,52.936
945.00,52.932
946.00,52.911
947.00,52.880
948.00,52.856
949.00,52.837
950.00,52.821
951.00,52.792
952.00,52.787
953.00,52.742
954.00,52.756
955.00,52.687
956.00,52.678
957.00,52.652
958.00,52.663
959.00,52.596
960.00,52.609
961.00,52.587
962.00,52.577
963.00,52.550
964.00,52.530
965.00,52.537
966.00,52.517
967.00,52.512
968.00,52.476
969.00,52.517
970.00,52.481
971.00,52.490
972.00,52.447
973.00,52.490
974.00,52.516
975.00,52.476
976.00,52.504
977.00,52.497
978.00,52.528
979.00,52.489
980.00,52.499
981.00,52.495
982.00,52.481
983.00,52.489
984.00,52.475
985.00,52.510
986.00,52.446
987.00,52.476
988.00,52.432
989.00,52.415
990.00,52.407
991.00,52.386
992.00,52.396
993.00,52.382
994.00,52.355
995.00,52.344
996.00,52.343
997.00,52.348
998.00,52.315
999.00,52.335
1000.00,52.340
1001.00,52.302
1002.00,52.286
1003.00,52.267
1004.00,52.247
1005.00,52.214
1006.00,52.232
1007.00,52.202
1008.00,52.191
1009.00,52.165
1010.00,52.161
1011.00,52.152
1012.00,52.127
1013.00,52.126
1014.00,52.081
1015.00,52.115
1016.00,52.059
1017.00,52.044
1018.00,52.047
1019.00,52.022
1020.00,52.009
1021.00,51.999
1022.00,51.994
1023.00,51.948
1024.00,51.964
1025.00,51.943
1026.00,51.933
1027.00,51.914
1028.00,51.908
1029.00,51.906
1030.00,51.864
1031.00,51.869
1032.00,51.820
1033.00,51.817
1034.00,51.797
1035.00,51.760
1036.00,51.726
1037.00,51.735
1038.00,51.707
1039.00,51.676
1040.00,51.693
1041.00,51.648
1042.00,51.647
1043.00,51.628
1044.00,51.655
1045.00,51.649
1046.00,51.628
1047.00,51.642
1048.00,51.668
1049.00,51.666
1050.00,51.650
1051.00,51.711
1052.00,51.698
1053.00,51.701
1054.00,51.696
1055.00,51.715
1056.00,51.730
1057.00,51.726
1058.00,51.695
1059.00,51.709
1060.00,51.700
1061.00,51.673
1062.00,51.681
1063.00,51.675
1064.00,51.675
1065.00,51.653
1066.00,51.644
1067.00,51.644
1068.00,51.660
1069.00,51.619
1070.00,51.616
1071.00,51.597
1072.00,51.604
1073.00,51.588
1074.00,51.573
1075.00,51.566
1076.00,51.577
1077.00,51.562
1078.00,51.543
1079.00,51.553
1080.00,51.549
1081.00,51.541
1082.00,51.536
1083.00,51.516
1084.00,51.527
1085.00,51.515
1086.00,51.496
1087.00,51.492
1088.00,51.465
1089.00,51.451
1090.00,51.447
1091.00,51.429
1092.00,51.430
1093.00,51.427
1094.00,51.403
1095.00,51.407
1096.00,51.397
1097.00,51.406
1098.00,51.395
1099.00,51.383
1100.00,51.372
1101.00,51.370
1102.00,51.346
1103.00,51.356
1104.00,51.337
1105.00,51.318
1106.00,51.319
1107.00,51.303
1108.00,51.295
1109.00,51.293
1110.00,51.285
1111.00,51.286
1112.00,51.265
1113.00,51.251
1114.00,51.254
1115.00,51.251
1116.00,51.231
1117.00,51.236
1118.00,51.212
1119.00,51.203
1120.00,51.202
1121.00,51.203
1122.00,51.190
1123.00,51.179
1124.00,51.166
1125.00,51.171
1126.00,51.151
1127.00,51.143
1128.00,51.141
1129.00,51.133
1130.00,51.127
1131.00,51.128
1132.00,51.107
1133.00,51.093
1134.00,51.104
1135.00,51.074
1136.00,51.118
1137.00,51.102
1138.00,51.076
1139.00,51.086
1140.00,51.067
1141.00,51.066
1142.00,51.058
1143.00,51.067
1144.00,51.042
1145.00,51.048
1146.00,51.032
1147.00,51.032
1148.00,51.020
1149.00,51.022
1150.00,51.035
1151.00,51.036
1152.00,51.035
1153.00,51.065
1154.00,51.007
1155.00,51.014
1156.00,51.013
1157.00,51.000
1158.00,50.991
1159.00,50.976
1160.00,50.960
1161.00,50.973
1162.00,50.967
1163.00,50.977
1164.00,50.978
1165.00,50.972
1166.00,50.983
1167.00,50.980
1168.00,50.985
1169.00,50.988
1170.00,50.975
1171.00,50.940
1172.00,50.956
1173.00,50.951
1174.00,50.950
1175.00,50.942
1176.00,50.938
1177.00,50.936
1178.00,50.939
1179.00,50.937
1180.00,50.950
1181.00,50.960
1182.00,50.938
1183.00,50.943
1184.00,50.928
1185.00,50.930
1186.00,50.921
1187.00,50.917
1188.00,50.927
1189.00,50.902
1190.00,50.901
1191.00,50.913
1192.00,50.923
1193.00,50.916
1194.00,50.918
1195.00,50.913
1196.00,50.952
1197.00,50.926
1198.00,50.897
1199.00,50.908
1200.00,50.917
1201.00,50.919
1202.00,50.913
1203.00,50.895
1204.00,50.877
1205.00,50.899
1206.00,50.897
1207.00,50.900
1208.00,50.872
1209.00,50.877
1210.00,50.891
1211.00,50.884
1212.00,50.899
1213.00,50.877
1214.00,50.894
1215.00,50.861
1216.00,50.890
1217.00,50.899
1218.00,50.876
1219.00,50.891
1220.00,50.870
1221.00,50.898
1222.00,50.873
1223.00,50.888
1224.00,50.889
1225.00,50.865
1226.00,50.858
1227.00,50.875
1228.00,50.914
1229.00,50.891
1230.00,50.919
1231.00,50.911
1232.00,50.930
1233.00,50.936
1234.00,50.922
1235.00,50.934
1236.00,50.920
1237.00,50.916
1238.00,50.936
1239.00,50.929
1240.00,50.915
1241.00,50.929
1242.00,50.934
1243.00,50.955
1244.00,50.930
1245.00,50.943
1246.00,50.973
1247.00,50.958
1248.00,50.945
1249.00,50.969
1250.00,50.965
1251.00,50.951
1252.00,50.969
1253.00,50.955
1254.00,50.985
1255.00,50.972
1256.00,50.937
1257.00,50.960
1258.00,50.979
1259.00,50.965
1260.00,51.006
1261.00,51.000
1262.00,50.984
1263.00,50.993
1264.00,50.994
1265.00,50.987
1266.00,50.981
1267.00,50.984
1268.00,51.000
1269.00,50.988
1270.00,50.999
1271.00,51.017
1272.00,51.015
1273.00,51.029
1274.00,51.030
1275.00,51.035
1276.00,51.036
1277.00,51.050
1278.00,51.043
1279.00,51.051
1280.00,51.040
1281.00,51.051
1282.00,51.076
1283.00,51.060
1284.00,51.074
1285.00,51.065
1286.00,51.064
1287.00,51.087
1288.00,51.069
1289.00,51.061
1290.00,51.123
1291.00,51.107
1292.00,51.090
1293.00,51.114
1294.00,51.128
1295.00,51.135
1296.00,51.132
1297.00,51.140
1298.00,51.165
1299.00,51.133
1300.00,51.128
1301.00,51.133
1302.00,51.150
1303.00,51.149
1304.00,51.148
1305.00,51.177
1306.00,51.177
1307.00,51.193
1308.00,51.190
1309.00,51.205
1310.00,51.202
1311.00,51.174
1312.00,51.190
1313.00,51.192
1314.00,51.199
1315.00,51.231
1316.00,51.226
1317.00,51.255
1318.00,51.245
1319.00,51.247
1320.00,51.263
1321.00,51.428
1322.00,51.399
1323.00,51.394
1324.00,51.379
1325.00,51.353
1326.00,51.406
1327.00,51.379
1328.00,51.360
1329.00,51.382
1330.00,51.374
1331.00,51.378
1332.00,51.372
1333.00,51.414
1334.00,51.418
1335.00,51.435
1336.00,51.445
1337.00,51.492
1338.00,51.532
1339.00,51.567
1340.00,51.655
1341.00,51.693
1342.00,51.746
1343.00,51.802
1344.00,51.839
1345.00,51.912
1346.00,51.925
1347.00,51.951
1348.00,52.010
1349.00,52.013
1350.00,52.031
1351.00,52.051
1352.00,52.081
1353.00,52.088
1354.00,52.071
1355.00,51.979
1356.00,52.061
1357.00,52.070
1358.00,52.077
1359.00,52.132
1360.00,52.139
1361.00,52.001
1362.00,52.087
1363.00,52.145
1364.00,52.127
1365.00,52.128
1366.00,52.150
1367.00,52.070
1368.00,52.084
1369.00,52.078
1370.00,52.091
1371.00,52.041
1372.00,52.056
1373.00,52.091
1374.00,52.090
1375.00,52.089
1376.00,52.089
1377.00,52.019
1378.00,51.991
1379.00,52.100
1380.00,52.127
1381.00,52.370
1382.00,52.058
1383.00,52.062
1384.00,52.056
1385.00,52.046
1386.00,52.062
1387.00,52.087
1388.00,52.039
1389.00,52.026
1390.00,52.087
1391.00,51.986
1392.00,52.086
1393.00,52.049
1394.00,52.044
1395.00,51.882
1396.00,52.093
1397.00,52.031
1398.00,52.143
1399.00,52.108
1400.00,51.994
1401.00,52.035
1402.00,52.135
1403.00,52.053
1404.00,52.073
1405.00,52.117
1406.00,52.090
1407.00,52.144
1408.00,52.137
1409.00,52.107
1410.00,52.154
1411.00,52.070
1412.00,52.376
1413.00,52.129
1414.00,52.094
1415.00,52.156
1416.00,52.153
1417.00,52.246
1418.00,52.219
1419.00,52.195
1420.00,52.203
1421.00,52.241
1422.00,52.254
1423.00,52.252
1424.00,52.239
1425.00,52.276
1426.00,52.294
1427.00,52.304
1428.00,52.294
1429.00,52.310
1430.00,52.328
1431.00,52.334
1432.00,52.349
1433.00,52.371
1434.00,52.371
1435.00,52.408
1436.00,52.441
1437.00,52.423
1438.00,52.431
1439.00,52.481
1440.00,52.485
1441.00,52.471
1442.00,52.482
1443.00,52.533
1444.00,52.561
1445.00,52.522
1446.00,52.535
1447.00,52.566
1448.00,52.599
1449.00,52.582
1450.00,52.615
1451.00,52.625
1452.00,52.624
1453.00,52.646
1454.00,52.658
1455.00,52.695
1456.00,52.711
1457.00,52.706
1458.00,52.758
1459.00,52.761
1460.00,52.769
1461.00,52.784
1462.00,52.810
1463.00,52.810
1464.00,52.832
1465.00,52.845
1466.00,52.839
1467.00,52.851
1468.00,52.904
1469.00,52.909
1470.00,52.902
1471.00,52.908
1472.00,52.942
1473.00,52.946
1474.00,52.959
1475.00,52.980
1476.00,52.984
1477.00,52.964
1478.00,52.985
1479.00,52.991
1480.00,53.019
1481.00,53.026
1482.00,53.058
1483.00,53.091
1484.00,53.089
1485.00,53.094
1486.00,53.103
1487.00,53.126
1488.00,53.154
1489.00,53.143
1490.00,53.139
1491.00,53.179
1492.00,53.189
1493.00,53.173
1494.00,53.226
1495.00,53.227
1496.00,53.213
1497.00,53.219
1498.00,53.228
1499.00,53.248
1500.00,53.274
1501.00, 
1502.00, 
1503.00, 
1504.00, 
1505.00, 
1506.00, 
1507.00, 
1508.00, 
1509.00, 
1510.00, 
1511.00, 
1512.00, 
1513.00, 
1514.00, 
1515.00, 
1516.00, 
1517.00, 
1518.00, 
1519.00, 
1520.00, 
1521.00, 
1522.00, 
1523.00, 
1524.00, 
1525.00, 
1526.00, 
1527.00, 
1528.00, 
1529.00, 
1530.00, 
1531.00, 
1532.00, 
1533.00, 
1534.00, 
1535.00, 
1536.00, 
1537.00, 
1538.00, 
1539.00, 
1540.00, 
1541.00, 
1542.00, 
1543.00, 
1544.00, 
1545.00, 
1546.00, 
1547.00, 
1548.00, 
1549.00, 
1550.00, 
1551.00, 
1552.00, 
1553.00, 
1554.00, 
1555.00, 
1556.00, 
1557.00, 
1558.00, 
1559.00, 
1560.00, 
1561.00, 
1562.00, 
1563.00, 
1564.00, 
1565.00, 
1566.00, 
1567.00, 
1568.00, 
1569.00, 
1570.00, 
1571.00, 
1572.00, 
1573.00, 
1574.00, 
1575.00, 
1576.00, 
1577.00, 
1578.00, 
1579.00, 
1580.00, 
1581.00, 
1582.00, 
1583.00, 
1584.00, 
1585.00, 
1586.00, 
1587.00, 
1588.00, 
1589.00, 
1590.00, 
1591.00, 
1592.00, 
1593.00, 
1594.00, 
1595.00, 
1596.00, 
1597.00, 
1598.00, 
1599.00, 
1600.00, 
1601.00, 
1602.00, 
1603.00, 
1604.00, 
1605.00, 
1606.00, 
1607.00, 
1608.00, 
1609.00, 
1610.00, 
1611.00, 
1612.00, 
1613.00, 
1614.00, 
1615.00, 
1616.00, 
1617.00, 
1618.00, 
1619.00, 
1620.00, 
1621.00, 
1622.00, 
1623.00, 
1624.00, 
1625.00, 
1626.00, 
1627.00, 
1628.00, 
1629.00, 
1630.00, 
1631.00, 
1632.00, 
1633.00, 
1634.00, 
1635.00, 
1636.00, 
1637.00, 
1638.00, 
1639.00, 
1640.00, 
1641.00, 
1642.00, 
1643.00, 
1644.00, 
1645.00, 
1646.00, 
1647.00, 
1648.00, 
1649.00, 
1650.00, 
1651.00, 
1652.00, 
1653.00, 
1654.00, 
1655.00, 
1656.00, 
1657.00, 
1658.00, 
1659.00, 
1660.00, 
1661.00, 
1662.00, 
1663.00, 
1664.00, 
1665.00, 
1666.00, 
1667.00, 
1668.00, 
1669.00, 
1670.00, 
1671.00, 
1672.00, 
1673.00, 
1674.00, 
1675.00, 
1676.00, 
1677.00, 
1678.00, 
1679.00, 
1680.00, 
1681.00, 
1682.00, 
1683.00, 
1684.00, 
1685.00, 
1686.00, 
1687.00, 
1688.00, 
1689.00, 
1690.00, 
1691.00, 
1692.00, 
1693.00, 
1694.00, 
1695.00, 
1696.00, 
1697.00, 
1698.00, 
1699.00, 
1700.00, 
1701.00, 
1702.00, 
1703.00, 
1704.00, 
1705.00, 
1706.00, 
1707.00, 
1708.00, 
1709.00, 
1710.00, 
1711.00, 
1712.00, 
1713.00, 
1714.00, 
1715.00, 
1716.00, 
1717.00, 
1718.00, 
1719.00, 
1720.00, 
1721.00, 
1722.00, 
1723.00, 
1724.00, 
1725.00, 
1726.00, 
1727.00, 
1728.00, 
1729.00, 
1730.00, 
1731.00, 
1732.00, 
1733.00, 
1734.00, 
1735.00, 
1736.00, 
1737.00, 
1738.00, 
1739.00, 
1740.00, 
1741.00, 
1742.00, 
1743.00, 
1744.00, 
1745.00, 
1746.00, 
1747.00, 
1748.00, 
1749.00, 
1750.00, 
1751.00, 
1752.00, 
1753.00, 
1754.00, 
1755.00, 
1756.00, 
1757.00, 
1758.00, 
1759.00, 
1760.00, 
1761.00, 
1762.00, 
1763.00, 
1764.00, 
1765.00, 
1766.00, 
1767.00, 
1768.00, 
1769.00, 
1770.00, 
1771.00, 
1772.00, 
1773.00, 
1774.00, 
1775.00, 
1776.00, 
1777.00, 
1778.00, 
1779.00, 
1780.00, 
1781.00, 
1782.00, 
1783.00, 
1784.00, 
1785.00, 
1786.00, 
1787.00, 
1788.00, 
1789.00, 
1790.00, 
1791.00, 
1792.00, 
1793.00, 
1794.00, 
1795.00, 
1796.00, 
1797.00, 
1798.00, 
1799.00, 
1800.00, 
1801.00, 
1802.00, 
1803.00, 
1804.00, 
1805.00, 
1806.00, 
1807.00, 
1808.00, 
1809.00, 
1810.00, 
1811.00, 
1812.00, 
1813.00, 
1814.00, 
1815.00, 
1816.00, 
1817.00, 
1818.00, 
1819.00, 
1820.00, 
1821.00, 
1822.00, 
1823.00, 
1824.00, 
1825.00, 
1826.00, 
1827.00, 
1828.00, 
1829.00, 
1830.00, 
1831.00, 
1832.00, 
1833.00, 
1834.00, 
1835.00, 
1836.00, 
1837.00, 
1838.00, 
1839.00, 
1840.00, 
1841.00, 
1842.00, 
1843.00, 
1844.00, 
1845.00, 
1846.00, 
1847.00, 
1848.00, 
1849.00, 
1850.00, 
1851.00, 
1852.00, 
1853.00, 
1854.00, 
1855.00, 
1856.00, 
1857.00, 
1858.00, 
1859.00, 
1860.00, 
1861.00, 
1862.00, 
1863.00, 
1864.00, 
1865.00, 
1866.00, 
1867.00, 
1868.00, 
1869.00, 
1870.00, 
1871.00, 
1872.00, 
1873.00, 
1874.00, 
1875.00, 
1876.00, 
1877.00, 
1878.00, 
1879.00, 
1880.00, 
1881.00, 
1882.00, 
1883.00, 
1884.00, 
1885.00, 
1886.00, 
1887.00, 
1888.00, 
1889.00, 
1890.00, 
1891.00, 
1892.00, 
1893.00, 
1894.00, 
1895.00, 
1896.00, 
1897.00, 
1898.00, 
1899.00, 
1900.00, 
1901.00, 
1902.00, 
1903.00, 
1904.00, 
1905.00, 
1906.00, 
1907.00, 
1908.00, 
1909.00, 
1910.00, 
1911.00, 
1912.00, 
1913.00, 
1914.00, 
1915.00, 
1916.00, 
1917.00, 
1918.00, 
1919.00, 
1920.00, 
1921.00, 
1922.00, 
1923.00, 
1924.00, 
1925.00, 
1926.00, 
1927.00, 
1928.00, 
1929.00, 
1930.00, 
1931.00, 
1932.00, 
1933.00, 
1934.00, 
1935.00, 
1936.00, 
1937.00, 
1938.00, 
1939.00, 
1940.00, 
1941.00, 
1942.00, 
1943.00, 
1944.00, 
1945.00, 
1946.00, 
1947.00, 
1948.00, 
1949.00, 
1950.00, 
1951.00, 
1952.00, 
1953.00, 
1954.00, 
1955.00, 
1956.00, 
1957.00, 
1958.00, 
1959.00, 
1960.00, 
1961.00, 
1962.00, 
1963.00, 
1964.00, 
1965.00, 
1966.00, 
1967.00, 
1968.00, 
1969.00, 
1970.00, 
1971.00, 
1972.00, 
1973.00, 
1974.00, 
1975.00, 
1976.00, 
1977.00, 
1978.00, 
1979.00, 
1980.00, 
1981.00, 
1982.00, 
1983.00, 
1984.00, 
1985.00, 
1986.00, 
1987.00, 
1988.00, 
1989.00, 
1990.00, 
1991.00, 
1992.00, 
1993.00, 
1994.00, 
1995.00, 
1996.00, 
1997.00, 
1998.00, 
1999.00, 
2000.00, 
2001.00, 
2002.00, 
2003.00, 
2004.00, 
2005.00, 
2006.00, 
2007.00, 
2008.00, 
2009.00, 
2010.00, 
2011.00, 
2012.00, 
2013.00, 
2014.00, 
2015.00, 
2016.00, 
2017.00, 
2018.00, 
2019.00, 
2020.00, 
2021.00, 
2022.00, 
2023.00, 
2024.00, 
2025.00, 
2026.00, 
2027.00, 
2028.00, 
2029.00, 
2030.00, 
2031.00, 
2032.00, 
2033.00, 
2034.00, 
2035.00, 
2036.00, 
2037.00, 
2038.00, 
2039.00, 
2040.00, 
2041.00, 
2042.00, 
2043.00, 
2044.00, 
2045.00, 
2046.00, 
2047.00, 
2048.00, 
2049.00, 
2050.00, 
2051.00, 
2052.00, 
2053.00, 
2054.00, 
2055.00, 
2056.00, 
2057.00, 
2058.00, 
2059.00, 
2060.00, 
2061.00, 
2062.00, 
2063.00, 
2064.00, 
2065.00, 
2066.00, 
2067.00, 
2068.00, 
2069.00, 
2070.00, 
2071.00, 
2072.00, 
2073.00, 
2074.00, 
2075.00, 
2076.00, 
2077.00, 
2078.00, 
2079.00, 
2080.00, 
2081.00, 
2082.00, 
2083.00, 
2084.00, 
2085.00, 
2086.00, 
2087.00, 
2088.00, 
2089.00, 
2090.00, 
2091.00, 
2092.00, 
2093.00, 
2094.00, 
2095.00, 
2096.00, 
2097.00, 
2098.00, 
2099.00, 
2100.00, 
2101.00, 
2102.00, 
2103.00, 
2104.00, 
2105.00, 
2106.00, 
2107.00, 
2108.00, 
2109.00, 
2110.00, 
2111.00, 
2112.00, 
2113.00, 
2114.00, 
2115.00, 
2116.00, 
2117.00, 
2118.00, 
2119.00, 
2120.00, 
2121.00, 
2122.00, 
2123.00, 
2124.00, 
2125.00, 
2126.00, 
2127.00, 
2128.00, 
2129.00, 
2130.00, 
2131.00, 
2132.00, 
2133.00, 
2134.00, 
2135.00, 
2136.00, 
2137.00, 
2138.00, 
2139.00, 
2140.00, 
2141.00, 
2142.00, 
2143.00, 
2144.00, 
2145.00, 
2146.00, 
2147.00, 
2148.00, 
2149.00, 
2150.00, 
2151.00, 
2152.00, 
2153.00, 
2154.00, 
2155.00, 
2156.00, 
2157.00, 
2158.00, 
2159.00, 
2160.00, 
2161.00, 
2162.00, 
2163.00, 
2164.00, 
2165.00, 
2166.00, 
2167.00, 
2168.00, 
2169.00, 
2170.00, 
2171.00, 
2172.00, 
2173.00, 
2174.00, 
2175.00, 
2176.00, 
2177.00, 
2178.00, 
2179.00, 
2180.00, 
2181.00, 
2182.00, 
2183.00, 
2184.00, 
2185.00, 
2186.00, 
2187.00, 
2188.00, 
2189.00, 
2190.00, 
2191.00, 
2192.00, 
2193.00, 
2194.00, 
2195.00, 
2196.00, 
2197.00, 
2198.00, 
2199.00, 
2200.00, 
2201.00, 
2202.00, 
2203.00, 
2204.00, 
2205.00, 
2206.00, 
2207.00, 
2208.00, 
2209.00, 
2210.00, 
2211.00, 
2212.00, 
2213.00, 
2214.00, 
2215.00, 
2216.00, 
2217.00, 
2218.00, 
2219.00, 
2220.00, 
2221.00, 
2222.00, 
2223.00, 
2224.00, 
2225.00, 
2226.00, 
2227.00, 
2228.00, 
2229.00, 
2230.00, 
2231.00, 
2232.00, 
2233.00, 
2234.00, 
2235.00, 
2236.00, 
2237.00, 
2238.00, 
2239.00, 
2240.00, 
2241.00, 
2242.00, 
2243.00, 
2244.00, 
2245.00, 
2246.00, 
2247.00, 
2248.00, 
2249.00, 
2250.00, 
2251.00, 
2252.00, 
2253.00, 
2254.00, 
2255.00, 
2256.00, 
2257.00, 
2258.00, 
2259.00, 
2260.00, 
2261.00, 
2262.00, 
2263.00, 
2264.00, 
2265.00, 
2266.00, 
2267.00, 
2268.00, 
2269.00, 
2270.00, 
2271.00, 
2272.00, 
2273.00, 
2274.00, 
2275.00, 
2276.00, 
2277.00, 
2278.00, 
2279.00, 
2280.00, 
2281.00, 
2282.00, 
2283.00, 
2284.00, 
2285.00, 
2286.00, 
2287.00, 
2288.00, 
2289.00, 
2290.00, 
2291.00, 
2292.00, 
2293.00, 
2294.00, 
2295.00, 
2296.00, 
2297.00, 
2298.00, 
2299.00, 
2300.00, 
2301.00, 
2302.00, 
2303.00, 
2304.00, 
2305.00, 
2306.00, 
2307.00, 
2308.00, 
2309.00, 
2310.00, 
2311.00, 
2312.00, 
2313.00, 
2314.00, 
2315.00, 
2316.00, 
2317.00, 
2318.00, 
2319.00, 
2320.00, 
2321.00, 
2322.00, 
2323.00, 
2324.00, 
2325.00, 
2326.00, 
2327.00, 
2328.00, 
2329.00, 
2330.00, 
2331.00, 
2332.00, 
2333.00, 
2334.00, 
2335.00, 
2336.00, 
2337.00, 
2338.00, 
2339.00, 
2340.00, 
2341.00, 
2342.00, 
2343.00, 
2344.00, 
2345.00, 
2346.00, 
2347.00, 
2348.00, 
2349.00, 
2350.00, 
2351.00, 
2352.00, 
2353.00, 
2354.00, 
2355.00, 
2356.00, 
2357.00, 
2358.00, 
2359.00, 
2360.00, 
2361.00, 
2362.00, 
2363.00, 
2364.00, 
2365.00, 
2366.00, 
2367.00, 
2368.00, 
2369.00, 
2370.00, 
2371.00, 
2372.00, 
2373.00, 
2374.00, 
2375.00, 
2376.00, 
2377.00, 
2378.00, 
2379.00, 
2380.00, 
2381.00, 
2382.00, 
2383.00, 
2384.00, 
2385.00, 
2386.00, 
2387.00, 
2388.00, 
2389.00, 
2390.00, 
2391.00, 
2392.00, 
2393.00, 
2394.00, 
2395.00, 
2396.00, 
2397.00, 
2398.00, 
2399.00, 
2400.00, 
2401.00, 
2402.00, 
2403.00, 
2404.00, 
2405.00, 
2406.00, 
2407.00, 
2408.00, 
2409.00, 
2410.00, 
2411.00, 
2412.00, 
2413.00, 
2414.00, 
2415.00, 
2416.00, 
2417.00, 
2418.00, 
2419.00, 
2420.00, 
2421.00, 
2422.00, 
2423.00, 
2424.00, 
2425.00, 
2426.00, 
2427.00, 
2428.00, 
2429.00, 
2430.00, 
2431.00, 
2432.00, 
2433.00, 
2434.00, 
2435.00, 
2436.00, 
2437.00, 
2438.00, 
2439.00, 
2440.00, 
2441.00, 
2442.00, 
2443.00, 
2444.00, 
2445.00, 
2446.00, 
2447.00, 
2448.00, 
2449.00, 
2450.00, 
2451.00, 
2452.00, 
2453.00, 
2454.00, 
2455.00, 
2456.00, 
2457.00, 
2458.00, 
2459.00, 
2460.00, 
2461.00, 
2462.00, 
2463.00, 
2464.00, 
2465.00, 
2466.00, 
2467.00, 
2468.00, 
2469.00, 
2470.00, 
2471.00, 
2472.00, 
2473.00, 
2474.00, 
2475.00, 
2476.00, 
2477.00, 
2478.00, 
2479.00, 
2480.00, 
2481.00, 
2482.00, 
2483.00, 
2484.00, 
2485.00, 
2486.00, 
2487.00, 
2488.00, 
2489.00, 
2490.00, 
2491.00, 
2492.00, 
2493.00, 
2494.00, 
2495.00, 
2496.00, 
2497.00, 
2498.00, 
2499.00, 
2500.00, 
2501.00, 
2502.00, 
2503.00, 
2504.00, 
2505.00, 
2506.00, 
2507.00, 
2508.00, 
2509.00, 
2510.00, 
2511.00, 
2512.00, 
2513.00, 
2514.00, 
2515.00, 
2516.00, 
2517.00, 
2518.00, 
2519.00, 
2520.00, 
2521.00, 
2522.00, 
2523.00, 
2524.00, 
2525.00, 
2526.00, 
2527.00, 
2528.00, 
2529.00, 
2530.00, 
2531.00, 
2532.00, 
2533.00, 
2534.00, 
2535.00, 
2536.00, 
2537.00, 
2538.00, 
2539.00, 
2540.00, 
2541.00, 
2542.00, 
2543.00, 
2544.00, 
2545.00, 
2546.00, 
2547.00, 
2548.00, 
2549.00, 
2550.00, 
2551.00, 
2552.00, 
2553.00, 
2554.00, 
2555.00, 
2556.00, 
2557.00, 
2558.00, 
2559.00, 
2560.00, 
2561.00, 
2562.00, 
2563.00, 
2564.00, 
2565.00, 
2566.00, 
2567.00, 
2568.00, 
2569.00, 
2570.00, 
2571.00, 
2572.00, 
2573.00, 
2574.00, 
2575.00, 
2576.00, 
2577.00, 
2578.00, 
2579.00, 
2580.00, 
2581.00, 
2582.00, 
2583.00, 
2584.00, 
2585.00, 
2586.00, 
2587.00, 
2588.00, 
2589.00, 
2590.00, 
2591.00, 
2592.00, 
2593.00, 
2594.00, 
2595.00, 
2596.00, 
2597.00, 
2598.00, 
2599.00, 
2600.00, 
