"2cP1 - RawData"
"Wavelength nm.","T%"
200.00,-0.000
201.00,0.001
202.00,0.001
203.00,0.002
204.00,0.002
205.00,0.001
206.00,0.002
207.00,0.001
208.00,0.002
209.00,0.001
210.00,0.003
211.00,-0.000
212.00,0.004
213.00,0.000
214.00,-0.001
215.00,0.002
216.00,0.002
217.00,0.004
218.00,0.002
219.00,0.002
220.00,-0.001
221.00,0.001
222.00,-0.000
223.00,0.002
224.00,-0.001
225.00,-0.001
226.00,0.001
227.00,0.002
228.00,0.002
229.00,0.002
230.00,-0.000
231.00,0.002
232.00,0.001
233.00,-0.002
234.00,0.001
235.00,0.001
236.00,0.001
237.00,0.001
238.00,0.000
239.00,0.000
240.00,0.000
241.00,0.001
242.00,-0.000
243.00,-0.001
244.00,0.001
245.00,0.003
246.00,0.000
247.00,0.001
248.00,0.002
249.00,0.003
250.00,-0.000
251.00,0.000
252.00,-0.000
253.00,0.000
254.00,-0.000
255.00,-0.000
256.00,0.002
257.00,0.001
258.00,-0.001
259.00,-0.000
260.00,-0.001
261.00,0.001
262.00,-0.000
263.00,-0.000
264.00,0.002
265.00,-0.000
266.00,0.002
267.00,-0.000
268.00,0.002
269.00,-0.000
270.00,-0.001
271.00,0.000
272.00,0.001
273.00,-0.001
274.00,0.002
275.00,-0.001
276.00,-0.001
277.00,-0.000
278.00,0.001
279.00,0.001
280.00,0.001
281.00,0.000
282.00,0.000
283.00,0.000
284.00,0.001
285.00,0.001
286.00,-0.000
287.00,0.001
288.00,-0.000
289.00,-0.000
290.00,0.001
291.00,0.000
292.00,0.002
293.00,-0.001
294.00,0.002
295.00,0.001
296.00,0.000
297.00,0.001
298.00,-0.000
299.00,0.001
300.00,0.004
301.00,0.004
302.00,0.004
303.00,0.009
304.00,0.013
305.00,0.021
306.00,0.031
307.00,0.051
308.00,0.079
309.00,0.123
310.00,0.174
311.00,0.235
312.00,0.301
313.00,0.429
314.00,0.562
315.00,0.746
316.00,0.959
317.00,1.213
318.00,1.475
319.00,1.834
320.00,2.221
321.00,2.664
322.00,3.159
323.00,3.691
324.00,4.311
325.00,4.939
326.00,5.563
327.00,6.308
328.00,7.046
329.00,7.815
330.00,8.638
331.00,9.411
332.00,10.211
333.00,11.034
334.00,11.899
335.00,12.768
336.00,13.624
337.00,14.451
338.00,15.239
339.00,15.929
340.00,16.856
341.00,17.590
342.00,18.327
343.00,19.071
344.00,19.725
345.00,20.400
346.00,20.934
347.00,21.570
348.00,22.149
349.00,22.662
350.00,23.154
351.00,23.588
352.00,24.027
353.00,24.479
354.00,24.889
355.00,25.262
356.00,25.648
357.00,25.992
358.00,26.274
359.00,26.492
360.00,26.821
361.00,27.054
362.00,27.252
363.00,27.423
364.00,27.754
365.00,27.957
366.00,28.070
367.00,28.168
368.00,28.256
369.00,28.424
370.00,28.489
371.00,28.544
372.00,28.602
373.00,28.640
374.00,28.631
375.00,28.591
376.00,28.620
377.00,28.630
378.00,28.575
379.00,28.568
380.00,28.534
381.00,28.576
382.00,28.593
383.00,28.631
384.00,28.682
385.00,28.750
386.00,28.792
387.00,28.888
388.00,29.015
389.00,29.046
390.00,29.108
391.00,29.168
392.00,29.229
393.00,29.249
394.00,29.283
395.00,29.328
396.00,29.333
397.00,29.370
398.00,29.411
399.00,29.402
400.00,29.449
401.00,29.452
402.00,29.492
403.00,29.479
404.00,29.438
405.00,29.416
406.00,29.503
407.00,29.477
408.00,29.485
409.00,29.430
410.00,29.379
411.00,29.356
412.00,29.328
413.00,29.349
414.00,29.387
415.00,29.347
416.00,29.397
417.00,29.381
418.00,29.437
419.00,29.442
420.00,29.458
421.00,29.625
422.00,29.619
423.00,29.617
424.00,29.660
425.00,29.676
426.00,29.757
427.00,29.752
428.00,29.814
429.00,29.861
430.00,29.905
431.00,29.911
432.00,29.970
433.00,30.002
434.00,30.083
435.00,30.124
436.00,30.203
437.00,30.248
438.00,30.339
439.00,30.344
440.00,30.442
441.00,30.478
442.00,30.572
443.00,30.637
444.00,30.740
445.00,30.789
446.00,30.904
447.00,30.973
448.00,31.070
449.00,31.179
450.00,31.234
451.00,31.350
452.00,31.429
453.00,31.534
454.00,31.647
455.00,31.693
456.00,31.812
457.00,31.945
458.00,31.984
459.00,32.102
460.00,32.214
461.00,32.297
462.00,32.439
463.00,32.557
464.00,32.539
465.00,32.802
466.00,32.856
467.00,32.973
468.00,33.054
469.00,33.147
470.00,33.199
471.00,33.327
472.00,33.439
473.00,33.490
474.00,33.592
475.00,33.684
476.00,33.768
477.00,33.894
478.00,33.960
479.00,34.130
480.00,34.211
481.00,34.391
482.00,34.462
483.00,34.630
484.00,34.744
485.00,34.881
486.00,35.004
487.00,35.113
488.00,35.214
489.00,35.370
490.00,35.496
491.00,35.602
492.00,35.714
493.00,35.906
494.00,35.962
495.00,35.984
496.00,36.110
497.00,36.192
498.00,36.350
499.00,36.442
500.00,36.526
501.00,36.651
502.00,36.773
503.00,36.845
504.00,36.939
505.00,37.046
506.00,37.190
507.00,37.242
508.00,37.372
509.00,37.434
510.00,37.576
511.00,37.635
512.00,37.720
513.00,37.875
514.00,37.964
515.00,37.950
516.00,38.184
517.00,38.287
518.00,38.281
519.00,38.383
520.00,38.369
521.00,38.500
522.00,38.631
523.00,38.681
524.00,38.755
525.00,38.856
526.00,38.960
527.00,38.998
528.00,39.058
529.00,39.148
530.00,39.230
531.00,39.406
532.00,39.463
533.00,39.472
534.00,39.654
535.00,39.684
536.00,39.784
537.00,39.825
538.00,39.973
539.00,39.985
540.00,40.050
541.00,40.096
542.00,40.122
543.00,40.217
544.00,40.307
545.00,40.355
546.00,40.375
547.00,40.473
548.00,40.525
549.00,40.665
550.00,40.776
551.00,40.749
552.00,40.818
553.00,40.846
554.00,40.985
555.00,40.983
556.00,41.044
557.00,41.070
558.00,41.090
559.00,41.175
560.00,41.264
561.00,41.322
562.00,41.349
563.00,41.348
564.00,41.454
565.00,41.422
566.00,41.468
567.00,41.487
568.00,41.527
569.00,41.562
570.00,41.556
571.00,41.678
572.00,41.697
573.00,41.661
574.00,41.763
575.00,41.759
576.00,41.792
577.00,41.793
578.00,41.854
579.00,41.905
580.00,42.063
581.00,42.182
582.00,42.241
583.00,42.284
584.00,42.367
585.00,42.362
586.00,42.462
587.00,42.547
588.00,42.502
589.00,42.592
590.00,42.616
591.00,42.658
592.00,42.684
593.00,42.647
594.00,42.708
595.00,42.757
596.00,42.844
597.00,42.919
598.00,42.941
599.00,43.014
600.00,43.007
601.00,42.947
602.00,42.977
603.00,43.064
604.00,43.160
605.00,43.186
606.00,43.319
607.00,43.316
608.00,43.370
609.00,43.353
610.00,43.413
611.00,43.454
612.00,43.431
613.00,43.443
614.00,43.545
615.00,43.532
616.00,43.610
617.00,43.607
618.00,43.681
619.00,43.631
620.00,43.607
621.00,43.819
622.00,43.868
623.00,43.869
624.00,43.938
625.00,44.003
626.00,43.969
627.00,44.074
628.00,44.126
629.00,44.189
630.00,44.188
631.00,44.220
632.00,44.346
633.00,44.364
634.00,44.355
635.00,44.458
636.00,44.483
637.00,44.567
638.00,44.618
639.00,44.669
640.00,44.696
641.00,44.667
642.00,44.699
643.00,44.815
644.00,44.822
645.00,44.829
646.00,44.980
647.00,44.917
648.00,45.015
649.00,45.035
650.00,45.075
651.00,45.316
652.00,45.353
653.00,45.346
654.00,45.443
655.00,45.473
656.00,45.551
657.00,45.564
658.00,45.500
659.00,45.720
660.00,45.825
661.00,45.719
662.00,45.968
663.00,45.898
664.00,46.135
665.00,45.998
666.00,46.138
667.00,46.222
668.00,46.281
669.00,46.338
670.00,46.362
671.00,46.356
672.00,46.455
673.00,46.552
674.00,46.604
675.00,46.616
676.00,46.720
677.00,46.793
678.00,46.701
679.00,46.788
680.00,46.832
681.00,46.885
682.00,47.009
683.00,47.110
684.00,47.206
685.00,47.223
686.00,47.328
687.00,47.331
688.00,47.280
689.00,47.271
690.00,47.457
691.00,47.506
692.00,47.581
693.00,47.625
694.00,47.547
695.00,47.582
696.00,47.612
697.00,47.708
698.00,47.810
699.00,47.951
700.00,48.011
701.00,47.926
702.00,47.974
703.00,48.162
704.00,48.012
705.00,48.086
706.00,47.971
707.00,48.193
708.00,48.303
709.00,48.391
710.00,48.560
711.00,48.343
712.00,48.287
713.00,48.461
714.00,48.472
715.00,48.570
716.00,48.544
717.00,48.722
718.00,48.678
719.00,48.633
720.00,48.718
721.00,52.996
722.00,52.923
723.00,53.001
724.00,53.006
725.00,53.001
726.00,52.915
727.00,52.908
728.00,52.851
729.00,52.915
730.00,52.914
731.00,52.925
732.00,52.888
733.00,52.834
734.00,53.022
735.00,52.942
736.00,52.935
737.00,52.901
738.00,53.017
739.00,53.030
740.00,52.979
741.00,52.881
742.00,52.895
743.00,52.934
744.00,52.852
745.00,52.888
746.00,52.818
747.00,52.793
748.00,52.772
749.00,52.756
750.00,52.783
751.00,52.671
752.00,52.749
753.00,52.730
754.00,52.686
755.00,52.694
756.00,52.708
757.00,52.737
758.00,52.700
759.00,52.653
760.00,52.638
761.00,52.608
762.00,52.617
763.00,52.615
764.00,52.602
765.00,52.567
766.00,52.648
767.00,52.669
768.00,52.572
769.00,52.595
770.00,52.600
771.00,52.647
772.00,52.539
773.00,52.554
774.00,52.566
775.00,52.620
776.00,52.596
777.00,52.534
778.00,52.572
779.00,52.549
780.00,52.497
781.00,52.433
782.00,52.550
783.00,52.458
784.00,52.472
785.00,52.450
786.00,52.528
787.00,52.493
788.00,52.305
789.00,52.414
790.00,52.349
791.00,52.397
792.00,52.345
793.00,52.318
794.00,52.239
795.00,52.283
796.00,52.185
797.00,52.159
798.00,52.158
799.00,52.096
800.00,52.131
801.00,52.115
802.00,52.071
803.00,52.032
804.00,52.024
805.00,52.030
806.00,52.012
807.00,51.979
808.00,51.961
809.00,52.030
810.00,51.951
811.00,51.853
812.00,51.804
813.00,51.800
814.00,51.788
815.00,51.817
816.00,51.883
817.00,51.685
818.00,51.709
819.00,51.716
820.00,51.661
821.00,51.713
822.00,51.692
823.00,51.643
824.00,51.623
825.00,51.580
826.00,51.713
827.00,51.600
828.00,51.441
829.00,51.525
830.00,51.512
831.00,54.033
832.00,54.017
833.00,53.940
834.00,53.983
835.00,53.849
836.00,53.948
837.00,53.897
838.00,53.870
839.00,53.854
840.00,53.812
841.00,53.832
842.00,53.773
843.00,53.761
844.00,53.758
845.00,53.696
846.00,53.699
847.00,53.706
848.00,53.634
849.00,53.590
850.00,53.531
851.00,53.487
852.00,53.491
853.00,53.444
854.00,53.399
855.00,53.395
856.00,53.337
857.00,53.321
858.00,53.301
859.00,53.284
860.00,53.267
861.00,53.234
862.00,53.189
863.00,53.219
864.00,53.161
865.00,53.177
866.00,53.131
867.00,53.156
868.00,53.113
869.00,53.076
870.00,53.088
871.00,53.073
872.00,53.053
873.00,53.030
874.00,53.041
875.00,53.031
876.00,53.005
877.00,52.989
878.00,52.986
879.00,52.965
880.00,52.971
881.00,52.926
882.00,52.951
883.00,52.894
884.00,52.850
885.00,52.831
886.00,52.822
887.00,52.800
888.00,52.776
889.00,52.744
890.00,52.747
891.00,52.691
892.00,52.712
893.00,52.666
894.00,52.670
895.00,52.622
896.00,52.604
897.00,52.601
898.00,52.583
899.00,52.558
900.00,52.564
901.00,52.562
902.00,52.549
903.00,52.512
904.00,52.496
905.00,52.485
906.00,52.451
907.00,52.453
908.00,52.396
909.00,52.364
910.00,52.375
911.00,52.343
912.00,52.323
913.00,52.350
914.00,52.295
915.00,52.269
916.00,52.241
917.00,52.208
918.00,52.209
919.00,52.191
920.00,52.155
921.00,52.151
922.00,52.127
923.00,52.105
924.00,52.078
925.00,52.082
926.00,52.058
927.00,52.042
928.00,52.017
929.00,52.007
930.00,51.960
931.00,51.944
932.00,51.924
933.00,51.940
934.00,51.890
935.00,51.837
936.00,51.984
937.00,51.845
938.00,51.803
939.00,51.820
940.00,51.778
941.00,51.774
942.00,51.727
943.00,51.712
944.00,51.688
945.00,51.674
946.00,51.664
947.00,51.645
948.00,51.622
949.00,51.591
950.00,51.546
951.00,51.598
952.00,51.515
953.00,51.496
954.00,51.477
955.00,51.438
956.00,51.416
957.00,51.374
958.00,51.395
959.00,51.343
960.00,51.336
961.00,51.325
962.00,51.323
963.00,51.267
964.00,51.259
965.00,51.259
966.00,51.245
967.00,51.241
968.00,51.204
969.00,51.241
970.00,51.200
971.00,51.216
972.00,51.185
973.00,51.223
974.00,51.233
975.00,51.174
976.00,51.227
977.00,51.203
978.00,51.237
979.00,51.203
980.00,51.230
981.00,51.217
982.00,51.206
983.00,51.206
984.00,51.193
985.00,51.206
986.00,51.152
987.00,51.171
988.00,51.142
989.00,51.120
990.00,51.132
991.00,51.102
992.00,51.109
993.00,51.083
994.00,51.079
995.00,51.067
996.00,51.025
997.00,51.076
998.00,51.017
999.00,51.032
1000.00,50.977
1001.00,50.985
1002.00,50.975
1003.00,50.965
1004.00,50.952
1005.00,50.940
1006.00,50.946
1007.00,50.918
1008.00,50.905
1009.00,50.895
1010.00,50.876
1011.00,50.866
1012.00,50.875
1013.00,50.843
1014.00,50.798
1015.00,50.822
1016.00,50.785
1017.00,50.785
1018.00,50.761
1019.00,50.729
1020.00,50.719
1021.00,50.709
1022.00,50.699
1023.00,50.648
1024.00,50.657
1025.00,50.705
1026.00,50.645
1027.00,50.622
1028.00,50.606
1029.00,50.597
1030.00,50.569
1031.00,50.579
1032.00,50.537
1033.00,50.532
1034.00,50.504
1035.00,50.473
1036.00,50.452
1037.00,50.440
1038.00,50.426
1039.00,50.390
1040.00,50.387
1041.00,50.357
1042.00,50.357
1043.00,50.322
1044.00,50.343
1045.00,50.331
1046.00,50.324
1047.00,50.325
1048.00,50.339
1049.00,50.339
1050.00,50.345
1051.00,50.371
1052.00,50.409
1053.00,50.398
1054.00,50.386
1055.00,50.404
1056.00,50.411
1057.00,50.420
1058.00,50.429
1059.00,50.404
1060.00,50.394
1061.00,50.393
1062.00,50.376
1063.00,50.390
1064.00,50.377
1065.00,50.376
1066.00,50.351
1067.00,50.346
1068.00,50.356
1069.00,50.334
1070.00,50.307
1071.00,50.299
1072.00,50.323
1073.00,50.325
1074.00,50.281
1075.00,50.269
1076.00,50.257
1077.00,50.251
1078.00,50.235
1079.00,50.219
1080.00,50.224
1081.00,50.195
1082.00,50.201
1083.00,50.194
1084.00,50.187
1085.00,50.175
1086.00,50.174
1087.00,50.167
1088.00,50.151
1089.00,50.147
1090.00,50.143
1091.00,50.110
1092.00,50.111
1093.00,50.088
1094.00,50.081
1095.00,50.059
1096.00,50.052
1097.00,50.051
1098.00,50.047
1099.00,50.026
1100.00,50.020
1101.00,50.004
1102.00,50.009
1103.00,50.003
1104.00,49.987
1105.00,49.972
1106.00,49.971
1107.00,49.958
1108.00,49.961
1109.00,49.942
1110.00,49.931
1111.00,49.928
1112.00,49.921
1113.00,49.906
1114.00,49.918
1115.00,49.918
1116.00,49.903
1117.00,49.884
1118.00,49.881
1119.00,49.873
1120.00,49.872
1121.00,49.859
1122.00,49.860
1123.00,49.847
1124.00,49.830
1125.00,49.820
1126.00,49.829
1127.00,49.818
1128.00,49.800
1129.00,49.791
1130.00,49.793
1131.00,49.777
1132.00,49.782
1133.00,49.786
1134.00,49.819
1135.00,49.743
1136.00,49.744
1137.00,49.746
1138.00,49.741
1139.00,49.735
1140.00,49.728
1141.00,49.720
1142.00,49.717
1143.00,49.720
1144.00,49.692
1145.00,49.699
1146.00,49.701
1147.00,49.680
1148.00,49.683
1149.00,49.684
1150.00,49.682
1151.00,49.678
1152.00,49.663
1153.00,49.664
1154.00,49.649
1155.00,49.660
1156.00,49.651
1157.00,49.652
1158.00,49.647
1159.00,49.640
1160.00,49.631
1161.00,49.652
1162.00,49.634
1163.00,49.635
1164.00,49.636
1165.00,49.618
1166.00,49.616
1167.00,49.617
1168.00,49.621
1169.00,49.623
1170.00,49.629
1171.00,49.601
1172.00,49.607
1173.00,49.600
1174.00,49.609
1175.00,49.600
1176.00,49.598
1177.00,49.589
1178.00,49.585
1179.00,49.597
1180.00,49.589
1181.00,49.606
1182.00,49.600
1183.00,49.585
1184.00,49.575
1185.00,49.600
1186.00,49.583
1187.00,49.573
1188.00,49.563
1189.00,49.561
1190.00,49.557
1191.00,49.557
1192.00,49.574
1193.00,49.556
1194.00,49.564
1195.00,49.546
1196.00,49.563
1197.00,49.558
1198.00,49.545
1199.00,49.542
1200.00,49.548
1201.00,49.554
1202.00,49.543
1203.00,49.544
1204.00,49.527
1205.00,49.541
1206.00,49.539
1207.00,49.550
1208.00,49.524
1209.00,49.522
1210.00,49.534
1211.00,49.538
1212.00,49.552
1213.00,49.517
1214.00,49.545
1215.00,49.526
1216.00,49.543
1217.00,49.543
1218.00,49.527
1219.00,49.545
1220.00,49.518
1221.00,49.533
1222.00,49.523
1223.00,49.541
1224.00,49.534
1225.00,49.527
1226.00,49.534
1227.00,49.518
1228.00,49.539
1229.00,49.534
1230.00,49.567
1231.00,49.544
1232.00,49.555
1233.00,49.561
1234.00,49.567
1235.00,49.563
1236.00,49.554
1237.00,49.551
1238.00,49.559
1239.00,49.564
1240.00,49.562
1241.00,49.558
1242.00,49.556
1243.00,49.582
1244.00,49.566
1245.00,49.581
1246.00,49.590
1247.00,49.597
1248.00,49.578
1249.00,49.593
1250.00,49.592
1251.00,49.588
1252.00,49.593
1253.00,49.580
1254.00,49.605
1255.00,49.599
1256.00,49.576
1257.00,49.574
1258.00,49.619
1259.00,49.608
1260.00,49.624
1261.00,49.633
1262.00,49.615
1263.00,49.614
1264.00,49.621
1265.00,49.622
1266.00,49.627
1267.00,49.623
1268.00,49.646
1269.00,49.633
1270.00,49.652
1271.00,49.663
1272.00,49.655
1273.00,49.663
1274.00,49.658
1275.00,49.661
1276.00,49.670
1277.00,49.667
1278.00,49.684
1279.00,49.680
1280.00,49.689
1281.00,49.691
1282.00,49.702
1283.00,49.672
1284.00,49.675
1285.00,49.667
1286.00,49.680
1287.00,49.676
1288.00,49.692
1289.00,49.690
1290.00,49.708
1291.00,49.719
1292.00,49.715
1293.00,49.723
1294.00,49.734
1295.00,49.742
1296.00,49.736
1297.00,49.743
1298.00,49.759
1299.00,49.743
1300.00,49.750
1301.00,49.754
1302.00,49.756
1303.00,49.780
1304.00,49.750
1305.00,49.775
1306.00,49.777
1307.00,49.794
1308.00,49.798
1309.00,49.810
1310.00,49.822
1311.00,49.812
1312.00,49.808
1313.00,49.811
1314.00,49.816
1315.00,49.822
1316.00,49.828
1317.00,49.861
1318.00,49.846
1319.00,49.844
1320.00,49.873
1321.00,50.019
1322.00,50.024
1323.00,50.011
1324.00,50.013
1325.00,49.988
1326.00,50.029
1327.00,50.013
1328.00,49.999
1329.00,50.011
1330.00,50.012
1331.00,50.026
1332.00,50.011
1333.00,50.014
1334.00,50.052
1335.00,50.070
1336.00,50.096
1337.00,50.126
1338.00,50.185
1339.00,50.225
1340.00,50.291
1341.00,50.349
1342.00,50.408
1343.00,50.478
1344.00,50.500
1345.00,50.576
1346.00,50.611
1347.00,50.622
1348.00,50.649
1349.00,50.675
1350.00,50.682
1351.00,50.713
1352.00,50.683
1353.00,50.734
1354.00,50.705
1355.00,50.637
1356.00,50.731
1357.00,50.728
1358.00,50.702
1359.00,50.714
1360.00,50.820
1361.00,50.750
1362.00,50.714
1363.00,50.796
1364.00,50.748
1365.00,50.773
1366.00,50.787
1367.00,50.723
1368.00,50.722
1369.00,50.732
1370.00,50.718
1371.00,50.690
1372.00,50.710
1373.00,50.703
1374.00,50.718
1375.00,50.720
1376.00,50.709
1377.00,50.663
1378.00,50.733
1379.00,50.731
1380.00,50.755
1381.00,50.696
1382.00,50.671
1383.00,50.703
1384.00,50.674
1385.00,50.662
1386.00,50.675
1387.00,50.647
1388.00,50.656
1389.00,50.611
1390.00,50.795
1391.00,50.531
1392.00,50.695
1393.00,50.697
1394.00,50.636
1395.00,50.678
1396.00,50.640
1397.00,50.692
1398.00,50.721
1399.00,50.641
1400.00,50.678
1401.00,50.697
1402.00,50.709
1403.00,50.665
1404.00,50.699
1405.00,50.724
1406.00,50.713
1407.00,50.564
1408.00,50.708
1409.00,50.688
1410.00,50.728
1411.00,50.751
1412.00,50.798
1413.00,50.701
1414.00,50.723
1415.00,50.781
1416.00,50.784
1417.00,50.772
1418.00,50.766
1419.00,50.859
1420.00,50.821
1421.00,50.848
1422.00,50.846
1423.00,50.840
1424.00,50.863
1425.00,50.876
1426.00,50.896
1427.00,50.906
1428.00,50.923
1429.00,50.929
1430.00,50.939
1431.00,50.954
1432.00,50.961
1433.00,50.986
1434.00,50.988
1435.00,51.025
1436.00,51.034
1437.00,51.027
1438.00,51.040
1439.00,51.082
1440.00,51.090
1441.00,51.096
1442.00,51.089
1443.00,51.137
1444.00,51.146
1445.00,51.130
1446.00,51.151
1447.00,51.169
1448.00,51.199
1449.00,51.206
1450.00,51.211
1451.00,51.229
1452.00,51.230
1453.00,51.257
1454.00,51.256
1455.00,51.294
1456.00,51.308
1457.00,51.303
1458.00,51.328
1459.00,51.344
1460.00,51.362
1461.00,51.367
1462.00,51.382
1463.00,51.404
1464.00,51.409
1465.00,51.430
1466.00,51.427
1467.00,51.466
1468.00,51.456
1469.00,51.493
1470.00,51.500
1471.00,51.513
1472.00,51.527
1473.00,51.531
1474.00,51.545
1475.00,51.554
1476.00,51.565
1477.00,51.558
1478.00,51.588
1479.00,51.604
1480.00,51.607
1481.00,51.615
1482.00,51.637
1483.00,51.651
1484.00,51.644
1485.00,51.666
1486.00,51.671
1487.00,51.686
1488.00,51.702
1489.00,51.708
1490.00,51.721
1491.00,51.734
1492.00,51.746
1493.00,51.745
1494.00,51.763
1495.00,51.773
1496.00,51.755
1497.00,51.786
1498.00,51.775
1499.00,51.801
1500.00,51.833
1501.00, 
1502.00, 
1503.00, 
1504.00, 
1505.00, 
1506.00, 
1507.00, 
1508.00, 
1509.00, 
1510.00, 
1511.00, 
1512.00, 
1513.00, 
1514.00, 
1515.00, 
1516.00, 
1517.00, 
1518.00, 
1519.00, 
1520.00, 
1521.00, 
1522.00, 
1523.00, 
1524.00, 
1525.00, 
1526.00, 
1527.00, 
1528.00, 
1529.00, 
1530.00, 
1531.00, 
1532.00, 
1533.00, 
1534.00, 
1535.00, 
1536.00, 
1537.00, 
1538.00, 
1539.00, 
1540.00, 
1541.00, 
1542.00, 
1543.00, 
1544.00, 
1545.00, 
1546.00, 
1547.00, 
1548.00, 
1549.00, 
1550.00, 
1551.00, 
1552.00, 
1553.00, 
1554.00, 
1555.00, 
1556.00, 
1557.00, 
1558.00, 
1559.00, 
1560.00, 
1561.00, 
1562.00, 
1563.00, 
1564.00, 
1565.00, 
1566.00, 
1567.00, 
1568.00, 
1569.00, 
1570.00, 
1571.00, 
1572.00, 
1573.00, 
1574.00, 
1575.00, 
1576.00, 
1577.00, 
1578.00, 
1579.00, 
1580.00, 
1581.00, 
1582.00, 
1583.00, 
1584.00, 
1585.00, 
1586.00, 
1587.00, 
1588.00, 
1589.00, 
1590.00, 
1591.00, 
1592.00, 
1593.00, 
1594.00, 
1595.00, 
1596.00, 
1597.00, 
1598.00, 
1599.00, 
1600.00, 
1601.00, 
1602.00, 
1603.00, 
1604.00, 
1605.00, 
1606.00, 
1607.00, 
1608.00, 
1609.00, 
1610.00, 
1611.00, 
1612.00, 
1613.00, 
1614.00, 
1615.00, 
1616.00, 
1617.00, 
1618.00, 
1619.00, 
1620.00, 
1621.00, 
1622.00, 
1623.00, 
1624.00, 
1625.00, 
1626.00, 
1627.00, 
1628.00, 
1629.00, 
1630.00, 
1631.00, 
1632.00, 
1633.00, 
1634.00, 
1635.00, 
1636.00, 
1637.00, 
1638.00, 
1639.00, 
1640.00, 
1641.00, 
1642.00, 
1643.00, 
1644.00, 
1645.00, 
1646.00, 
1647.00, 
1648.00, 
1649.00, 
1650.00, 
1651.00, 
1652.00, 
1653.00, 
1654.00, 
1655.00, 
1656.00, 
1657.00, 
1658.00, 
1659.00, 
1660.00, 
1661.00, 
1662.00, 
1663.00, 
1664.00, 
1665.00, 
1666.00, 
1667.00, 
1668.00, 
1669.00, 
1670.00, 
1671.00, 
1672.00, 
1673.00, 
1674.00, 
1675.00, 
1676.00, 
1677.00, 
1678.00, 
1679.00, 
1680.00, 
1681.00, 
1682.00, 
1683.00, 
1684.00, 
1685.00, 
1686.00, 
1687.00, 
1688.00, 
1689.00, 
1690.00, 
1691.00, 
1692.00, 
1693.00, 
1694.00, 
1695.00, 
1696.00, 
1697.00, 
1698.00, 
1699.00, 
1700.00, 
1701.00, 
1702.00, 
1703.00, 
1704.00, 
1705.00, 
1706.00, 
1707.00, 
1708.00, 
1709.00, 
1710.00, 
1711.00, 
1712.00, 
1713.00, 
1714.00, 
1715.00, 
1716.00, 
1717.00, 
1718.00, 
1719.00, 
1720.00, 
1721.00, 
1722.00, 
1723.00, 
1724.00, 
1725.00, 
1726.00, 
1727.00, 
1728.00, 
1729.00, 
1730.00, 
1731.00, 
1732.00, 
1733.00, 
1734.00, 
1735.00, 
1736.00, 
1737.00, 
1738.00, 
1739.00, 
1740.00, 
1741.00, 
1742.00, 
1743.00, 
1744.00, 
1745.00, 
1746.00, 
1747.00, 
1748.00, 
1749.00, 
1750.00, 
1751.00, 
1752.00, 
1753.00, 
1754.00, 
1755.00, 
1756.00, 
1757.00, 
1758.00, 
1759.00, 
1760.00, 
1761.00, 
1762.00, 
1763.00, 
1764.00, 
1765.00, 
1766.00, 
1767.00, 
1768.00, 
1769.00, 
1770.00, 
1771.00, 
1772.00, 
1773.00, 
1774.00, 
1775.00, 
1776.00, 
1777.00, 
1778.00, 
1779.00, 
1780.00, 
1781.00, 
1782.00, 
1783.00, 
1784.00, 
1785.00, 
1786.00, 
1787.00, 
1788.00, 
1789.00, 
1790.00, 
1791.00, 
1792.00, 
1793.00, 
1794.00, 
1795.00, 
1796.00, 
1797.00, 
1798.00, 
1799.00, 
1800.00, 
1801.00, 
1802.00, 
1803.00, 
1804.00, 
1805.00, 
1806.00, 
1807.00, 
1808.00, 
1809.00, 
1810.00, 
1811.00, 
1812.00, 
1813.00, 
1814.00, 
1815.00, 
1816.00, 
1817.00, 
1818.00, 
1819.00, 
1820.00, 
1821.00, 
1822.00, 
1823.00, 
1824.00, 
1825.00, 
1826.00, 
1827.00, 
1828.00, 
1829.00, 
1830.00, 
1831.00, 
1832.00, 
1833.00, 
1834.00, 
1835.00, 
1836.00, 
1837.00, 
1838.00, 
1839.00, 
1840.00, 
1841.00, 
1842.00, 
1843.00, 
1844.00, 
1845.00, 
1846.00, 
1847.00, 
1848.00, 
1849.00, 
1850.00, 
1851.00, 
1852.00, 
1853.00, 
1854.00, 
1855.00, 
1856.00, 
1857.00, 
1858.00, 
1859.00, 
1860.00, 
1861.00, 
1862.00, 
1863.00, 
1864.00, 
1865.00, 
1866.00, 
1867.00, 
1868.00, 
1869.00, 
1870.00, 
1871.00, 
1872.00, 
1873.00, 
1874.00, 
1875.00, 
1876.00, 
1877.00, 
1878.00, 
1879.00, 
1880.00, 
1881.00, 
1882.00, 
1883.00, 
1884.00, 
1885.00, 
1886.00, 
1887.00, 
1888.00, 
1889.00, 
1890.00, 
1891.00, 
1892.00, 
1893.00, 
1894.00, 
1895.00, 
1896.00, 
1897.00, 
1898.00, 
1899.00, 
1900.00, 
1901.00, 
1902.00, 
1903.00, 
1904.00, 
1905.00, 
1906.00, 
1907.00, 
1908.00, 
1909.00, 
1910.00, 
1911.00, 
1912.00, 
1913.00, 
1914.00, 
1915.00, 
1916.00, 
1917.00, 
1918.00, 
1919.00, 
1920.00, 
1921.00, 
1922.00, 
1923.00, 
1924.00, 
1925.00, 
1926.00, 
1927.00, 
1928.00, 
1929.00, 
1930.00, 
1931.00, 
1932.00, 
1933.00, 
1934.00, 
1935.00, 
1936.00, 
1937.00, 
1938.00, 
1939.00, 
1940.00, 
1941.00, 
1942.00, 
1943.00, 
1944.00, 
1945.00, 
1946.00, 
1947.00, 
1948.00, 
1949.00, 
1950.00, 
1951.00, 
1952.00, 
1953.00, 
1954.00, 
1955.00, 
1956.00, 
1957.00, 
1958.00, 
1959.00, 
1960.00, 
1961.00, 
1962.00, 
1963.00, 
1964.00, 
1965.00, 
1966.00, 
1967.00, 
1968.00, 
1969.00, 
1970.00, 
1971.00, 
1972.00, 
1973.00, 
1974.00, 
1975.00, 
1976.00, 
1977.00, 
1978.00, 
1979.00, 
1980.00, 
1981.00, 
1982.00, 
1983.00, 
1984.00, 
1985.00, 
1986.00, 
1987.00, 
1988.00, 
1989.00, 
1990.00, 
1991.00, 
1992.00, 
1993.00, 
1994.00, 
1995.00, 
1996.00, 
1997.00, 
1998.00, 
1999.00, 
2000.00, 
2001.00, 
2002.00, 
2003.00, 
2004.00, 
2005.00, 
2006.00, 
2007.00, 
2008.00, 
2009.00, 
2010.00, 
2011.00, 
2012.00, 
2013.00, 
2014.00, 
2015.00, 
2016.00, 
2017.00, 
2018.00, 
2019.00, 
2020.00, 
2021.00, 
2022.00, 
2023.00, 
2024.00, 
2025.00, 
2026.00, 
2027.00, 
2028.00, 
2029.00, 
2030.00, 
2031.00, 
2032.00, 
2033.00, 
2034.00, 
2035.00, 
2036.00, 
2037.00, 
2038.00, 
2039.00, 
2040.00, 
2041.00, 
2042.00, 
2043.00, 
2044.00, 
2045.00, 
2046.00, 
2047.00, 
2048.00, 
2049.00, 
2050.00, 
2051.00, 
2052.00, 
2053.00, 
2054.00, 
2055.00, 
2056.00, 
2057.00, 
2058.00, 
2059.00, 
2060.00, 
2061.00, 
2062.00, 
2063.00, 
2064.00, 
2065.00, 
2066.00, 
2067.00, 
2068.00, 
2069.00, 
2070.00, 
2071.00, 
2072.00, 
2073.00, 
2074.00, 
2075.00, 
2076.00, 
2077.00, 
2078.00, 
2079.00, 
2080.00, 
2081.00, 
2082.00, 
2083.00, 
2084.00, 
2085.00, 
2086.00, 
2087.00, 
2088.00, 
2089.00, 
2090.00, 
2091.00, 
2092.00, 
2093.00, 
2094.00, 
2095.00, 
2096.00, 
2097.00, 
2098.00, 
2099.00, 
2100.00, 
2101.00, 
2102.00, 
2103.00, 
2104.00, 
2105.00, 
2106.00, 
2107.00, 
2108.00, 
2109.00, 
2110.00, 
2111.00, 
2112.00, 
2113.00, 
2114.00, 
2115.00, 
2116.00, 
2117.00, 
2118.00, 
2119.00, 
2120.00, 
2121.00, 
2122.00, 
2123.00, 
2124.00, 
2125.00, 
2126.00, 
2127.00, 
2128.00, 
2129.00, 
2130.00, 
2131.00, 
2132.00, 
2133.00, 
2134.00, 
2135.00, 
2136.00, 
2137.00, 
2138.00, 
2139.00, 
2140.00, 
2141.00, 
2142.00, 
2143.00, 
2144.00, 
2145.00, 
2146.00, 
2147.00, 
2148.00, 
2149.00, 
2150.00, 
2151.00, 
2152.00, 
2153.00, 
2154.00, 
2155.00, 
2156.00, 
2157.00, 
2158.00, 
2159.00, 
2160.00, 
2161.00, 
2162.00, 
2163.00, 
2164.00, 
2165.00, 
2166.00, 
2167.00, 
2168.00, 
2169.00, 
2170.00, 
2171.00, 
2172.00, 
2173.00, 
2174.00, 
2175.00, 
2176.00, 
2177.00, 
2178.00, 
2179.00, 
2180.00, 
2181.00, 
2182.00, 
2183.00, 
2184.00, 
2185.00, 
2186.00, 
2187.00, 
2188.00, 
2189.00, 
2190.00, 
2191.00, 
2192.00, 
2193.00, 
2194.00, 
2195.00, 
2196.00, 
2197.00, 
2198.00, 
2199.00, 
2200.00, 
2201.00, 
2202.00, 
2203.00, 
2204.00, 
2205.00, 
2206.00, 
2207.00, 
2208.00, 
2209.00, 
2210.00, 
2211.00, 
2212.00, 
2213.00, 
2214.00, 
2215.00, 
2216.00, 
2217.00, 
2218.00, 
2219.00, 
2220.00, 
2221.00, 
2222.00, 
2223.00, 
2224.00, 
2225.00, 
2226.00, 
2227.00, 
2228.00, 
2229.00, 
2230.00, 
2231.00, 
2232.00, 
2233.00, 
2234.00, 
2235.00, 
2236.00, 
2237.00, 
2238.00, 
2239.00, 
2240.00, 
2241.00, 
2242.00, 
2243.00, 
2244.00, 
2245.00, 
2246.00, 
2247.00, 
2248.00, 
2249.00, 
2250.00, 
2251.00, 
2252.00, 
2253.00, 
2254.00, 
2255.00, 
2256.00, 
2257.00, 
2258.00, 
2259.00, 
2260.00, 
2261.00, 
2262.00, 
2263.00, 
2264.00, 
2265.00, 
2266.00, 
2267.00, 
2268.00, 
2269.00, 
2270.00, 
2271.00, 
2272.00, 
2273.00, 
2274.00, 
2275.00, 
2276.00, 
2277.00, 
2278.00, 
2279.00, 
2280.00, 
2281.00, 
2282.00, 
2283.00, 
2284.00, 
2285.00, 
2286.00, 
2287.00, 
2288.00, 
2289.00, 
2290.00, 
2291.00, 
2292.00, 
2293.00, 
2294.00, 
2295.00, 
2296.00, 
2297.00, 
2298.00, 
2299.00, 
2300.00, 
2301.00, 
2302.00, 
2303.00, 
2304.00, 
2305.00, 
2306.00, 
2307.00, 
2308.00, 
2309.00, 
2310.00, 
2311.00, 
2312.00, 
2313.00, 
2314.00, 
2315.00, 
2316.00, 
2317.00, 
2318.00, 
2319.00, 
2320.00, 
2321.00, 
2322.00, 
2323.00, 
2324.00, 
2325.00, 
2326.00, 
2327.00, 
2328.00, 
2329.00, 
2330.00, 
2331.00, 
2332.00, 
2333.00, 
2334.00, 
2335.00, 
2336.00, 
2337.00, 
2338.00, 
2339.00, 
2340.00, 
2341.00, 
2342.00, 
2343.00, 
2344.00, 
2345.00, 
2346.00, 
2347.00, 
2348.00, 
2349.00, 
2350.00, 
2351.00, 
2352.00, 
2353.00, 
2354.00, 
2355.00, 
2356.00, 
2357.00, 
2358.00, 
2359.00, 
2360.00, 
2361.00, 
2362.00, 
2363.00, 
2364.00, 
2365.00, 
2366.00, 
2367.00, 
2368.00, 
2369.00, 
2370.00, 
2371.00, 
2372.00, 
2373.00, 
2374.00, 
2375.00, 
2376.00, 
2377.00, 
2378.00, 
2379.00, 
2380.00, 
2381.00, 
2382.00, 
2383.00, 
2384.00, 
2385.00, 
2386.00, 
2387.00, 
2388.00, 
2389.00, 
2390.00, 
2391.00, 
2392.00, 
2393.00, 
2394.00, 
2395.00, 
2396.00, 
2397.00, 
2398.00, 
2399.00, 
2400.00, 
2401.00, 
2402.00, 
2403.00, 
2404.00, 
2405.00, 
2406.00, 
2407.00, 
2408.00, 
2409.00, 
2410.00, 
2411.00, 
2412.00, 
2413.00, 
2414.00, 
2415.00, 
2416.00, 
2417.00, 
2418.00, 
2419.00, 
2420.00, 
2421.00, 
2422.00, 
2423.00, 
2424.00, 
2425.00, 
2426.00, 
2427.00, 
2428.00, 
2429.00, 
2430.00, 
2431.00, 
2432.00, 
2433.00, 
2434.00, 
2435.00, 
2436.00, 
2437.00, 
2438.00, 
2439.00, 
2440.00, 
2441.00, 
2442.00, 
2443.00, 
2444.00, 
2445.00, 
2446.00, 
2447.00, 
2448.00, 
2449.00, 
2450.00, 
2451.00, 
2452.00, 
2453.00, 
2454.00, 
2455.00, 
2456.00, 
2457.00, 
2458.00, 
2459.00, 
2460.00, 
2461.00, 
2462.00, 
2463.00, 
2464.00, 
2465.00, 
2466.00, 
2467.00, 
2468.00, 
2469.00, 
2470.00, 
2471.00, 
2472.00, 
2473.00, 
2474.00, 
2475.00, 
2476.00, 
2477.00, 
2478.00, 
2479.00, 
2480.00, 
2481.00, 
2482.00, 
2483.00, 
2484.00, 
2485.00, 
2486.00, 
2487.00, 
2488.00, 
2489.00, 
2490.00, 
2491.00, 
2492.00, 
2493.00, 
2494.00, 
2495.00, 
2496.00, 
2497.00, 
2498.00, 
2499.00, 
2500.00, 
2501.00, 
2502.00, 
2503.00, 
2504.00, 
2505.00, 
2506.00, 
2507.00, 
2508.00, 
2509.00, 
2510.00, 
2511.00, 
2512.00, 
2513.00, 
2514.00, 
2515.00, 
2516.00, 
2517.00, 
2518.00, 
2519.00, 
2520.00, 
2521.00, 
2522.00, 
2523.00, 
2524.00, 
2525.00, 
2526.00, 
2527.00, 
2528.00, 
2529.00, 
2530.00, 
2531.00, 
2532.00, 
2533.00, 
2534.00, 
2535.00, 
2536.00, 
2537.00, 
2538.00, 
2539.00, 
2540.00, 
2541.00, 
2542.00, 
2543.00, 
2544.00, 
2545.00, 
2546.00, 
2547.00, 
2548.00, 
2549.00, 
2550.00, 
2551.00, 
2552.00, 
2553.00, 
2554.00, 
2555.00, 
2556.00, 
2557.00, 
2558.00, 
2559.00, 
2560.00, 
2561.00, 
2562.00, 
2563.00, 
2564.00, 
2565.00, 
2566.00, 
2567.00, 
2568.00, 
2569.00, 
2570.00, 
2571.00, 
2572.00, 
2573.00, 
2574.00, 
2575.00, 
2576.00, 
2577.00, 
2578.00, 
2579.00, 
2580.00, 
2581.00, 
2582.00, 
2583.00, 
2584.00, 
2585.00, 
2586.00, 
2587.00, 
2588.00, 
2589.00, 
2590.00, 
2591.00, 
2592.00, 
2593.00, 
2594.00, 
2595.00, 
2596.00, 
2597.00, 
2598.00, 
2599.00, 
2600.00, 
