"2cP2 - RawData"
"Wavelength nm.","T%"
200.00,0.001
201.00,0.001
202.00,0.004
203.00,0.005
204.00,0.003
205.00,0.004
206.00,0.003
207.00,0.003
208.00,0.004
209.00,0.002
210.00,0.003
211.00,0.001
212.00,0.001
213.00,0.004
214.00,0.002
215.00,0.001
216.00,0.004
217.00,0.001
218.00,0.000
219.00,-0.002
220.00,0.002
221.00,0.002
222.00,0.001
223.00,0.000
224.00,0.003
225.00,0.004
226.00,-0.000
227.00,0.000
228.00,0.002
229.00,0.002
230.00,0.003
231.00,0.001
232.00,-0.001
233.00,-0.001
234.00,0.001
235.00,-0.000
236.00,0.001
237.00,-0.000
238.00,0.002
239.00,0.001
240.00,0.002
241.00,0.001
242.00,-0.000
243.00,0.001
244.00,0.001
245.00,-0.001
246.00,0.000
247.00,0.001
248.00,-0.000
249.00,0.001
250.00,0.001
251.00,-0.000
252.00,0.000
253.00,0.001
254.00,0.001
255.00,-0.001
256.00,0.001
257.00,0.001
258.00,-0.001
259.00,0.001
260.00,-0.000
261.00,0.002
262.00,0.002
263.00,0.002
264.00,0.002
265.00,-0.001
266.00,-0.002
267.00,-0.001
268.00,0.000
269.00,0.001
270.00,0.001
271.00,0.001
272.00,0.001
273.00,-0.000
274.00,-0.001
275.00,0.001
276.00,0.000
277.00,-0.000
278.00,0.001
279.00,-0.000
280.00,0.001
281.00,-0.000
282.00,0.002
283.00,0.000
284.00,0.001
285.00,-0.001
286.00,0.000
287.00,0.000
288.00,-0.000
289.00,0.000
290.00,0.001
291.00,0.001
292.00,-0.001
293.00,-0.001
294.00,0.000
295.00,0.000
296.00,0.001
297.00,-0.000
298.00,0.001
299.00,0.002
300.00,0.003
301.00,0.006
302.00,0.011
303.00,0.013
304.00,0.024
305.00,0.039
306.00,0.058
307.00,0.084
308.00,0.133
309.00,0.206
310.00,0.294
311.00,0.392
312.00,0.547
313.00,0.736
314.00,0.973
315.00,1.208
316.00,1.594
317.00,2.012
318.00,2.480
319.00,3.054
320.00,3.746
321.00,4.434
322.00,5.256
323.00,6.185
324.00,7.155
325.00,8.155
326.00,9.175
327.00,10.367
328.00,11.606
329.00,12.852
330.00,14.145
331.00,15.441
332.00,16.731
333.00,18.130
334.00,19.427
335.00,20.804
336.00,22.187
337.00,23.443
338.00,24.825
339.00,26.089
340.00,27.378
341.00,28.557
342.00,29.700
343.00,30.834
344.00,31.940
345.00,33.016
346.00,33.897
347.00,34.899
348.00,35.834
349.00,36.648
350.00,37.430
351.00,38.134
352.00,38.907
353.00,39.443
354.00,40.208
355.00,40.823
356.00,41.421
357.00,42.002
358.00,42.469
359.00,42.954
360.00,43.450
361.00,43.817
362.00,44.165
363.00,44.635
364.00,45.020
365.00,45.298
366.00,45.642
367.00,45.745
368.00,45.986
369.00,46.233
370.00,46.375
371.00,46.493
372.00,46.644
373.00,46.776
374.00,46.853
375.00,46.885
376.00,46.852
377.00,46.925
378.00,46.908
379.00,46.895
380.00,46.893
381.00,47.024
382.00,47.117
383.00,47.184
384.00,47.393
385.00,47.501
386.00,47.651
387.00,47.892
388.00,48.051
389.00,48.199
390.00,48.357
391.00,48.500
392.00,48.605
393.00,48.667
394.00,48.793
395.00,48.912
396.00,49.013
397.00,49.053
398.00,49.113
399.00,49.184
400.00,49.286
401.00,49.376
402.00,49.380
403.00,49.456
404.00,49.435
405.00,49.493
406.00,49.512
407.00,49.465
408.00,49.544
409.00,49.423
410.00,49.415
411.00,49.397
412.00,49.309
413.00,49.313
414.00,49.344
415.00,49.287
416.00,49.402
417.00,49.404
418.00,49.445
419.00,49.470
420.00,49.533
421.00,49.500
422.00,49.628
423.00,49.661
424.00,49.664
425.00,49.682
426.00,49.742
427.00,49.749
428.00,49.744
429.00,49.784
430.00,49.869
431.00,49.795
432.00,49.833
433.00,49.904
434.00,49.737
435.00,49.892
436.00,49.992
437.00,49.992
438.00,50.059
439.00,50.008
440.00,50.018
441.00,50.055
442.00,50.078
443.00,50.130
444.00,50.190
445.00,50.174
446.00,50.266
447.00,50.280
448.00,50.344
449.00,50.417
450.00,50.380
451.00,50.465
452.00,50.495
453.00,50.549
454.00,50.575
455.00,50.618
456.00,50.581
457.00,50.719
458.00,50.720
459.00,50.734
460.00,50.827
461.00,50.825
462.00,50.903
463.00,50.901
464.00,50.983
465.00,51.042
466.00,51.035
467.00,51.158
468.00,51.108
469.00,51.169
470.00,51.101
471.00,51.123
472.00,51.107
473.00,51.046
474.00,51.084
475.00,51.139
476.00,51.083
477.00,51.127
478.00,51.151
479.00,51.245
480.00,51.215
481.00,51.250
482.00,51.159
483.00,51.373
484.00,51.422
485.00,51.602
486.00,51.631
487.00,51.624
488.00,51.654
489.00,51.712
490.00,51.790
491.00,51.805
492.00,51.845
493.00,52.015
494.00,51.991
495.00,51.928
496.00,51.976
497.00,51.976
498.00,52.095
499.00,52.058
500.00,52.088
501.00,52.132
502.00,52.205
503.00,52.199
504.00,52.141
505.00,52.209
506.00,52.221
507.00,52.215
508.00,52.259
509.00,52.297
510.00,52.327
511.00,52.367
512.00,52.434
513.00,52.456
514.00,52.546
515.00,52.572
516.00,52.631
517.00,52.628
518.00,52.692
519.00,52.608
520.00,52.634
521.00,52.646
522.00,52.637
523.00,52.559
524.00,52.586
525.00,52.637
526.00,52.661
527.00,52.698
528.00,52.679
529.00,52.709
530.00,52.817
531.00,52.904
532.00,52.915
533.00,52.942
534.00,53.021
535.00,52.973
536.00,53.065
537.00,52.893
538.00,53.060
539.00,53.086
540.00,52.997
541.00,53.026
542.00,52.984
543.00,53.066
544.00,53.103
545.00,53.087
546.00,53.115
547.00,53.210
548.00,53.174
549.00,53.273
550.00,53.383
551.00,53.285
552.00,53.326
553.00,53.332
554.00,53.328
555.00,53.375
556.00,53.372
557.00,53.369
558.00,53.358
559.00,53.371
560.00,53.449
561.00,53.474
562.00,53.453
563.00,53.372
564.00,53.472
565.00,53.399
566.00,53.377
567.00,53.436
568.00,53.371
569.00,53.366
570.00,53.349
571.00,53.446
572.00,53.410
573.00,53.390
574.00,53.463
575.00,53.375
576.00,53.380
577.00,53.364
578.00,53.451
579.00,53.450
580.00,53.534
581.00,53.582
582.00,53.625
583.00,53.670
584.00,53.684
585.00,53.712
586.00,53.753
587.00,53.706
588.00,53.729
589.00,53.714
590.00,53.646
591.00,53.722
592.00,53.729
593.00,53.700
594.00,53.693
595.00,53.723
596.00,53.688
597.00,53.814
598.00,53.869
599.00,53.887
600.00,53.895
601.00,53.769
602.00,53.864
603.00,53.854
604.00,53.782
605.00,53.744
606.00,53.864
607.00,53.865
608.00,53.710
609.00,53.831
610.00,53.963
611.00,53.822
612.00,53.810
613.00,53.705
614.00,53.797
615.00,53.783
616.00,53.813
617.00,53.840
618.00,53.813
619.00,53.739
620.00,53.761
621.00,53.799
622.00,53.743
623.00,53.703
624.00,53.651
625.00,53.791
626.00,53.799
627.00,53.748
628.00,53.766
629.00,53.738
630.00,53.677
631.00,53.610
632.00,53.738
633.00,53.762
634.00,53.634
635.00,53.763
636.00,53.727
637.00,53.737
638.00,53.634
639.00,53.726
640.00,53.708
641.00,53.688
642.00,53.678
643.00,53.636
644.00,53.702
645.00,53.667
646.00,53.738
647.00,53.732
648.00,53.650
649.00,53.702
650.00,53.663
651.00,53.608
652.00,53.649
653.00,53.662
654.00,53.619
655.00,53.641
656.00,53.696
657.00,53.840
658.00,53.669
659.00,53.681
660.00,53.704
661.00,53.453
662.00,53.637
663.00,53.549
664.00,53.714
665.00,53.565
666.00,53.557
667.00,53.649
668.00,53.642
669.00,53.503
670.00,53.562
671.00,53.425
672.00,53.460
673.00,53.518
674.00,53.549
675.00,53.452
676.00,53.497
677.00,53.506
678.00,53.372
679.00,53.315
680.00,53.336
681.00,53.446
682.00,53.301
683.00,53.314
684.00,53.444
685.00,53.331
686.00,53.223
687.00,53.281
688.00,53.265
689.00,53.201
690.00,53.301
691.00,53.304
692.00,53.123
693.00,53.128
694.00,53.047
695.00,53.101
696.00,53.045
697.00,53.046
698.00,53.106
699.00,53.225
700.00,53.195
701.00,53.022
702.00,53.087
703.00,53.092
704.00,52.996
705.00,52.964
706.00,52.969
707.00,52.974
708.00,52.817
709.00,52.941
710.00,53.108
711.00,52.785
712.00,52.670
713.00,52.833
714.00,52.790
715.00,52.742
716.00,52.620
717.00,52.794
718.00,52.636
719.00,52.617
720.00,52.663
721.00,57.102
722.00,56.861
723.00,56.980
724.00,56.925
725.00,56.910
726.00,56.660
727.00,56.608
728.00,56.564
729.00,56.486
730.00,56.540
731.00,56.434
732.00,56.366
733.00,56.317
734.00,56.346
735.00,56.157
736.00,56.176
737.00,56.068
738.00,56.031
739.00,56.057
740.00,55.993
741.00,55.950
742.00,55.898
743.00,55.818
744.00,55.746
745.00,55.778
746.00,55.637
747.00,55.514
748.00,55.490
749.00,55.389
750.00,55.324
751.00,55.230
752.00,55.239
753.00,55.184
754.00,55.181
755.00,55.070
756.00,55.063
757.00,55.002
758.00,54.993
759.00,54.926
760.00,54.921
761.00,54.743
762.00,54.846
763.00,54.713
764.00,54.661
765.00,54.646
766.00,54.631
767.00,54.617
768.00,54.552
769.00,54.462
770.00,54.516
771.00,54.382
772.00,54.359
773.00,54.353
774.00,54.417
775.00,54.350
776.00,54.260
777.00,54.252
778.00,54.269
779.00,54.144
780.00,54.078
781.00,54.029
782.00,54.122
783.00,53.994
784.00,53.933
785.00,53.874
786.00,53.964
787.00,53.865
788.00,53.766
789.00,53.788
790.00,53.698
791.00,53.708
792.00,53.585
793.00,53.597
794.00,53.509
795.00,53.508
796.00,53.367
797.00,53.338
798.00,53.320
799.00,53.213
800.00,53.278
801.00,53.273
802.00,53.175
803.00,53.189
804.00,53.138
805.00,53.116
806.00,53.027
807.00,53.035
808.00,52.978
809.00,53.014
810.00,52.956
811.00,52.856
812.00,52.773
813.00,52.753
814.00,52.648
815.00,52.646
816.00,52.741
817.00,52.628
818.00,52.606
819.00,52.573
820.00,52.526
821.00,52.526
822.00,52.469
823.00,52.414
824.00,52.487
825.00,52.340
826.00,52.467
827.00,52.405
828.00,52.269
829.00,52.287
830.00,52.198
831.00,54.759
832.00,54.744
833.00,54.683
834.00,54.710
835.00,54.593
836.00,54.619
837.00,54.606
838.00,54.547
839.00,54.532
840.00,54.485
841.00,54.477
842.00,54.446
843.00,54.409
844.00,54.448
845.00,54.315
846.00,54.326
847.00,54.296
848.00,54.250
849.00,54.155
850.00,54.142
851.00,54.069
852.00,54.095
853.00,54.013
854.00,53.977
855.00,53.914
856.00,53.924
857.00,53.874
858.00,53.844
859.00,53.830
860.00,53.792
861.00,53.766
862.00,53.709
863.00,53.721
864.00,53.648
865.00,53.695
866.00,53.649
867.00,53.656
868.00,53.586
869.00,53.582
870.00,53.555
871.00,53.542
872.00,53.514
873.00,53.487
874.00,53.505
875.00,53.473
876.00,53.460
877.00,53.434
878.00,53.412
879.00,53.390
880.00,53.391
881.00,53.344
882.00,53.357
883.00,53.311
884.00,53.251
885.00,53.228
886.00,53.212
887.00,53.193
888.00,53.176
889.00,53.145
890.00,53.143
891.00,53.103
892.00,53.077
893.00,53.021
894.00,53.044
895.00,53.001
896.00,52.979
897.00,52.957
898.00,52.914
899.00,52.899
900.00,52.914
901.00,52.886
902.00,52.876
903.00,52.848
904.00,52.823
905.00,52.819
906.00,52.786
907.00,52.761
908.00,52.698
909.00,52.693
910.00,52.686
911.00,52.614
912.00,52.640
913.00,52.664
914.00,52.591
915.00,52.565
916.00,52.535
917.00,52.508
918.00,52.487
919.00,52.465
920.00,52.424
921.00,52.418
922.00,52.407
923.00,52.373
924.00,52.350
925.00,52.345
926.00,52.339
927.00,52.322
928.00,52.283
929.00,52.268
930.00,52.228
931.00,52.218
932.00,52.185
933.00,52.180
934.00,52.154
935.00,52.136
936.00,52.107
937.00,52.075
938.00,52.068
939.00,52.090
940.00,52.031
941.00,52.025
942.00,51.982
943.00,51.976
944.00,51.953
945.00,51.942
946.00,51.913
947.00,51.888
948.00,51.848
949.00,51.822
950.00,51.812
951.00,51.787
952.00,51.765
953.00,51.742
954.00,51.720
955.00,51.673
956.00,51.675
957.00,51.721
958.00,51.621
959.00,51.570
960.00,51.570
961.00,51.552
962.00,51.561
963.00,51.512
964.00,51.502
965.00,51.499
966.00,51.494
967.00,51.477
968.00,51.445
969.00,51.472
970.00,51.436
971.00,51.448
972.00,51.419
973.00,51.456
974.00,51.464
975.00,51.438
976.00,51.469
977.00,51.431
978.00,51.479
979.00,51.435
980.00,51.455
981.00,51.455
982.00,51.439
983.00,51.437
984.00,51.425
985.00,51.436
986.00,51.390
987.00,51.417
988.00,51.381
989.00,51.364
990.00,51.375
991.00,51.335
992.00,51.345
993.00,51.321
994.00,51.298
995.00,51.287
996.00,51.277
997.00,51.284
998.00,51.252
999.00,51.271
1000.00,51.220
1001.00,51.229
1002.00,51.237
1003.00,51.186
1004.00,51.177
1005.00,51.152
1006.00,51.173
1007.00,51.135
1008.00,51.135
1009.00,51.118
1010.00,51.109
1011.00,51.102
1012.00,51.063
1013.00,51.073
1014.00,51.026
1015.00,51.049
1016.00,50.995
1017.00,50.997
1018.00,50.984
1019.00,50.953
1020.00,50.949
1021.00,50.926
1022.00,50.920
1023.00,50.880
1024.00,50.886
1025.00,50.870
1026.00,50.857
1027.00,50.827
1028.00,50.822
1029.00,50.802
1030.00,50.786
1031.00,50.795
1032.00,50.747
1033.00,50.746
1034.00,50.718
1035.00,50.674
1036.00,50.655
1037.00,50.646
1038.00,50.627
1039.00,50.600
1040.00,50.603
1041.00,50.565
1042.00,50.563
1043.00,50.534
1044.00,50.574
1045.00,50.564
1046.00,50.551
1047.00,50.561
1048.00,50.587
1049.00,50.584
1050.00,50.584
1051.00,50.599
1052.00,50.623
1053.00,50.640
1054.00,50.617
1055.00,50.637
1056.00,50.639
1057.00,50.649
1058.00,50.631
1059.00,50.629
1060.00,50.631
1061.00,50.621
1062.00,50.610
1063.00,50.620
1064.00,50.611
1065.00,50.604
1066.00,50.588
1067.00,50.575
1068.00,50.577
1069.00,50.557
1070.00,50.529
1071.00,50.518
1072.00,50.528
1073.00,50.505
1074.00,50.511
1075.00,50.504
1076.00,50.492
1077.00,50.486
1078.00,50.499
1079.00,50.481
1080.00,50.460
1081.00,50.434
1082.00,50.435
1083.00,50.426
1084.00,50.419
1085.00,50.418
1086.00,50.414
1087.00,50.403
1088.00,50.385
1089.00,50.382
1090.00,50.387
1091.00,50.357
1092.00,50.362
1093.00,50.344
1094.00,50.337
1095.00,50.319
1096.00,50.301
1097.00,50.300
1098.00,50.295
1099.00,50.279
1100.00,50.270
1101.00,50.256
1102.00,50.252
1103.00,50.242
1104.00,50.238
1105.00,50.226
1106.00,50.225
1107.00,50.213
1108.00,50.221
1109.00,50.224
1110.00,50.205
1111.00,50.198
1112.00,50.175
1113.00,50.156
1114.00,50.162
1115.00,50.161
1116.00,50.156
1117.00,50.126
1118.00,50.125
1119.00,50.132
1120.00,50.129
1121.00,50.124
1122.00,50.113
1123.00,50.104
1124.00,50.105
1125.00,50.089
1126.00,50.088
1127.00,50.075
1128.00,50.053
1129.00,50.045
1130.00,50.046
1131.00,50.029
1132.00,50.025
1133.00,50.027
1134.00,50.019
1135.00,49.998
1136.00,50.004
1137.00,50.024
1138.00,50.033
1139.00,50.020
1140.00,50.009
1141.00,49.998
1142.00,49.991
1143.00,49.991
1144.00,49.970
1145.00,49.961
1146.00,49.970
1147.00,49.955
1148.00,49.950
1149.00,49.968
1150.00,49.975
1151.00,49.976
1152.00,49.957
1153.00,49.946
1154.00,49.935
1155.00,49.944
1156.00,49.927
1157.00,49.930
1158.00,49.930
1159.00,49.910
1160.00,49.915
1161.00,49.921
1162.00,49.916
1163.00,49.923
1164.00,49.913
1165.00,49.920
1166.00,49.924
1167.00,49.923
1168.00,49.921
1169.00,49.913
1170.00,49.923
1171.00,49.889
1172.00,49.903
1173.00,49.903
1174.00,49.906
1175.00,49.890
1176.00,49.896
1177.00,49.891
1178.00,49.875
1179.00,49.890
1180.00,49.889
1181.00,49.908
1182.00,49.916
1183.00,49.890
1184.00,49.886
1185.00,49.909
1186.00,49.893
1187.00,49.888
1188.00,49.873
1189.00,49.853
1190.00,49.854
1191.00,49.859
1192.00,49.865
1193.00,49.861
1194.00,49.870
1195.00,49.847
1196.00,49.872
1197.00,49.873
1198.00,49.884
1199.00,49.865
1200.00,49.865
1201.00,49.879
1202.00,49.867
1203.00,49.863
1204.00,49.852
1205.00,49.873
1206.00,49.861
1207.00,49.874
1208.00,49.854
1209.00,49.849
1210.00,49.858
1211.00,49.852
1212.00,49.879
1213.00,49.843
1214.00,49.866
1215.00,49.856
1216.00,49.857
1217.00,49.862
1218.00,49.857
1219.00,49.876
1220.00,49.850
1221.00,49.863
1222.00,49.842
1223.00,49.861
1224.00,49.852
1225.00,49.849
1226.00,49.852
1227.00,49.835
1228.00,49.867
1229.00,49.866
1230.00,49.900
1231.00,49.892
1232.00,49.896
1233.00,49.907
1234.00,49.916
1235.00,49.913
1236.00,49.914
1237.00,49.898
1238.00,49.905
1239.00,49.905
1240.00,49.903
1241.00,49.901
1242.00,49.908
1243.00,49.936
1244.00,49.915
1245.00,49.942
1246.00,49.945
1247.00,49.944
1248.00,49.934
1249.00,49.940
1250.00,49.936
1251.00,49.937
1252.00,49.942
1253.00,49.932
1254.00,49.970
1255.00,49.951
1256.00,49.934
1257.00,49.929
1258.00,49.971
1259.00,49.964
1260.00,49.984
1261.00,49.985
1262.00,49.973
1263.00,49.971
1264.00,49.986
1265.00,49.987
1266.00,49.981
1267.00,49.985
1268.00,50.013
1269.00,49.994
1270.00,50.006
1271.00,50.015
1272.00,50.022
1273.00,50.021
1274.00,50.021
1275.00,50.024
1276.00,50.040
1277.00,50.030
1278.00,50.046
1279.00,50.045
1280.00,50.060
1281.00,50.071
1282.00,50.080
1283.00,50.065
1284.00,50.077
1285.00,50.053
1286.00,50.069
1287.00,50.069
1288.00,50.063
1289.00,50.069
1290.00,50.086
1291.00,50.111
1292.00,50.091
1293.00,50.110
1294.00,50.126
1295.00,50.126
1296.00,50.122
1297.00,50.131
1298.00,50.150
1299.00,50.128
1300.00,50.132
1301.00,50.138
1302.00,50.131
1303.00,50.152
1304.00,50.133
1305.00,50.163
1306.00,50.171
1307.00,50.178
1308.00,50.190
1309.00,50.194
1310.00,50.195
1311.00,50.186
1312.00,50.197
1313.00,50.196
1314.00,50.207
1315.00,50.227
1316.00,50.236
1317.00,50.243
1318.00,50.227
1319.00,50.235
1320.00,50.256
1321.00,50.409
1322.00,50.418
1323.00,50.410
1324.00,50.407
1325.00,50.391
1326.00,50.404
1327.00,50.402
1328.00,50.399
1329.00,50.387
1330.00,50.392
1331.00,50.436
1332.00,50.415
1333.00,50.422
1334.00,50.449
1335.00,50.461
1336.00,50.469
1337.00,50.529
1338.00,50.567
1339.00,50.610
1340.00,50.681
1341.00,50.736
1342.00,50.813
1343.00,50.865
1344.00,50.900
1345.00,50.972
1346.00,51.002
1347.00,51.015
1348.00,51.039
1349.00,51.072
1350.00,51.062
1351.00,51.099
1352.00,51.126
1353.00,50.793
1354.00,51.113
1355.00,51.062
1356.00,51.107
1357.00,51.124
1358.00,51.146
1359.00,51.164
1360.00,51.182
1361.00,51.101
1362.00,51.167
1363.00,51.215
1364.00,51.180
1365.00,51.180
1366.00,51.183
1367.00,51.132
1368.00,51.129
1369.00,51.120
1370.00,51.128
1371.00,51.072
1372.00,51.115
1373.00,51.122
1374.00,51.140
1375.00,51.133
1376.00,51.139
1377.00,51.089
1378.00,51.139
1379.00,51.128
1380.00,51.161
1381.00,51.083
1382.00,51.146
1383.00,51.102
1384.00,51.117
1385.00,51.152
1386.00,51.112
1387.00,51.124
1388.00,51.080
1389.00,51.094
1390.00,51.104
1391.00,51.055
1392.00,51.127
1393.00,51.043
1394.00,51.090
1395.00,51.129
1396.00,51.085
1397.00,51.118
1398.00,51.306
1399.00,51.074
1400.00,51.067
1401.00,51.103
1402.00,51.128
1403.00,51.084
1404.00,51.122
1405.00,51.143
1406.00,51.131
1407.00,51.187
1408.00,51.199
1409.00,51.158
1410.00,51.189
1411.00,51.186
1412.00,51.225
1413.00,51.044
1414.00,51.135
1415.00,51.244
1416.00,51.243
1417.00,51.261
1418.00,51.258
1419.00,51.264
1420.00,51.278
1421.00,51.300
1422.00,51.304
1423.00,51.305
1424.00,51.314
1425.00,51.329
1426.00,51.347
1427.00,51.357
1428.00,51.370
1429.00,51.382
1430.00,51.396
1431.00,51.415
1432.00,51.423
1433.00,51.450
1434.00,51.431
1435.00,51.470
1436.00,51.483
1437.00,51.479
1438.00,51.487
1439.00,51.527
1440.00,51.542
1441.00,51.548
1442.00,51.548
1443.00,51.601
1444.00,51.606
1445.00,51.587
1446.00,51.600
1447.00,51.639
1448.00,51.662
1449.00,51.661
1450.00,51.674
1451.00,51.687
1452.00,51.696
1453.00,51.713
1454.00,51.719
1455.00,51.763
1456.00,51.745
1457.00,51.775
1458.00,51.781
1459.00,51.822
1460.00,51.833
1461.00,51.836
1462.00,51.858
1463.00,51.869
1464.00,51.869
1465.00,51.890
1466.00,51.895
1467.00,51.913
1468.00,51.933
1469.00,51.941
1470.00,51.947
1471.00,51.969
1472.00,51.984
1473.00,52.003
1474.00,52.028
1475.00,52.025
1476.00,52.040
1477.00,52.019
1478.00,52.034
1479.00,52.058
1480.00,52.069
1481.00,52.069
1482.00,52.094
1483.00,52.115
1484.00,52.112
1485.00,52.141
1486.00,52.133
1487.00,52.162
1488.00,52.169
1489.00,52.169
1490.00,52.178
1491.00,52.197
1492.00,52.212
1493.00,52.217
1494.00,52.230
1495.00,52.244
1496.00,52.236
1497.00,52.264
1498.00,52.257
1499.00,52.285
1500.00,52.296
1501.00, 
1502.00, 
1503.00, 
1504.00, 
1505.00, 
1506.00, 
1507.00, 
1508.00, 
1509.00, 
1510.00, 
1511.00, 
1512.00, 
1513.00, 
1514.00, 
1515.00, 
1516.00, 
1517.00, 
1518.00, 
1519.00, 
1520.00, 
1521.00, 
1522.00, 
1523.00, 
1524.00, 
1525.00, 
1526.00, 
1527.00, 
1528.00, 
1529.00, 
1530.00, 
1531.00, 
1532.00, 
1533.00, 
1534.00, 
1535.00, 
1536.00, 
1537.00, 
1538.00, 
1539.00, 
1540.00, 
1541.00, 
1542.00, 
1543.00, 
1544.00, 
1545.00, 
1546.00, 
1547.00, 
1548.00, 
1549.00, 
1550.00, 
1551.00, 
1552.00, 
1553.00, 
1554.00, 
1555.00, 
1556.00, 
1557.00, 
1558.00, 
1559.00, 
1560.00, 
1561.00, 
1562.00, 
1563.00, 
1564.00, 
1565.00, 
1566.00, 
1567.00, 
1568.00, 
1569.00, 
1570.00, 
1571.00, 
1572.00, 
1573.00, 
1574.00, 
1575.00, 
1576.00, 
1577.00, 
1578.00, 
1579.00, 
1580.00, 
1581.00, 
1582.00, 
1583.00, 
1584.00, 
1585.00, 
1586.00, 
1587.00, 
1588.00, 
1589.00, 
1590.00, 
1591.00, 
1592.00, 
1593.00, 
1594.00, 
1595.00, 
1596.00, 
1597.00, 
1598.00, 
1599.00, 
1600.00, 
1601.00, 
1602.00, 
1603.00, 
1604.00, 
1605.00, 
1606.00, 
1607.00, 
1608.00, 
1609.00, 
1610.00, 
1611.00, 
1612.00, 
1613.00, 
1614.00, 
1615.00, 
1616.00, 
1617.00, 
1618.00, 
1619.00, 
1620.00, 
1621.00, 
1622.00, 
1623.00, 
1624.00, 
1625.00, 
1626.00, 
1627.00, 
1628.00, 
1629.00, 
1630.00, 
1631.00, 
1632.00, 
1633.00, 
1634.00, 
1635.00, 
1636.00, 
1637.00, 
1638.00, 
1639.00, 
1640.00, 
1641.00, 
1642.00, 
1643.00, 
1644.00, 
1645.00, 
1646.00, 
1647.00, 
1648.00, 
1649.00, 
1650.00, 
1651.00, 
1652.00, 
1653.00, 
1654.00, 
1655.00, 
1656.00, 
1657.00, 
1658.00, 
1659.00, 
1660.00, 
1661.00, 
1662.00, 
1663.00, 
1664.00, 
1665.00, 
1666.00, 
1667.00, 
1668.00, 
1669.00, 
1670.00, 
1671.00, 
1672.00, 
1673.00, 
1674.00, 
1675.00, 
1676.00, 
1677.00, 
1678.00, 
1679.00, 
1680.00, 
1681.00, 
1682.00, 
1683.00, 
1684.00, 
1685.00, 
1686.00, 
1687.00, 
1688.00, 
1689.00, 
1690.00, 
1691.00, 
1692.00, 
1693.00, 
1694.00, 
1695.00, 
1696.00, 
1697.00, 
1698.00, 
1699.00, 
1700.00, 
1701.00, 
1702.00, 
1703.00, 
1704.00, 
1705.00, 
1706.00, 
1707.00, 
1708.00, 
1709.00, 
1710.00, 
1711.00, 
1712.00, 
1713.00, 
1714.00, 
1715.00, 
1716.00, 
1717.00, 
1718.00, 
1719.00, 
1720.00, 
1721.00, 
1722.00, 
1723.00, 
1724.00, 
1725.00, 
1726.00, 
1727.00, 
1728.00, 
1729.00, 
1730.00, 
1731.00, 
1732.00, 
1733.00, 
1734.00, 
1735.00, 
1736.00, 
1737.00, 
1738.00, 
1739.00, 
1740.00, 
1741.00, 
1742.00, 
1743.00, 
1744.00, 
1745.00, 
1746.00, 
1747.00, 
1748.00, 
1749.00, 
1750.00, 
1751.00, 
1752.00, 
1753.00, 
1754.00, 
1755.00, 
1756.00, 
1757.00, 
1758.00, 
1759.00, 
1760.00, 
1761.00, 
1762.00, 
1763.00, 
1764.00, 
1765.00, 
1766.00, 
1767.00, 
1768.00, 
1769.00, 
1770.00, 
1771.00, 
1772.00, 
1773.00, 
1774.00, 
1775.00, 
1776.00, 
1777.00, 
1778.00, 
1779.00, 
1780.00, 
1781.00, 
1782.00, 
1783.00, 
1784.00, 
1785.00, 
1786.00, 
1787.00, 
1788.00, 
1789.00, 
1790.00, 
1791.00, 
1792.00, 
1793.00, 
1794.00, 
1795.00, 
1796.00, 
1797.00, 
1798.00, 
1799.00, 
1800.00, 
1801.00, 
1802.00, 
1803.00, 
1804.00, 
1805.00, 
1806.00, 
1807.00, 
1808.00, 
1809.00, 
1810.00, 
1811.00, 
1812.00, 
1813.00, 
1814.00, 
1815.00, 
1816.00, 
1817.00, 
1818.00, 
1819.00, 
1820.00, 
1821.00, 
1822.00, 
1823.00, 
1824.00, 
1825.00, 
1826.00, 
1827.00, 
1828.00, 
1829.00, 
1830.00, 
1831.00, 
1832.00, 
1833.00, 
1834.00, 
1835.00, 
1836.00, 
1837.00, 
1838.00, 
1839.00, 
1840.00, 
1841.00, 
1842.00, 
1843.00, 
1844.00, 
1845.00, 
1846.00, 
1847.00, 
1848.00, 
1849.00, 
1850.00, 
1851.00, 
1852.00, 
1853.00, 
1854.00, 
1855.00, 
1856.00, 
1857.00, 
1858.00, 
1859.00, 
1860.00, 
1861.00, 
1862.00, 
1863.00, 
1864.00, 
1865.00, 
1866.00, 
1867.00, 
1868.00, 
1869.00, 
1870.00, 
1871.00, 
1872.00, 
1873.00, 
1874.00, 
1875.00, 
1876.00, 
1877.00, 
1878.00, 
1879.00, 
1880.00, 
1881.00, 
1882.00, 
1883.00, 
1884.00, 
1885.00, 
1886.00, 
1887.00, 
1888.00, 
1889.00, 
1890.00, 
1891.00, 
1892.00, 
1893.00, 
1894.00, 
1895.00, 
1896.00, 
1897.00, 
1898.00, 
1899.00, 
1900.00, 
1901.00, 
1902.00, 
1903.00, 
1904.00, 
1905.00, 
1906.00, 
1907.00, 
1908.00, 
1909.00, 
1910.00, 
1911.00, 
1912.00, 
1913.00, 
1914.00, 
1915.00, 
1916.00, 
1917.00, 
1918.00, 
1919.00, 
1920.00, 
1921.00, 
1922.00, 
1923.00, 
1924.00, 
1925.00, 
1926.00, 
1927.00, 
1928.00, 
1929.00, 
1930.00, 
1931.00, 
1932.00, 
1933.00, 
1934.00, 
1935.00, 
1936.00, 
1937.00, 
1938.00, 
1939.00, 
1940.00, 
1941.00, 
1942.00, 
1943.00, 
1944.00, 
1945.00, 
1946.00, 
1947.00, 
1948.00, 
1949.00, 
1950.00, 
1951.00, 
1952.00, 
1953.00, 
1954.00, 
1955.00, 
1956.00, 
1957.00, 
1958.00, 
1959.00, 
1960.00, 
1961.00, 
1962.00, 
1963.00, 
1964.00, 
1965.00, 
1966.00, 
1967.00, 
1968.00, 
1969.00, 
1970.00, 
1971.00, 
1972.00, 
1973.00, 
1974.00, 
1975.00, 
1976.00, 
1977.00, 
1978.00, 
1979.00, 
1980.00, 
1981.00, 
1982.00, 
1983.00, 
1984.00, 
1985.00, 
1986.00, 
1987.00, 
1988.00, 
1989.00, 
1990.00, 
1991.00, 
1992.00, 
1993.00, 
1994.00, 
1995.00, 
1996.00, 
1997.00, 
1998.00, 
1999.00, 
2000.00, 
2001.00, 
2002.00, 
2003.00, 
2004.00, 
2005.00, 
2006.00, 
2007.00, 
2008.00, 
2009.00, 
2010.00, 
2011.00, 
2012.00, 
2013.00, 
2014.00, 
2015.00, 
2016.00, 
2017.00, 
2018.00, 
2019.00, 
2020.00, 
2021.00, 
2022.00, 
2023.00, 
2024.00, 
2025.00, 
2026.00, 
2027.00, 
2028.00, 
2029.00, 
2030.00, 
2031.00, 
2032.00, 
2033.00, 
2034.00, 
2035.00, 
2036.00, 
2037.00, 
2038.00, 
2039.00, 
2040.00, 
2041.00, 
2042.00, 
2043.00, 
2044.00, 
2045.00, 
2046.00, 
2047.00, 
2048.00, 
2049.00, 
2050.00, 
2051.00, 
2052.00, 
2053.00, 
2054.00, 
2055.00, 
2056.00, 
2057.00, 
2058.00, 
2059.00, 
2060.00, 
2061.00, 
2062.00, 
2063.00, 
2064.00, 
2065.00, 
2066.00, 
2067.00, 
2068.00, 
2069.00, 
2070.00, 
2071.00, 
2072.00, 
2073.00, 
2074.00, 
2075.00, 
2076.00, 
2077.00, 
2078.00, 
2079.00, 
2080.00, 
2081.00, 
2082.00, 
2083.00, 
2084.00, 
2085.00, 
2086.00, 
2087.00, 
2088.00, 
2089.00, 
2090.00, 
2091.00, 
2092.00, 
2093.00, 
2094.00, 
2095.00, 
2096.00, 
2097.00, 
2098.00, 
2099.00, 
2100.00, 
2101.00, 
2102.00, 
2103.00, 
2104.00, 
2105.00, 
2106.00, 
2107.00, 
2108.00, 
2109.00, 
2110.00, 
2111.00, 
2112.00, 
2113.00, 
2114.00, 
2115.00, 
2116.00, 
2117.00, 
2118.00, 
2119.00, 
2120.00, 
2121.00, 
2122.00, 
2123.00, 
2124.00, 
2125.00, 
2126.00, 
2127.00, 
2128.00, 
2129.00, 
2130.00, 
2131.00, 
2132.00, 
2133.00, 
2134.00, 
2135.00, 
2136.00, 
2137.00, 
2138.00, 
2139.00, 
2140.00, 
2141.00, 
2142.00, 
2143.00, 
2144.00, 
2145.00, 
2146.00, 
2147.00, 
2148.00, 
2149.00, 
2150.00, 
2151.00, 
2152.00, 
2153.00, 
2154.00, 
2155.00, 
2156.00, 
2157.00, 
2158.00, 
2159.00, 
2160.00, 
2161.00, 
2162.00, 
2163.00, 
2164.00, 
2165.00, 
2166.00, 
2167.00, 
2168.00, 
2169.00, 
2170.00, 
2171.00, 
2172.00, 
2173.00, 
2174.00, 
2175.00, 
2176.00, 
2177.00, 
2178.00, 
2179.00, 
2180.00, 
2181.00, 
2182.00, 
2183.00, 
2184.00, 
2185.00, 
2186.00, 
2187.00, 
2188.00, 
2189.00, 
2190.00, 
2191.00, 
2192.00, 
2193.00, 
2194.00, 
2195.00, 
2196.00, 
2197.00, 
2198.00, 
2199.00, 
2200.00, 
2201.00, 
2202.00, 
2203.00, 
2204.00, 
2205.00, 
2206.00, 
2207.00, 
2208.00, 
2209.00, 
2210.00, 
2211.00, 
2212.00, 
2213.00, 
2214.00, 
2215.00, 
2216.00, 
2217.00, 
2218.00, 
2219.00, 
2220.00, 
2221.00, 
2222.00, 
2223.00, 
2224.00, 
2225.00, 
2226.00, 
2227.00, 
2228.00, 
2229.00, 
2230.00, 
2231.00, 
2232.00, 
2233.00, 
2234.00, 
2235.00, 
2236.00, 
2237.00, 
2238.00, 
2239.00, 
2240.00, 
2241.00, 
2242.00, 
2243.00, 
2244.00, 
2245.00, 
2246.00, 
2247.00, 
2248.00, 
2249.00, 
2250.00, 
2251.00, 
2252.00, 
2253.00, 
2254.00, 
2255.00, 
2256.00, 
2257.00, 
2258.00, 
2259.00, 
2260.00, 
2261.00, 
2262.00, 
2263.00, 
2264.00, 
2265.00, 
2266.00, 
2267.00, 
2268.00, 
2269.00, 
2270.00, 
2271.00, 
2272.00, 
2273.00, 
2274.00, 
2275.00, 
2276.00, 
2277.00, 
2278.00, 
2279.00, 
2280.00, 
2281.00, 
2282.00, 
2283.00, 
2284.00, 
2285.00, 
2286.00, 
2287.00, 
2288.00, 
2289.00, 
2290.00, 
2291.00, 
2292.00, 
2293.00, 
2294.00, 
2295.00, 
2296.00, 
2297.00, 
2298.00, 
2299.00, 
2300.00, 
2301.00, 
2302.00, 
2303.00, 
2304.00, 
2305.00, 
2306.00, 
2307.00, 
2308.00, 
2309.00, 
2310.00, 
2311.00, 
2312.00, 
2313.00, 
2314.00, 
2315.00, 
2316.00, 
2317.00, 
2318.00, 
2319.00, 
2320.00, 
2321.00, 
2322.00, 
2323.00, 
2324.00, 
2325.00, 
2326.00, 
2327.00, 
2328.00, 
2329.00, 
2330.00, 
2331.00, 
2332.00, 
2333.00, 
2334.00, 
2335.00, 
2336.00, 
2337.00, 
2338.00, 
2339.00, 
2340.00, 
2341.00, 
2342.00, 
2343.00, 
2344.00, 
2345.00, 
2346.00, 
2347.00, 
2348.00, 
2349.00, 
2350.00, 
2351.00, 
2352.00, 
2353.00, 
2354.00, 
2355.00, 
2356.00, 
2357.00, 
2358.00, 
2359.00, 
2360.00, 
2361.00, 
2362.00, 
2363.00, 
2364.00, 
2365.00, 
2366.00, 
2367.00, 
2368.00, 
2369.00, 
2370.00, 
2371.00, 
2372.00, 
2373.00, 
2374.00, 
2375.00, 
2376.00, 
2377.00, 
2378.00, 
2379.00, 
2380.00, 
2381.00, 
2382.00, 
2383.00, 
2384.00, 
2385.00, 
2386.00, 
2387.00, 
2388.00, 
2389.00, 
2390.00, 
2391.00, 
2392.00, 
2393.00, 
2394.00, 
2395.00, 
2396.00, 
2397.00, 
2398.00, 
2399.00, 
2400.00, 
2401.00, 
2402.00, 
2403.00, 
2404.00, 
2405.00, 
2406.00, 
2407.00, 
2408.00, 
2409.00, 
2410.00, 
2411.00, 
2412.00, 
2413.00, 
2414.00, 
2415.00, 
2416.00, 
2417.00, 
2418.00, 
2419.00, 
2420.00, 
2421.00, 
2422.00, 
2423.00, 
2424.00, 
2425.00, 
2426.00, 
2427.00, 
2428.00, 
2429.00, 
2430.00, 
2431.00, 
2432.00, 
2433.00, 
2434.00, 
2435.00, 
2436.00, 
2437.00, 
2438.00, 
2439.00, 
2440.00, 
2441.00, 
2442.00, 
2443.00, 
2444.00, 
2445.00, 
2446.00, 
2447.00, 
2448.00, 
2449.00, 
2450.00, 
2451.00, 
2452.00, 
2453.00, 
2454.00, 
2455.00, 
2456.00, 
2457.00, 
2458.00, 
2459.00, 
2460.00, 
2461.00, 
2462.00, 
2463.00, 
2464.00, 
2465.00, 
2466.00, 
2467.00, 
2468.00, 
2469.00, 
2470.00, 
2471.00, 
2472.00, 
2473.00, 
2474.00, 
2475.00, 
2476.00, 
2477.00, 
2478.00, 
2479.00, 
2480.00, 
2481.00, 
2482.00, 
2483.00, 
2484.00, 
2485.00, 
2486.00, 
2487.00, 
2488.00, 
2489.00, 
2490.00, 
2491.00, 
2492.00, 
2493.00, 
2494.00, 
2495.00, 
2496.00, 
2497.00, 
2498.00, 
2499.00, 
2500.00, 
2501.00, 
2502.00, 
2503.00, 
2504.00, 
2505.00, 
2506.00, 
2507.00, 
2508.00, 
2509.00, 
2510.00, 
2511.00, 
2512.00, 
2513.00, 
2514.00, 
2515.00, 
2516.00, 
2517.00, 
2518.00, 
2519.00, 
2520.00, 
2521.00, 
2522.00, 
2523.00, 
2524.00, 
2525.00, 
2526.00, 
2527.00, 
2528.00, 
2529.00, 
2530.00, 
2531.00, 
2532.00, 
2533.00, 
2534.00, 
2535.00, 
2536.00, 
2537.00, 
2538.00, 
2539.00, 
2540.00, 
2541.00, 
2542.00, 
2543.00, 
2544.00, 
2545.00, 
2546.00, 
2547.00, 
2548.00, 
2549.00, 
2550.00, 
2551.00, 
2552.00, 
2553.00, 
2554.00, 
2555.00, 
2556.00, 
2557.00, 
2558.00, 
2559.00, 
2560.00, 
2561.00, 
2562.00, 
2563.00, 
2564.00, 
2565.00, 
2566.00, 
2567.00, 
2568.00, 
2569.00, 
2570.00, 
2571.00, 
2572.00, 
2573.00, 
2574.00, 
2575.00, 
2576.00, 
2577.00, 
2578.00, 
2579.00, 
2580.00, 
2581.00, 
2582.00, 
2583.00, 
2584.00, 
2585.00, 
2586.00, 
2587.00, 
2588.00, 
2589.00, 
2590.00, 
2591.00, 
2592.00, 
2593.00, 
2594.00, 
2595.00, 
2596.00, 
2597.00, 
2598.00, 
2599.00, 
2600.00, 
