"2cP3 - RawData"
"Wavelength nm.","T%"
200.00,0.002
201.00,0.003
202.00,-0.001
203.00,-0.001
204.00,0.002
205.00,0.000
206.00,0.004
207.00,0.002
208.00,0.003
209.00,0.003
210.00,0.001
211.00,0.003
212.00,0.003
213.00,-0.000
214.00,0.002
215.00,0.002
216.00,0.001
217.00,0.003
218.00,0.001
219.00,0.002
220.00,0.001
221.00,0.001
222.00,0.000
223.00,0.002
224.00,0.002
225.00,0.003
226.00,0.003
227.00,0.001
228.00,0.004
229.00,0.001
230.00,0.002
231.00,-0.001
232.00,-0.001
233.00,0.000
234.00,0.003
235.00,0.000
236.00,0.000
237.00,0.000
238.00,-0.001
239.00,0.001
240.00,-0.000
241.00,0.001
242.00,0.000
243.00,-0.001
244.00,-0.001
245.00,0.000
246.00,0.000
247.00,0.000
248.00,0.001
249.00,0.001
250.00,-0.000
251.00,0.001
252.00,0.000
253.00,0.000
254.00,0.001
255.00,0.001
256.00,0.001
257.00,-0.001
258.00,0.000
259.00,0.000
260.00,0.001
261.00,0.002
262.00,0.001
263.00,0.002
264.00,-0.001
265.00,-0.001
266.00,-0.000
267.00,-0.001
268.00,0.001
269.00,0.001
270.00,0.000
271.00,0.001
272.00,0.001
273.00,0.001
274.00,-0.001
275.00,0.000
276.00,0.002
277.00,-0.000
278.00,-0.001
279.00,-0.000
280.00,-0.001
281.00,0.000
282.00,0.000
283.00,0.001
284.00,-0.001
285.00,0.001
286.00,0.000
287.00,-0.002
288.00,0.000
289.00,0.001
290.00,0.002
291.00,0.000
292.00,-0.000
293.00,0.001
294.00,0.001
295.00,0.001
296.00,-0.001
297.00,0.001
298.00,0.002
299.00,0.002
300.00,0.003
301.00,0.004
302.00,0.007
303.00,0.012
304.00,0.015
305.00,0.024
306.00,0.040
307.00,0.057
308.00,0.089
309.00,0.136
310.00,0.195
311.00,0.264
312.00,0.362
313.00,0.494
314.00,0.650
315.00,0.852
316.00,1.034
317.00,1.366
318.00,1.687
319.00,2.072
320.00,2.534
321.00,3.045
322.00,3.609
323.00,4.269
324.00,4.914
325.00,5.565
326.00,6.369
327.00,7.198
328.00,8.025
329.00,8.907
330.00,9.826
331.00,10.755
332.00,11.656
333.00,12.645
334.00,13.639
335.00,14.594
336.00,15.583
337.00,16.506
338.00,17.431
339.00,18.372
340.00,19.308
341.00,20.169
342.00,21.025
343.00,21.857
344.00,22.624
345.00,23.415
346.00,24.118
347.00,24.803
348.00,25.494
349.00,26.099
350.00,26.688
351.00,27.204
352.00,27.730
353.00,28.172
354.00,28.694
355.00,29.143
356.00,29.562
357.00,29.953
358.00,30.302
359.00,30.715
360.00,31.064
361.00,31.303
362.00,31.627
363.00,31.946
364.00,32.124
365.00,32.291
366.00,32.596
367.00,32.609
368.00,32.789
369.00,32.961
370.00,33.116
371.00,33.193
372.00,33.265
373.00,33.321
374.00,33.389
375.00,33.461
376.00,33.408
377.00,33.446
378.00,33.380
379.00,33.321
380.00,33.388
381.00,33.433
382.00,33.476
383.00,33.533
384.00,33.629
385.00,33.701
386.00,33.781
387.00,33.889
388.00,34.036
389.00,34.121
390.00,34.225
391.00,34.274
392.00,34.339
393.00,34.384
394.00,34.482
395.00,34.534
396.00,34.567
397.00,34.632
398.00,34.676
399.00,34.667
400.00,34.724
401.00,34.765
402.00,34.778
403.00,34.804
404.00,34.839
405.00,34.852
406.00,34.825
407.00,34.791
408.00,34.825
409.00,34.780
410.00,34.715
411.00,34.688
412.00,34.660
413.00,34.691
414.00,34.704
415.00,34.657
416.00,34.732
417.00,34.714
418.00,34.764
419.00,34.818
420.00,34.880
421.00,34.897
422.00,34.939
423.00,35.022
424.00,35.051
425.00,35.033
426.00,35.082
427.00,35.156
428.00,35.151
429.00,35.180
430.00,35.269
431.00,35.267
432.00,35.278
433.00,35.379
434.00,35.437
435.00,35.464
436.00,35.539
437.00,35.539
438.00,35.614
439.00,35.651
440.00,35.690
441.00,35.779
442.00,35.849
443.00,35.894
444.00,35.978
445.00,36.026
446.00,36.108
447.00,36.193
448.00,36.263
449.00,36.353
450.00,36.383
451.00,36.498
452.00,36.518
453.00,36.665
454.00,36.757
455.00,36.801
456.00,36.902
457.00,37.004
458.00,37.028
459.00,37.134
460.00,37.279
461.00,37.374
462.00,37.395
463.00,37.534
464.00,37.681
465.00,37.709
466.00,37.782
467.00,38.015
468.00,37.910
469.00,38.076
470.00,38.134
471.00,38.163
472.00,38.290
473.00,38.274
474.00,38.377
475.00,38.470
476.00,38.496
477.00,38.607
478.00,38.692
479.00,38.863
480.00,38.933
481.00,39.009
482.00,39.103
483.00,39.238
484.00,39.381
485.00,39.485
486.00,39.617
487.00,39.711
488.00,39.795
489.00,39.876
490.00,40.023
491.00,40.120
492.00,40.177
493.00,40.384
494.00,40.517
495.00,40.485
496.00,40.578
497.00,40.625
498.00,40.745
499.00,40.833
500.00,40.919
501.00,41.007
502.00,41.136
503.00,41.220
504.00,41.193
505.00,41.310
506.00,41.383
507.00,41.473
508.00,41.572
509.00,41.674
510.00,41.794
511.00,41.800
512.00,41.970
513.00,42.072
514.00,42.085
515.00,42.266
516.00,42.302
517.00,42.303
518.00,42.482
519.00,42.440
520.00,42.443
521.00,42.634
522.00,42.661
523.00,42.558
524.00,42.739
525.00,42.873
526.00,42.921
527.00,42.926
528.00,42.984
529.00,43.148
530.00,43.304
531.00,43.395
532.00,43.418
533.00,43.511
534.00,43.620
535.00,43.647
536.00,43.668
537.00,43.752
538.00,43.833
539.00,43.860
540.00,43.873
541.00,43.910
542.00,43.924
543.00,44.008
544.00,44.112
545.00,44.199
546.00,44.176
547.00,44.272
548.00,44.372
549.00,44.516
550.00,44.572
551.00,44.529
552.00,44.590
553.00,44.533
554.00,44.636
555.00,44.641
556.00,44.757
557.00,44.813
558.00,44.815
559.00,44.897
560.00,44.972
561.00,45.022
562.00,45.005
563.00,44.995
564.00,45.144
565.00,45.168
566.00,45.107
567.00,45.135
568.00,45.214
569.00,45.230
570.00,45.306
571.00,45.339
572.00,45.341
573.00,45.309
574.00,45.373
575.00,45.347
576.00,45.329
577.00,45.380
578.00,45.591
579.00,45.701
580.00,45.665
581.00,45.698
582.00,45.821
583.00,45.829
584.00,45.902
585.00,46.026
586.00,46.082
587.00,46.118
588.00,46.118
589.00,46.043
590.00,46.129
591.00,46.214
592.00,46.168
593.00,46.256
594.00,46.325
595.00,46.408
596.00,46.438
597.00,46.467
598.00,46.532
599.00,46.501
600.00,46.584
601.00,46.554
602.00,46.533
603.00,46.536
604.00,46.585
605.00,46.626
606.00,46.659
607.00,46.649
608.00,46.663
609.00,46.719
610.00,47.029
611.00,46.924
612.00,46.789
613.00,46.865
614.00,46.846
615.00,46.973
616.00,47.089
617.00,47.036
618.00,46.951
619.00,46.994
620.00,46.991
621.00,47.109
622.00,47.133
623.00,47.136
624.00,47.226
625.00,47.288
626.00,47.299
627.00,47.350
628.00,47.362
629.00,47.334
630.00,47.334
631.00,47.385
632.00,47.446
633.00,47.522
634.00,47.565
635.00,47.648
636.00,47.679
637.00,47.704
638.00,47.727
639.00,47.826
640.00,47.795
641.00,47.764
642.00,47.806
643.00,47.864
644.00,47.874
645.00,47.934
646.00,48.023
647.00,48.051
648.00,48.072
649.00,48.026
650.00,48.071
651.00,48.216
652.00,48.189
653.00,48.192
654.00,48.187
655.00,48.338
656.00,48.566
657.00,48.376
658.00,48.379
659.00,48.472
660.00,48.600
661.00,48.472
662.00,48.493
663.00,48.548
664.00,48.825
665.00,48.904
666.00,48.738
667.00,48.807
668.00,48.778
669.00,48.917
670.00,49.061
671.00,48.944
672.00,48.901
673.00,48.769
674.00,49.143
675.00,49.393
676.00,49.165
677.00,49.335
678.00,49.039
679.00,49.068
680.00,49.212
681.00,49.444
682.00,49.237
683.00,49.249
684.00,49.439
685.00,49.345
686.00,49.273
687.00,49.406
688.00,49.414
689.00,49.351
690.00,49.553
691.00,49.782
692.00,49.560
693.00,49.434
694.00,49.520
695.00,49.527
696.00,49.768
697.00,49.626
698.00,49.615
699.00,49.956
700.00,49.799
701.00,49.736
702.00,49.807
703.00,50.009
704.00,49.879
705.00,49.883
706.00,49.965
707.00,49.933
708.00,49.756
709.00,50.114
710.00,50.448
711.00,49.904
712.00,49.935
713.00,50.091
714.00,50.215
715.00,50.173
716.00,49.879
717.00,50.181
718.00,50.218
719.00,50.179
720.00,50.224
721.00,54.728
722.00,54.611
723.00,54.766
724.00,54.657
725.00,54.669
726.00,54.613
727.00,54.595
728.00,54.604
729.00,54.527
730.00,54.571
731.00,54.545
732.00,54.449
733.00,54.472
734.00,54.446
735.00,54.418
736.00,54.437
737.00,54.433
738.00,54.391
739.00,54.480
740.00,54.450
741.00,54.326
742.00,54.467
743.00,54.366
744.00,54.304
745.00,54.331
746.00,54.251
747.00,54.195
748.00,54.149
749.00,54.103
750.00,54.109
751.00,54.063
752.00,54.022
753.00,54.007
754.00,53.963
755.00,54.033
756.00,53.999
757.00,53.908
758.00,53.958
759.00,53.884
760.00,53.908
761.00,53.843
762.00,53.775
763.00,53.883
764.00,53.791
765.00,53.731
766.00,53.782
767.00,53.763
768.00,53.695
769.00,53.683
770.00,53.725
771.00,53.683
772.00,53.656
773.00,53.616
774.00,53.675
775.00,53.681
776.00,53.615
777.00,53.587
778.00,53.580
779.00,53.547
780.00,53.484
781.00,53.517
782.00,53.547
783.00,53.434
784.00,53.406
785.00,53.436
786.00,53.378
787.00,53.363
788.00,53.288
789.00,53.333
790.00,53.295
791.00,53.313
792.00,53.247
793.00,53.252
794.00,53.110
795.00,53.215
796.00,53.116
797.00,53.062
798.00,53.011
799.00,52.986
800.00,52.994
801.00,52.911
802.00,52.901
803.00,52.874
804.00,52.858
805.00,52.852
806.00,52.843
807.00,52.800
808.00,52.789
809.00,52.860
810.00,52.745
811.00,52.703
812.00,52.689
813.00,52.639
814.00,52.623
815.00,52.663
816.00,52.659
817.00,52.505
818.00,52.523
819.00,52.512
820.00,52.434
821.00,52.455
822.00,52.433
823.00,52.412
824.00,52.333
825.00,52.347
826.00,52.445
827.00,52.376
828.00,52.359
829.00,52.286
830.00,52.328
831.00,54.828
832.00,54.810
833.00,54.748
834.00,54.802
835.00,54.712
836.00,54.739
837.00,54.698
838.00,54.686
839.00,54.639
840.00,54.585
841.00,54.599
842.00,54.580
843.00,54.549
844.00,54.520
845.00,54.486
846.00,54.467
847.00,54.435
848.00,54.425
849.00,54.349
850.00,54.308
851.00,54.256
852.00,54.254
853.00,54.197
854.00,54.170
855.00,54.135
856.00,54.098
857.00,54.083
858.00,54.067
859.00,54.010
860.00,54.024
861.00,53.999
862.00,53.945
863.00,53.946
864.00,53.901
865.00,53.935
866.00,53.907
867.00,53.897
868.00,53.821
869.00,53.802
870.00,53.793
871.00,53.778
872.00,53.757
873.00,53.765
874.00,53.767
875.00,53.742
876.00,53.757
877.00,53.731
878.00,53.726
879.00,53.697
880.00,53.690
881.00,53.643
882.00,53.683
883.00,53.623
884.00,53.565
885.00,53.531
886.00,53.612
887.00,53.543
888.00,53.503
889.00,53.462
890.00,53.461
891.00,53.414
892.00,53.409
893.00,53.377
894.00,53.379
895.00,53.337
896.00,53.319
897.00,53.301
898.00,53.285
899.00,53.246
900.00,53.241
901.00,53.219
902.00,53.220
903.00,53.197
904.00,53.170
905.00,53.180
906.00,53.152
907.00,53.146
908.00,53.065
909.00,53.068
910.00,53.050
911.00,53.009
912.00,53.024
913.00,53.033
914.00,52.963
915.00,52.913
916.00,52.910
917.00,52.882
918.00,52.867
919.00,52.844
920.00,52.789
921.00,52.764
922.00,52.769
923.00,52.746
924.00,52.738
925.00,52.698
926.00,52.875
927.00,52.687
928.00,52.654
929.00,52.661
930.00,52.637
931.00,52.613
932.00,52.578
933.00,52.588
934.00,52.547
935.00,52.535
936.00,52.517
937.00,52.484
938.00,52.459
939.00,52.448
940.00,52.378
941.00,52.445
942.00,52.385
943.00,52.377
944.00,52.339
945.00,52.327
946.00,52.314
947.00,52.297
948.00,52.266
949.00,52.246
950.00,52.216
951.00,52.198
952.00,52.169
953.00,52.130
954.00,52.112
955.00,52.072
956.00,52.047
957.00,52.024
958.00,52.026
959.00,51.973
960.00,51.960
961.00,51.966
962.00,51.954
963.00,51.903
964.00,51.888
965.00,51.899
966.00,51.875
967.00,51.861
968.00,51.848
969.00,51.878
970.00,51.844
971.00,51.848
972.00,51.823
973.00,51.847
974.00,51.867
975.00,51.833
976.00,51.862
977.00,51.846
978.00,51.870
979.00,51.832
980.00,51.842
981.00,51.849
982.00,51.827
983.00,51.826
984.00,51.811
985.00,51.808
986.00,51.734
987.00,51.835
988.00,51.753
989.00,51.743
990.00,51.741
991.00,51.722
992.00,51.729
993.00,51.719
994.00,51.691
995.00,51.679
996.00,51.667
997.00,51.662
998.00,51.644
999.00,51.659
1000.00,51.600
1001.00,51.612
1002.00,51.637
1003.00,51.571
1004.00,51.553
1005.00,51.524
1006.00,51.549
1007.00,51.514
1008.00,51.504
1009.00,51.492
1010.00,51.478
1011.00,51.469
1012.00,51.439
1013.00,51.447
1014.00,51.393
1015.00,51.415
1016.00,51.369
1017.00,51.352
1018.00,51.355
1019.00,51.316
1020.00,51.320
1021.00,51.312
1022.00,51.307
1023.00,51.257
1024.00,51.262
1025.00,51.251
1026.00,51.237
1027.00,51.216
1028.00,51.193
1029.00,51.187
1030.00,51.156
1031.00,51.168
1032.00,51.119
1033.00,51.118
1034.00,51.103
1035.00,51.056
1036.00,51.035
1037.00,51.019
1038.00,51.007
1039.00,50.971
1040.00,50.965
1041.00,50.934
1042.00,50.936
1043.00,50.906
1044.00,50.934
1045.00,50.927
1046.00,50.909
1047.00,50.916
1048.00,50.935
1049.00,50.959
1050.00,50.939
1051.00,50.969
1052.00,50.982
1053.00,50.989
1054.00,50.969
1055.00,50.978
1056.00,50.984
1057.00,50.992
1058.00,50.976
1059.00,50.955
1060.00,50.964
1061.00,50.949
1062.00,50.934
1063.00,50.947
1064.00,50.968
1065.00,50.973
1066.00,50.919
1067.00,50.923
1068.00,50.943
1069.00,50.901
1070.00,50.870
1071.00,50.864
1072.00,50.882
1073.00,50.860
1074.00,50.861
1075.00,50.844
1076.00,50.841
1077.00,50.841
1078.00,50.824
1079.00,50.812
1080.00,50.812
1081.00,50.794
1082.00,50.792
1083.00,50.782
1084.00,50.768
1085.00,50.764
1086.00,50.749
1087.00,50.735
1088.00,50.725
1089.00,50.727
1090.00,50.748
1091.00,50.702
1092.00,50.707
1093.00,50.693
1094.00,50.668
1095.00,50.661
1096.00,50.639
1097.00,50.639
1098.00,50.628
1099.00,50.610
1100.00,50.615
1101.00,50.597
1102.00,50.595
1103.00,50.617
1104.00,50.587
1105.00,50.579
1106.00,50.578
1107.00,50.562
1108.00,50.562
1109.00,50.554
1110.00,50.543
1111.00,50.522
1112.00,50.505
1113.00,50.498
1114.00,50.496
1115.00,50.493
1116.00,50.473
1117.00,50.458
1118.00,50.453
1119.00,50.456
1120.00,50.461
1121.00,50.440
1122.00,50.436
1123.00,50.439
1124.00,50.446
1125.00,50.457
1126.00,50.413
1127.00,50.401
1128.00,50.386
1129.00,50.384
1130.00,50.378
1131.00,50.366
1132.00,50.345
1133.00,50.353
1134.00,50.356
1135.00,50.335
1136.00,50.330
1137.00,50.331
1138.00,50.339
1139.00,50.341
1140.00,50.329
1141.00,50.351
1142.00,50.310
1143.00,50.305
1144.00,50.283
1145.00,50.277
1146.00,50.290
1147.00,50.277
1148.00,50.266
1149.00,50.284
1150.00,50.283
1151.00,50.267
1152.00,50.253
1153.00,50.253
1154.00,50.240
1155.00,50.255
1156.00,50.265
1157.00,50.249
1158.00,50.246
1159.00,50.234
1160.00,50.232
1161.00,50.230
1162.00,50.212
1163.00,50.215
1164.00,50.210
1165.00,50.210
1166.00,50.215
1167.00,50.204
1168.00,50.225
1169.00,50.222
1170.00,50.227
1171.00,50.205
1172.00,50.199
1173.00,50.192
1174.00,50.194
1175.00,50.187
1176.00,50.185
1177.00,50.183
1178.00,50.179
1179.00,50.185
1180.00,50.169
1181.00,50.198
1182.00,50.203
1183.00,50.176
1184.00,50.172
1185.00,50.191
1186.00,50.180
1187.00,50.163
1188.00,50.166
1189.00,50.163
1190.00,50.155
1191.00,50.154
1192.00,50.178
1193.00,50.158
1194.00,50.166
1195.00,50.147
1196.00,50.171
1197.00,50.168
1198.00,50.150
1199.00,50.158
1200.00,50.153
1201.00,50.166
1202.00,50.154
1203.00,50.156
1204.00,50.137
1205.00,50.148
1206.00,50.142
1207.00,50.147
1208.00,50.111
1209.00,50.112
1210.00,50.121
1211.00,50.124
1212.00,50.151
1213.00,50.106
1214.00,50.133
1215.00,50.110
1216.00,50.119
1217.00,50.137
1218.00,50.111
1219.00,50.138
1220.00,50.114
1221.00,50.128
1222.00,50.109
1223.00,50.118
1224.00,50.119
1225.00,50.105
1226.00,50.103
1227.00,50.095
1228.00,50.121
1229.00,50.139
1230.00,50.155
1231.00,50.137
1232.00,50.152
1233.00,50.170
1234.00,50.165
1235.00,50.163
1236.00,50.158
1237.00,50.150
1238.00,50.158
1239.00,50.164
1240.00,50.155
1241.00,50.153
1242.00,50.155
1243.00,50.181
1244.00,50.165
1245.00,50.182
1246.00,50.196
1247.00,50.190
1248.00,50.185
1249.00,50.193
1250.00,50.198
1251.00,50.195
1252.00,50.201
1253.00,50.180
1254.00,50.210
1255.00,50.196
1256.00,50.163
1257.00,50.167
1258.00,50.215
1259.00,50.212
1260.00,50.221
1261.00,50.229
1262.00,50.219
1263.00,50.224
1264.00,50.237
1265.00,50.235
1266.00,50.236
1267.00,50.242
1268.00,50.259
1269.00,50.244
1270.00,50.248
1271.00,50.256
1272.00,50.253
1273.00,50.255
1274.00,50.247
1275.00,50.250
1276.00,50.254
1277.00,50.274
1278.00,50.301
1279.00,50.281
1280.00,50.285
1281.00,50.302
1282.00,50.312
1283.00,50.287
1284.00,50.301
1285.00,50.283
1286.00,50.292
1287.00,50.307
1288.00,50.314
1289.00,50.299
1290.00,50.326
1291.00,50.339
1292.00,50.346
1293.00,50.348
1294.00,50.347
1295.00,50.357
1296.00,50.343
1297.00,50.362
1298.00,50.375
1299.00,50.353
1300.00,50.352
1301.00,50.365
1302.00,50.395
1303.00,50.396
1304.00,50.361
1305.00,50.391
1306.00,50.407
1307.00,50.411
1308.00,50.410
1309.00,50.405
1310.00,50.429
1311.00,50.426
1312.00,50.425
1313.00,50.435
1314.00,50.444
1315.00,50.462
1316.00,50.447
1317.00,50.482
1318.00,50.480
1319.00,50.472
1320.00,50.493
1321.00,50.652
1322.00,50.634
1323.00,50.613
1324.00,50.608
1325.00,50.590
1326.00,50.625
1327.00,50.614
1328.00,50.608
1329.00,50.608
1330.00,50.607
1331.00,50.618
1332.00,50.604
1333.00,50.612
1334.00,50.642
1335.00,50.665
1336.00,50.687
1337.00,50.716
1338.00,50.779
1339.00,50.825
1340.00,50.887
1341.00,50.938
1342.00,51.009
1343.00,51.060
1344.00,51.093
1345.00,51.167
1346.00,51.176
1347.00,51.227
1348.00,51.259
1349.00,51.249
1350.00,51.290
1351.00,51.312
1352.00,51.301
1353.00,51.348
1354.00,51.339
1355.00,51.285
1356.00,51.348
1357.00,51.343
1358.00,51.368
1359.00,51.398
1360.00,51.366
1361.00,51.431
1362.00,51.431
1363.00,51.353
1364.00,51.329
1365.00,51.371
1366.00,51.303
1367.00,51.223
1368.00,51.334
1369.00,51.312
1370.00,51.351
1371.00,51.324
1372.00,51.319
1373.00,51.313
1374.00,51.322
1375.00,51.333
1376.00,51.307
1377.00,51.273
1378.00,51.339
1379.00,51.327
1380.00,51.330
1381.00,51.365
1382.00,51.321
1383.00,51.348
1384.00,51.325
1385.00,51.276
1386.00,51.305
1387.00,51.334
1388.00,51.280
1389.00,51.283
1390.00,51.303
1391.00,51.271
1392.00,51.336
1393.00,51.368
1394.00,51.326
1395.00,51.375
1396.00,51.273
1397.00,51.291
1398.00,50.944
1399.00,51.338
1400.00,51.331
1401.00,51.323
1402.00,51.376
1403.00,51.289
1404.00,51.351
1405.00,51.333
1406.00,51.369
1407.00,51.374
1408.00,51.405
1409.00,51.367
1410.00,51.396
1411.00,51.379
1412.00,51.449
1413.00,51.396
1414.00,51.375
1415.00,51.435
1416.00,51.440
1417.00,51.473
1418.00,51.464
1419.00,51.463
1420.00,51.463
1421.00,51.496
1422.00,51.505
1423.00,51.514
1424.00,51.527
1425.00,51.532
1426.00,51.574
1427.00,51.567
1428.00,51.564
1429.00,51.589
1430.00,51.602
1431.00,51.618
1432.00,51.631
1433.00,51.651
1434.00,51.664
1435.00,51.685
1436.00,51.702
1437.00,51.692
1438.00,51.700
1439.00,51.736
1440.00,51.740
1441.00,51.755
1442.00,51.749
1443.00,51.821
1444.00,51.867
1445.00,51.787
1446.00,51.814
1447.00,51.844
1448.00,51.873
1449.00,51.864
1450.00,51.881
1451.00,51.884
1452.00,51.898
1453.00,51.908
1454.00,51.916
1455.00,51.947
1456.00,51.967
1457.00,51.970
1458.00,51.992
1459.00,52.002
1460.00,52.012
1461.00,52.034
1462.00,52.060
1463.00,52.073
1464.00,52.087
1465.00,52.093
1466.00,52.095
1467.00,52.109
1468.00,52.175
1469.00,52.164
1470.00,52.161
1471.00,52.192
1472.00,52.211
1473.00,52.218
1474.00,52.237
1475.00,52.250
1476.00,52.254
1477.00,52.235
1478.00,52.272
1479.00,52.285
1480.00,52.283
1481.00,52.299
1482.00,52.323
1483.00,52.325
1484.00,52.328
1485.00,52.353
1486.00,52.357
1487.00,52.373
1488.00,52.399
1489.00,52.408
1490.00,52.414
1491.00,52.419
1492.00,52.452
1493.00,52.443
1494.00,52.466
1495.00,52.473
1496.00,52.475
1497.00,52.492
1498.00,52.484
1499.00,52.522
1500.00,52.555
1501.00, 
1502.00, 
1503.00, 
1504.00, 
1505.00, 
1506.00, 
1507.00, 
1508.00, 
1509.00, 
1510.00, 
1511.00, 
1512.00, 
1513.00, 
1514.00, 
1515.00, 
1516.00, 
1517.00, 
1518.00, 
1519.00, 
1520.00, 
1521.00, 
1522.00, 
1523.00, 
1524.00, 
1525.00, 
1526.00, 
1527.00, 
1528.00, 
1529.00, 
1530.00, 
1531.00, 
1532.00, 
1533.00, 
1534.00, 
1535.00, 
1536.00, 
1537.00, 
1538.00, 
1539.00, 
1540.00, 
1541.00, 
1542.00, 
1543.00, 
1544.00, 
1545.00, 
1546.00, 
1547.00, 
1548.00, 
1549.00, 
1550.00, 
1551.00, 
1552.00, 
1553.00, 
1554.00, 
1555.00, 
1556.00, 
1557.00, 
1558.00, 
1559.00, 
1560.00, 
1561.00, 
1562.00, 
1563.00, 
1564.00, 
1565.00, 
1566.00, 
1567.00, 
1568.00, 
1569.00, 
1570.00, 
1571.00, 
1572.00, 
1573.00, 
1574.00, 
1575.00, 
1576.00, 
1577.00, 
1578.00, 
1579.00, 
1580.00, 
1581.00, 
1582.00, 
1583.00, 
1584.00, 
1585.00, 
1586.00, 
1587.00, 
1588.00, 
1589.00, 
1590.00, 
1591.00, 
1592.00, 
1593.00, 
1594.00, 
1595.00, 
1596.00, 
1597.00, 
1598.00, 
1599.00, 
1600.00, 
1601.00, 
1602.00, 
1603.00, 
1604.00, 
1605.00, 
1606.00, 
1607.00, 
1608.00, 
1609.00, 
1610.00, 
1611.00, 
1612.00, 
1613.00, 
1614.00, 
1615.00, 
1616.00, 
1617.00, 
1618.00, 
1619.00, 
1620.00, 
1621.00, 
1622.00, 
1623.00, 
1624.00, 
1625.00, 
1626.00, 
1627.00, 
1628.00, 
1629.00, 
1630.00, 
1631.00, 
1632.00, 
1633.00, 
1634.00, 
1635.00, 
1636.00, 
1637.00, 
1638.00, 
1639.00, 
1640.00, 
1641.00, 
1642.00, 
1643.00, 
1644.00, 
1645.00, 
1646.00, 
1647.00, 
1648.00, 
1649.00, 
1650.00, 
1651.00, 
1652.00, 
1653.00, 
1654.00, 
1655.00, 
1656.00, 
1657.00, 
1658.00, 
1659.00, 
1660.00, 
1661.00, 
1662.00, 
1663.00, 
1664.00, 
1665.00, 
1666.00, 
1667.00, 
1668.00, 
1669.00, 
1670.00, 
1671.00, 
1672.00, 
1673.00, 
1674.00, 
1675.00, 
1676.00, 
1677.00, 
1678.00, 
1679.00, 
1680.00, 
1681.00, 
1682.00, 
1683.00, 
1684.00, 
1685.00, 
1686.00, 
1687.00, 
1688.00, 
1689.00, 
1690.00, 
1691.00, 
1692.00, 
1693.00, 
1694.00, 
1695.00, 
1696.00, 
1697.00, 
1698.00, 
1699.00, 
1700.00, 
1701.00, 
1702.00, 
1703.00, 
1704.00, 
1705.00, 
1706.00, 
1707.00, 
1708.00, 
1709.00, 
1710.00, 
1711.00, 
1712.00, 
1713.00, 
1714.00, 
1715.00, 
1716.00, 
1717.00, 
1718.00, 
1719.00, 
1720.00, 
1721.00, 
1722.00, 
1723.00, 
1724.00, 
1725.00, 
1726.00, 
1727.00, 
1728.00, 
1729.00, 
1730.00, 
1731.00, 
1732.00, 
1733.00, 
1734.00, 
1735.00, 
1736.00, 
1737.00, 
1738.00, 
1739.00, 
1740.00, 
1741.00, 
1742.00, 
1743.00, 
1744.00, 
1745.00, 
1746.00, 
1747.00, 
1748.00, 
1749.00, 
1750.00, 
1751.00, 
1752.00, 
1753.00, 
1754.00, 
1755.00, 
1756.00, 
1757.00, 
1758.00, 
1759.00, 
1760.00, 
1761.00, 
1762.00, 
1763.00, 
1764.00, 
1765.00, 
1766.00, 
1767.00, 
1768.00, 
1769.00, 
1770.00, 
1771.00, 
1772.00, 
1773.00, 
1774.00, 
1775.00, 
1776.00, 
1777.00, 
1778.00, 
1779.00, 
1780.00, 
1781.00, 
1782.00, 
1783.00, 
1784.00, 
1785.00, 
1786.00, 
1787.00, 
1788.00, 
1789.00, 
1790.00, 
1791.00, 
1792.00, 
1793.00, 
1794.00, 
1795.00, 
1796.00, 
1797.00, 
1798.00, 
1799.00, 
1800.00, 
1801.00, 
1802.00, 
1803.00, 
1804.00, 
1805.00, 
1806.00, 
1807.00, 
1808.00, 
1809.00, 
1810.00, 
1811.00, 
1812.00, 
1813.00, 
1814.00, 
1815.00, 
1816.00, 
1817.00, 
1818.00, 
1819.00, 
1820.00, 
1821.00, 
1822.00, 
1823.00, 
1824.00, 
1825.00, 
1826.00, 
1827.00, 
1828.00, 
1829.00, 
1830.00, 
1831.00, 
1832.00, 
1833.00, 
1834.00, 
1835.00, 
1836.00, 
1837.00, 
1838.00, 
1839.00, 
1840.00, 
1841.00, 
1842.00, 
1843.00, 
1844.00, 
1845.00, 
1846.00, 
1847.00, 
1848.00, 
1849.00, 
1850.00, 
1851.00, 
1852.00, 
1853.00, 
1854.00, 
1855.00, 
1856.00, 
1857.00, 
1858.00, 
1859.00, 
1860.00, 
1861.00, 
1862.00, 
1863.00, 
1864.00, 
1865.00, 
1866.00, 
1867.00, 
1868.00, 
1869.00, 
1870.00, 
1871.00, 
1872.00, 
1873.00, 
1874.00, 
1875.00, 
1876.00, 
1877.00, 
1878.00, 
1879.00, 
1880.00, 
1881.00, 
1882.00, 
1883.00, 
1884.00, 
1885.00, 
1886.00, 
1887.00, 
1888.00, 
1889.00, 
1890.00, 
1891.00, 
1892.00, 
1893.00, 
1894.00, 
1895.00, 
1896.00, 
1897.00, 
1898.00, 
1899.00, 
1900.00, 
1901.00, 
1902.00, 
1903.00, 
1904.00, 
1905.00, 
1906.00, 
1907.00, 
1908.00, 
1909.00, 
1910.00, 
1911.00, 
1912.00, 
1913.00, 
1914.00, 
1915.00, 
1916.00, 
1917.00, 
1918.00, 
1919.00, 
1920.00, 
1921.00, 
1922.00, 
1923.00, 
1924.00, 
1925.00, 
1926.00, 
1927.00, 
1928.00, 
1929.00, 
1930.00, 
1931.00, 
1932.00, 
1933.00, 
1934.00, 
1935.00, 
1936.00, 
1937.00, 
1938.00, 
1939.00, 
1940.00, 
1941.00, 
1942.00, 
1943.00, 
1944.00, 
1945.00, 
1946.00, 
1947.00, 
1948.00, 
1949.00, 
1950.00, 
1951.00, 
1952.00, 
1953.00, 
1954.00, 
1955.00, 
1956.00, 
1957.00, 
1958.00, 
1959.00, 
1960.00, 
1961.00, 
1962.00, 
1963.00, 
1964.00, 
1965.00, 
1966.00, 
1967.00, 
1968.00, 
1969.00, 
1970.00, 
1971.00, 
1972.00, 
1973.00, 
1974.00, 
1975.00, 
1976.00, 
1977.00, 
1978.00, 
1979.00, 
1980.00, 
1981.00, 
1982.00, 
1983.00, 
1984.00, 
1985.00, 
1986.00, 
1987.00, 
1988.00, 
1989.00, 
1990.00, 
1991.00, 
1992.00, 
1993.00, 
1994.00, 
1995.00, 
1996.00, 
1997.00, 
1998.00, 
1999.00, 
2000.00, 
2001.00, 
2002.00, 
2003.00, 
2004.00, 
2005.00, 
2006.00, 
2007.00, 
2008.00, 
2009.00, 
2010.00, 
2011.00, 
2012.00, 
2013.00, 
2014.00, 
2015.00, 
2016.00, 
2017.00, 
2018.00, 
2019.00, 
2020.00, 
2021.00, 
2022.00, 
2023.00, 
2024.00, 
2025.00, 
2026.00, 
2027.00, 
2028.00, 
2029.00, 
2030.00, 
2031.00, 
2032.00, 
2033.00, 
2034.00, 
2035.00, 
2036.00, 
2037.00, 
2038.00, 
2039.00, 
2040.00, 
2041.00, 
2042.00, 
2043.00, 
2044.00, 
2045.00, 
2046.00, 
2047.00, 
2048.00, 
2049.00, 
2050.00, 
2051.00, 
2052.00, 
2053.00, 
2054.00, 
2055.00, 
2056.00, 
2057.00, 
2058.00, 
2059.00, 
2060.00, 
2061.00, 
2062.00, 
2063.00, 
2064.00, 
2065.00, 
2066.00, 
2067.00, 
2068.00, 
2069.00, 
2070.00, 
2071.00, 
2072.00, 
2073.00, 
2074.00, 
2075.00, 
2076.00, 
2077.00, 
2078.00, 
2079.00, 
2080.00, 
2081.00, 
2082.00, 
2083.00, 
2084.00, 
2085.00, 
2086.00, 
2087.00, 
2088.00, 
2089.00, 
2090.00, 
2091.00, 
2092.00, 
2093.00, 
2094.00, 
2095.00, 
2096.00, 
2097.00, 
2098.00, 
2099.00, 
2100.00, 
2101.00, 
2102.00, 
2103.00, 
2104.00, 
2105.00, 
2106.00, 
2107.00, 
2108.00, 
2109.00, 
2110.00, 
2111.00, 
2112.00, 
2113.00, 
2114.00, 
2115.00, 
2116.00, 
2117.00, 
2118.00, 
2119.00, 
2120.00, 
2121.00, 
2122.00, 
2123.00, 
2124.00, 
2125.00, 
2126.00, 
2127.00, 
2128.00, 
2129.00, 
2130.00, 
2131.00, 
2132.00, 
2133.00, 
2134.00, 
2135.00, 
2136.00, 
2137.00, 
2138.00, 
2139.00, 
2140.00, 
2141.00, 
2142.00, 
2143.00, 
2144.00, 
2145.00, 
2146.00, 
2147.00, 
2148.00, 
2149.00, 
2150.00, 
2151.00, 
2152.00, 
2153.00, 
2154.00, 
2155.00, 
2156.00, 
2157.00, 
2158.00, 
2159.00, 
2160.00, 
2161.00, 
2162.00, 
2163.00, 
2164.00, 
2165.00, 
2166.00, 
2167.00, 
2168.00, 
2169.00, 
2170.00, 
2171.00, 
2172.00, 
2173.00, 
2174.00, 
2175.00, 
2176.00, 
2177.00, 
2178.00, 
2179.00, 
2180.00, 
2181.00, 
2182.00, 
2183.00, 
2184.00, 
2185.00, 
2186.00, 
2187.00, 
2188.00, 
2189.00, 
2190.00, 
2191.00, 
2192.00, 
2193.00, 
2194.00, 
2195.00, 
2196.00, 
2197.00, 
2198.00, 
2199.00, 
2200.00, 
2201.00, 
2202.00, 
2203.00, 
2204.00, 
2205.00, 
2206.00, 
2207.00, 
2208.00, 
2209.00, 
2210.00, 
2211.00, 
2212.00, 
2213.00, 
2214.00, 
2215.00, 
2216.00, 
2217.00, 
2218.00, 
2219.00, 
2220.00, 
2221.00, 
2222.00, 
2223.00, 
2224.00, 
2225.00, 
2226.00, 
2227.00, 
2228.00, 
2229.00, 
2230.00, 
2231.00, 
2232.00, 
2233.00, 
2234.00, 
2235.00, 
2236.00, 
2237.00, 
2238.00, 
2239.00, 
2240.00, 
2241.00, 
2242.00, 
2243.00, 
2244.00, 
2245.00, 
2246.00, 
2247.00, 
2248.00, 
2249.00, 
2250.00, 
2251.00, 
2252.00, 
2253.00, 
2254.00, 
2255.00, 
2256.00, 
2257.00, 
2258.00, 
2259.00, 
2260.00, 
2261.00, 
2262.00, 
2263.00, 
2264.00, 
2265.00, 
2266.00, 
2267.00, 
2268.00, 
2269.00, 
2270.00, 
2271.00, 
2272.00, 
2273.00, 
2274.00, 
2275.00, 
2276.00, 
2277.00, 
2278.00, 
2279.00, 
2280.00, 
2281.00, 
2282.00, 
2283.00, 
2284.00, 
2285.00, 
2286.00, 
2287.00, 
2288.00, 
2289.00, 
2290.00, 
2291.00, 
2292.00, 
2293.00, 
2294.00, 
2295.00, 
2296.00, 
2297.00, 
2298.00, 
2299.00, 
2300.00, 
2301.00, 
2302.00, 
2303.00, 
2304.00, 
2305.00, 
2306.00, 
2307.00, 
2308.00, 
2309.00, 
2310.00, 
2311.00, 
2312.00, 
2313.00, 
2314.00, 
2315.00, 
2316.00, 
2317.00, 
2318.00, 
2319.00, 
2320.00, 
2321.00, 
2322.00, 
2323.00, 
2324.00, 
2325.00, 
2326.00, 
2327.00, 
2328.00, 
2329.00, 
2330.00, 
2331.00, 
2332.00, 
2333.00, 
2334.00, 
2335.00, 
2336.00, 
2337.00, 
2338.00, 
2339.00, 
2340.00, 
2341.00, 
2342.00, 
2343.00, 
2344.00, 
2345.00, 
2346.00, 
2347.00, 
2348.00, 
2349.00, 
2350.00, 
2351.00, 
2352.00, 
2353.00, 
2354.00, 
2355.00, 
2356.00, 
2357.00, 
2358.00, 
2359.00, 
2360.00, 
2361.00, 
2362.00, 
2363.00, 
2364.00, 
2365.00, 
2366.00, 
2367.00, 
2368.00, 
2369.00, 
2370.00, 
2371.00, 
2372.00, 
2373.00, 
2374.00, 
2375.00, 
2376.00, 
2377.00, 
2378.00, 
2379.00, 
2380.00, 
2381.00, 
2382.00, 
2383.00, 
2384.00, 
2385.00, 
2386.00, 
2387.00, 
2388.00, 
2389.00, 
2390.00, 
2391.00, 
2392.00, 
2393.00, 
2394.00, 
2395.00, 
2396.00, 
2397.00, 
2398.00, 
2399.00, 
2400.00, 
2401.00, 
2402.00, 
2403.00, 
2404.00, 
2405.00, 
2406.00, 
2407.00, 
2408.00, 
2409.00, 
2410.00, 
2411.00, 
2412.00, 
2413.00, 
2414.00, 
2415.00, 
2416.00, 
2417.00, 
2418.00, 
2419.00, 
2420.00, 
2421.00, 
2422.00, 
2423.00, 
2424.00, 
2425.00, 
2426.00, 
2427.00, 
2428.00, 
2429.00, 
2430.00, 
2431.00, 
2432.00, 
2433.00, 
2434.00, 
2435.00, 
2436.00, 
2437.00, 
2438.00, 
2439.00, 
2440.00, 
2441.00, 
2442.00, 
2443.00, 
2444.00, 
2445.00, 
2446.00, 
2447.00, 
2448.00, 
2449.00, 
2450.00, 
2451.00, 
2452.00, 
2453.00, 
2454.00, 
2455.00, 
2456.00, 
2457.00, 
2458.00, 
2459.00, 
2460.00, 
2461.00, 
2462.00, 
2463.00, 
2464.00, 
2465.00, 
2466.00, 
2467.00, 
2468.00, 
2469.00, 
2470.00, 
2471.00, 
2472.00, 
2473.00, 
2474.00, 
2475.00, 
2476.00, 
2477.00, 
2478.00, 
2479.00, 
2480.00, 
2481.00, 
2482.00, 
2483.00, 
2484.00, 
2485.00, 
2486.00, 
2487.00, 
2488.00, 
2489.00, 
2490.00, 
2491.00, 
2492.00, 
2493.00, 
2494.00, 
2495.00, 
2496.00, 
2497.00, 
2498.00, 
2499.00, 
2500.00, 
2501.00, 
2502.00, 
2503.00, 
2504.00, 
2505.00, 
2506.00, 
2507.00, 
2508.00, 
2509.00, 
2510.00, 
2511.00, 
2512.00, 
2513.00, 
2514.00, 
2515.00, 
2516.00, 
2517.00, 
2518.00, 
2519.00, 
2520.00, 
2521.00, 
2522.00, 
2523.00, 
2524.00, 
2525.00, 
2526.00, 
2527.00, 
2528.00, 
2529.00, 
2530.00, 
2531.00, 
2532.00, 
2533.00, 
2534.00, 
2535.00, 
2536.00, 
2537.00, 
2538.00, 
2539.00, 
2540.00, 
2541.00, 
2542.00, 
2543.00, 
2544.00, 
2545.00, 
2546.00, 
2547.00, 
2548.00, 
2549.00, 
2550.00, 
2551.00, 
2552.00, 
2553.00, 
2554.00, 
2555.00, 
2556.00, 
2557.00, 
2558.00, 
2559.00, 
2560.00, 
2561.00, 
2562.00, 
2563.00, 
2564.00, 
2565.00, 
2566.00, 
2567.00, 
2568.00, 
2569.00, 
2570.00, 
2571.00, 
2572.00, 
2573.00, 
2574.00, 
2575.00, 
2576.00, 
2577.00, 
2578.00, 
2579.00, 
2580.00, 
2581.00, 
2582.00, 
2583.00, 
2584.00, 
2585.00, 
2586.00, 
2587.00, 
2588.00, 
2589.00, 
2590.00, 
2591.00, 
2592.00, 
2593.00, 
2594.00, 
2595.00, 
2596.00, 
2597.00, 
2598.00, 
2599.00, 
2600.00, 
