"1aP2 - RawData"
"Wavelength nm.","T%"
200.00,0.002
201.00,0.000
202.00,0.004
203.00,0.001
204.00,0.003
205.00,0.001
206.00,0.001
207.00,0.001
208.00,0.003
209.00,0.002
210.00,0.004
211.00,-0.000
212.00,-0.001
213.00,0.000
214.00,-0.000
215.00,0.001
216.00,-0.001
217.00,0.001
218.00,0.002
219.00,0.002
220.00,0.003
221.00,-0.002
222.00,0.001
223.00,0.001
224.00,-0.001
225.00,-0.001
226.00,0.001
227.00,-0.001
228.00,-0.003
229.00,-0.000
230.00,0.001
231.00,0.001
232.00,-0.001
233.00,-0.000
234.00,0.000
235.00,0.000
236.00,0.001
237.00,-0.001
238.00,0.001
239.00,0.001
240.00,0.000
241.00,-0.001
242.00,0.001
243.00,0.001
244.00,-0.000
245.00,0.001
246.00,0.001
247.00,0.001
248.00,0.003
249.00,0.002
250.00,0.000
251.00,-0.000
252.00,0.000
253.00,0.002
254.00,-0.001
255.00,-0.002
256.00,0.000
257.00,-0.001
258.00,-0.001
259.00,0.001
260.00,0.001
261.00,-0.001
262.00,0.000
263.00,-0.002
264.00,-0.000
265.00,0.001
266.00,0.001
267.00,-0.002
268.00,0.001
269.00,0.000
270.00,0.001
271.00,-0.000
272.00,-0.002
273.00,0.000
274.00,0.001
275.00,0.001
276.00,0.001
277.00,0.000
278.00,-0.002
279.00,-0.001
280.00,-0.001
281.00,0.001
282.00,0.001
283.00,0.000
284.00,-0.000
285.00,-0.001
286.00,-0.001
287.00,-0.000
288.00,0.001
289.00,0.001
290.00,0.002
291.00,-0.001
292.00,0.000
293.00,-0.000
294.00,-0.001
295.00,-0.001
296.00,0.001
297.00,0.001
298.00,0.001
299.00,0.002
300.00,0.004
301.00,0.005
302.00,0.011
303.00,0.012
304.00,0.019
305.00,0.028
306.00,0.045
307.00,0.069
308.00,0.107
309.00,0.162
310.00,0.223
311.00,0.304
312.00,0.410
313.00,0.549
314.00,0.714
315.00,0.930
316.00,1.178
317.00,1.472
318.00,1.804
319.00,2.207
320.00,2.646
321.00,3.141
322.00,3.687
323.00,4.301
324.00,4.947
325.00,5.603
326.00,6.263
327.00,7.033
328.00,7.802
329.00,8.564
330.00,9.375
331.00,10.162
332.00,10.956
333.00,11.825
334.00,12.645
335.00,13.486
336.00,14.232
337.00,15.057
338.00,15.848
339.00,16.530
340.00,17.304
341.00,18.017
342.00,18.677
343.00,19.279
344.00,19.854
345.00,20.479
346.00,21.013
347.00,21.507
348.00,22.020
349.00,22.391
350.00,22.854
351.00,23.221
352.00,23.577
353.00,23.934
354.00,24.211
355.00,24.558
356.00,24.825
357.00,25.042
358.00,25.261
359.00,25.502
360.00,25.751
361.00,25.842
362.00,26.016
363.00,26.188
364.00,26.322
365.00,26.424
366.00,26.500
367.00,26.609
368.00,26.603
369.00,26.689
370.00,26.752
371.00,26.751
372.00,26.694
373.00,26.631
374.00,26.718
375.00,26.656
376.00,26.623
377.00,26.557
378.00,26.536
379.00,26.429
380.00,26.419
381.00,26.414
382.00,26.382
383.00,26.390
384.00,26.352
385.00,26.460
386.00,26.461
387.00,26.530
388.00,26.566
389.00,26.566
390.00,26.602
391.00,26.628
392.00,26.660
393.00,26.697
394.00,26.693
395.00,26.718
396.00,26.728
397.00,26.751
398.00,26.757
399.00,26.778
400.00,26.786
401.00,26.741
402.00,26.742
403.00,26.725
404.00,26.796
405.00,26.677
406.00,26.683
407.00,26.653
408.00,26.623
409.00,26.575
410.00,26.573
411.00,26.538
412.00,26.517
413.00,26.530
414.00,26.545
415.00,26.532
416.00,26.569
417.00,26.509
418.00,26.600
419.00,26.637
420.00,26.683
421.00,26.746
422.00,26.789
423.00,26.792
424.00,26.827
425.00,26.878
426.00,26.886
427.00,26.949
428.00,27.023
429.00,27.031
430.00,27.080
431.00,27.124
432.00,27.168
433.00,27.259
434.00,27.287
435.00,27.387
436.00,27.417
437.00,27.435
438.00,27.580
439.00,27.632
440.00,27.678
441.00,27.797
442.00,27.853
443.00,27.861
444.00,28.024
445.00,28.110
446.00,28.214
447.00,28.331
448.00,28.427
449.00,28.525
450.00,28.573
451.00,28.693
452.00,28.784
453.00,28.889
454.00,29.023
455.00,29.095
456.00,29.220
457.00,29.340
458.00,29.430
459.00,29.497
460.00,29.702
461.00,29.856
462.00,30.003
463.00,30.107
464.00,30.253
465.00,30.401
466.00,30.493
467.00,30.603
468.00,30.767
469.00,30.867
470.00,30.924
471.00,31.066
472.00,31.180
473.00,31.251
474.00,31.369
475.00,31.496
476.00,31.557
477.00,31.731
478.00,31.815
479.00,32.025
480.00,32.142
481.00,32.286
482.00,32.389
483.00,32.511
484.00,32.606
485.00,32.838
486.00,33.005
487.00,33.108
488.00,33.249
489.00,33.350
490.00,33.569
491.00,33.663
492.00,33.914
493.00,34.021
494.00,34.006
495.00,34.162
496.00,34.310
497.00,34.373
498.00,34.574
499.00,34.696
500.00,34.833
501.00,34.912
502.00,35.081
503.00,35.203
504.00,35.200
505.00,35.368
506.00,35.549
507.00,35.559
508.00,35.637
509.00,35.849
510.00,35.911
511.00,35.991
512.00,36.170
513.00,36.277
514.00,36.393
515.00,36.589
516.00,36.669
517.00,36.756
518.00,36.850
519.00,36.936
520.00,36.983
521.00,37.047
522.00,37.136
523.00,37.184
524.00,37.305
525.00,37.362
526.00,37.474
527.00,37.547
528.00,37.631
529.00,37.735
530.00,37.837
531.00,38.013
532.00,38.057
533.00,38.134
534.00,38.261
535.00,38.313
536.00,38.424
537.00,38.491
538.00,38.536
539.00,38.571
540.00,38.623
541.00,38.690
542.00,38.775
543.00,38.758
544.00,38.833
545.00,38.893
546.00,38.986
547.00,39.052
548.00,39.131
549.00,39.207
550.00,39.306
551.00,39.374
552.00,39.406
553.00,39.470
554.00,39.542
555.00,39.571
556.00,39.621
557.00,39.685
558.00,39.689
559.00,39.800
560.00,39.909
561.00,39.950
562.00,39.986
563.00,40.002
564.00,40.076
565.00,40.073
566.00,40.111
567.00,40.255
568.00,40.116
569.00,40.193
570.00,40.191
571.00,40.310
572.00,40.286
573.00,40.312
574.00,40.345
575.00,40.338
576.00,40.350
577.00,40.381
578.00,40.418
579.00,40.508
580.00,40.527
581.00,40.739
582.00,40.761
583.00,40.769
584.00,40.915
585.00,40.926
586.00,40.944
587.00,41.029
588.00,41.011
589.00,41.045
590.00,41.031
591.00,41.083
592.00,41.097
593.00,41.098
594.00,41.216
595.00,41.253
596.00,41.287
597.00,41.349
598.00,41.429
599.00,41.416
600.00,41.409
601.00,41.439
602.00,41.526
603.00,41.501
604.00,41.482
605.00,41.677
606.00,41.701
607.00,41.721
608.00,41.789
609.00,41.793
610.00,41.799
611.00,41.834
612.00,41.880
613.00,41.926
614.00,41.962
615.00,42.059
616.00,42.076
617.00,42.115
618.00,42.160
619.00,42.206
620.00,42.276
621.00,42.275
622.00,42.377
623.00,42.448
624.00,42.475
625.00,42.525
626.00,42.577
627.00,42.621
628.00,42.606
629.00,42.680
630.00,42.720
631.00,42.760
632.00,42.772
633.00,42.901
634.00,42.997
635.00,43.020
636.00,43.117
637.00,43.149
638.00,43.220
639.00,43.298
640.00,43.317
641.00,43.332
642.00,43.470
643.00,43.506
644.00,43.622
645.00,43.613
646.00,43.708
647.00,43.727
648.00,43.896
649.00,44.011
650.00,43.920
651.00,44.019
652.00,44.092
653.00,44.168
654.00,44.256
655.00,44.288
656.00,44.388
657.00,44.611
658.00,44.627
659.00,44.709
660.00,44.696
661.00,44.716
662.00,44.919
663.00,44.941
664.00,45.138
665.00,45.233
666.00,45.188
667.00,45.399
668.00,45.428
669.00,45.494
670.00,45.624
671.00,45.751
672.00,45.770
673.00,45.775
674.00,45.891
675.00,45.936
676.00,46.018
677.00,46.153
678.00,46.151
679.00,46.228
680.00,46.283
681.00,46.464
682.00,46.577
683.00,46.552
684.00,46.729
685.00,46.941
686.00,46.755
687.00,46.744
688.00,46.949
689.00,47.001
690.00,47.041
691.00,47.224
692.00,47.177
693.00,47.169
694.00,47.204
695.00,47.338
696.00,47.452
697.00,47.558
698.00,47.664
699.00,47.837
700.00,47.899
701.00,47.940
702.00,48.003
703.00,48.090
704.00,48.190
705.00,48.113
706.00,48.208
707.00,48.141
708.00,48.145
709.00,48.652
710.00,48.470
711.00,48.346
712.00,48.518
713.00,48.686
714.00,48.620
715.00,48.824
716.00,48.732
717.00,48.872
718.00,48.917
719.00,48.930
720.00,49.105
721.00,53.387
722.00,53.382
723.00,53.400
724.00,53.432
725.00,53.417
726.00,53.420
727.00,53.435
728.00,53.478
729.00,53.468
730.00,53.492
731.00,53.564
732.00,53.496
733.00,53.586
734.00,53.532
735.00,53.612
736.00,53.641
737.00,53.675
738.00,53.689
739.00,53.707
740.00,53.726
741.00,53.764
742.00,53.710
743.00,53.733
744.00,53.656
745.00,53.805
746.00,53.768
747.00,53.745
748.00,53.696
749.00,53.794
750.00,53.735
751.00,53.649
752.00,53.776
753.00,53.776
754.00,53.670
755.00,53.741
756.00,53.766
757.00,53.775
758.00,53.777
759.00,53.684
760.00,53.700
761.00,53.801
762.00,53.737
763.00,53.822
764.00,53.734
765.00,53.726
766.00,53.914
767.00,53.815
768.00,53.836
769.00,53.777
770.00,53.876
771.00,53.861
772.00,53.908
773.00,53.832
774.00,53.880
775.00,53.895
776.00,53.818
777.00,53.915
778.00,53.770
779.00,53.844
780.00,53.862
781.00,53.883
782.00,53.926
783.00,53.776
784.00,53.851
785.00,53.785
786.00,53.882
787.00,53.829
788.00,53.768
789.00,53.748
790.00,53.805
791.00,53.808
792.00,53.735
793.00,53.797
794.00,53.738
795.00,53.748
796.00,53.716
797.00,53.582
798.00,53.721
799.00,53.605
800.00,53.630
801.00,53.700
802.00,53.570
803.00,53.575
804.00,53.568
805.00,53.661
806.00,53.518
807.00,53.608
808.00,53.503
809.00,53.517
810.00,53.485
811.00,53.527
812.00,53.478
813.00,53.441
814.00,53.419
815.00,53.451
816.00,53.414
817.00,53.394
818.00,53.456
819.00,53.399
820.00,53.285
821.00,53.391
822.00,53.327
823.00,53.425
824.00,53.459
825.00,53.187
826.00,53.225
827.00,53.278
828.00,53.336
829.00,53.298
830.00,53.330
831.00,55.781
832.00,55.795
833.00,55.708
834.00,55.717
835.00,55.686
836.00,55.756
837.00,55.656
838.00,55.618
839.00,55.626
840.00,55.558
841.00,55.575
842.00,55.572
843.00,55.607
844.00,55.573
845.00,55.519
846.00,55.534
847.00,55.487
848.00,55.509
849.00,55.457
850.00,55.449
851.00,55.337
852.00,55.381
853.00,55.308
854.00,55.308
855.00,55.274
856.00,55.286
857.00,55.225
858.00,55.201
859.00,55.200
860.00,55.198
861.00,55.181
862.00,55.240
863.00,55.161
864.00,55.117
865.00,55.125
866.00,55.254
867.00,55.161
868.00,55.102
869.00,55.118
870.00,55.092
871.00,55.079
872.00,55.080
873.00,55.080
874.00,55.085
875.00,55.011
876.00,55.064
877.00,55.086
878.00,55.006
879.00,54.973
880.00,55.027
881.00,54.885
882.00,55.000
883.00,54.973
884.00,54.893
885.00,54.935
886.00,54.901
887.00,54.862
888.00,54.848
889.00,54.859
890.00,54.834
891.00,54.780
892.00,54.745
893.00,54.889
894.00,54.782
895.00,54.717
896.00,54.723
897.00,54.697
898.00,54.661
899.00,54.641
900.00,54.644
901.00,54.645
902.00,54.686
903.00,54.626
904.00,54.619
905.00,54.614
906.00,54.579
907.00,54.566
908.00,54.520
909.00,54.494
910.00,54.483
911.00,54.489
912.00,54.443
913.00,54.397
914.00,54.456
915.00,54.409
916.00,54.316
917.00,54.462
918.00,54.359
919.00,54.284
920.00,54.266
921.00,54.298
922.00,54.303
923.00,54.245
924.00,54.221
925.00,54.244
926.00,54.231
927.00,54.170
928.00,54.179
929.00,54.177
930.00,54.131
931.00,54.120
932.00,54.142
933.00,54.106
934.00,54.071
935.00,54.029
936.00,54.032
937.00,54.030
938.00,54.022
939.00,54.018
940.00,53.994
941.00,53.963
942.00,53.950
943.00,53.920
944.00,53.910
945.00,53.904
946.00,53.884
947.00,53.866
948.00,53.829
949.00,53.810
950.00,53.790
951.00,53.772
952.00,53.735
953.00,53.717
954.00,53.714
955.00,53.669
956.00,53.663
957.00,53.619
958.00,53.659
959.00,53.583
960.00,53.571
961.00,53.596
962.00,53.589
963.00,53.525
964.00,53.525
965.00,53.548
966.00,53.501
967.00,53.504
968.00,53.494
969.00,53.532
970.00,53.494
971.00,53.493
972.00,53.513
973.00,53.500
974.00,53.524
975.00,53.506
976.00,53.498
977.00,53.489
978.00,53.558
979.00,53.479
980.00,53.521
981.00,53.514
982.00,53.485
983.00,53.506
984.00,53.492
985.00,53.483
986.00,53.452
987.00,53.482
988.00,53.448
989.00,53.435
990.00,53.415
991.00,53.428
992.00,53.450
993.00,53.401
994.00,53.374
995.00,53.368
996.00,53.356
997.00,53.344
998.00,53.316
999.00,53.345
1000.00,53.302
1001.00,53.295
1002.00,53.314
1003.00,53.298
1004.00,53.255
1005.00,53.246
1006.00,53.283
1007.00,53.243
1008.00,53.222
1009.00,53.198
1010.00,53.228
1011.00,53.188
1012.00,53.160
1013.00,53.172
1014.00,53.137
1015.00,53.148
1016.00,53.127
1017.00,53.111
1018.00,53.095
1019.00,53.082
1020.00,53.073
1021.00,53.060
1022.00,53.069
1023.00,53.014
1024.00,53.041
1025.00,53.006
1026.00,52.980
1027.00,52.963
1028.00,52.960
1029.00,52.946
1030.00,52.912
1031.00,52.918
1032.00,52.887
1033.00,52.892
1034.00,52.859
1035.00,52.853
1036.00,52.817
1037.00,52.786
1038.00,52.799
1039.00,52.766
1040.00,52.743
1041.00,52.730
1042.00,52.707
1043.00,52.695
1044.00,52.734
1045.00,52.698
1046.00,52.697
1047.00,52.707
1048.00,52.714
1049.00,52.728
1050.00,52.716
1051.00,52.752
1052.00,52.756
1053.00,52.769
1054.00,52.776
1055.00,52.782
1056.00,52.782
1057.00,52.811
1058.00,52.805
1059.00,52.791
1060.00,52.813
1061.00,52.800
1062.00,52.776
1063.00,52.794
1064.00,52.778
1065.00,52.769
1066.00,52.756
1067.00,52.741
1068.00,52.782
1069.00,52.754
1070.00,52.707
1071.00,52.713
1072.00,52.722
1073.00,52.715
1074.00,52.714
1075.00,52.692
1076.00,52.718
1077.00,52.689
1078.00,52.665
1079.00,52.682
1080.00,52.681
1081.00,52.657
1082.00,52.666
1083.00,52.659
1084.00,52.659
1085.00,52.670
1086.00,52.653
1087.00,52.657
1088.00,52.640
1089.00,52.617
1090.00,52.637
1091.00,52.626
1092.00,52.603
1093.00,52.594
1094.00,52.583
1095.00,52.563
1096.00,52.561
1097.00,52.557
1098.00,52.547
1099.00,52.529
1100.00,52.508
1101.00,52.519
1102.00,52.502
1103.00,52.490
1104.00,52.495
1105.00,52.484
1106.00,52.476
1107.00,52.466
1108.00,52.456
1109.00,52.435
1110.00,52.441
1111.00,52.431
1112.00,52.441
1113.00,52.437
1114.00,52.406
1115.00,52.428
1116.00,52.419
1117.00,52.388
1118.00,52.396
1119.00,52.382
1120.00,52.393
1121.00,52.382
1122.00,52.356
1123.00,52.366
1124.00,52.350
1125.00,52.353
1126.00,52.344
1127.00,52.333
1128.00,52.330
1129.00,52.308
1130.00,52.312
1131.00,52.325
1132.00,52.288
1133.00,52.273
1134.00,52.295
1135.00,52.285
1136.00,52.275
1137.00,52.284
1138.00,52.290
1139.00,52.287
1140.00,52.281
1141.00,52.282
1142.00,52.279
1143.00,52.286
1144.00,52.254
1145.00,52.276
1146.00,52.290
1147.00,52.248
1148.00,52.262
1149.00,52.268
1150.00,52.264
1151.00,52.270
1152.00,52.256
1153.00,52.271
1154.00,52.256
1155.00,52.230
1156.00,52.245
1157.00,52.234
1158.00,52.227
1159.00,52.259
1160.00,52.250
1161.00,52.236
1162.00,52.229
1163.00,52.227
1164.00,52.236
1165.00,52.221
1166.00,52.213
1167.00,52.225
1168.00,52.225
1169.00,52.196
1170.00,52.197
1171.00,52.193
1172.00,52.185
1173.00,52.201
1174.00,52.212
1175.00,52.208
1176.00,52.218
1177.00,52.188
1178.00,52.205
1179.00,52.209
1180.00,52.196
1181.00,52.228
1182.00,52.221
1183.00,52.217
1184.00,52.206
1185.00,52.216
1186.00,52.217
1187.00,52.209
1188.00,52.189
1189.00,52.216
1190.00,52.190
1191.00,52.201
1192.00,52.238
1193.00,52.197
1194.00,52.187
1195.00,52.178
1196.00,52.199
1197.00,52.210
1198.00,52.193
1199.00,52.175
1200.00,52.219
1201.00,52.207
1202.00,52.174
1203.00,52.184
1204.00,52.187
1205.00,52.182
1206.00,52.194
1207.00,52.201
1208.00,52.184
1209.00,52.195
1210.00,52.196
1211.00,52.217
1212.00,52.230
1213.00,52.183
1214.00,52.238
1215.00,52.215
1216.00,52.219
1217.00,52.233
1218.00,52.219
1219.00,52.225
1220.00,52.205
1221.00,52.208
1222.00,52.197
1223.00,52.219
1224.00,52.203
1225.00,52.200
1226.00,52.205
1227.00,52.205
1228.00,52.231
1229.00,52.222
1230.00,52.261
1231.00,52.252
1232.00,52.248
1233.00,52.266
1234.00,52.256
1235.00,52.245
1236.00,52.257
1237.00,52.262
1238.00,52.237
1239.00,52.263
1240.00,52.251
1241.00,52.276
1242.00,52.278
1243.00,52.271
1244.00,52.275
1245.00,52.294
1246.00,52.274
1247.00,52.300
1248.00,52.286
1249.00,52.288
1250.00,52.299
1251.00,52.279
1252.00,52.313
1253.00,52.305
1254.00,52.305
1255.00,52.308
1256.00,52.302
1257.00,52.309
1258.00,52.352
1259.00,52.353
1260.00,52.363
1261.00,52.368
1262.00,52.352
1263.00,52.358
1264.00,52.337
1265.00,52.329
1266.00,52.346
1267.00,52.364
1268.00,52.349
1269.00,52.357
1270.00,52.381
1271.00,52.373
1272.00,52.395
1273.00,52.416
1274.00,52.411
1275.00,52.403
1276.00,52.396
1277.00,52.423
1278.00,52.428
1279.00,52.420
1280.00,52.432
1281.00,52.443
1282.00,52.449
1283.00,52.439
1284.00,52.449
1285.00,52.455
1286.00,52.465
1287.00,52.453
1288.00,52.467
1289.00,52.474
1290.00,52.478
1291.00,52.491
1292.00,52.495
1293.00,52.496
1294.00,52.502
1295.00,52.519
1296.00,52.517
1297.00,52.531
1298.00,52.531
1299.00,52.525
1300.00,52.532
1301.00,52.510
1302.00,52.543
1303.00,52.552
1304.00,52.531
1305.00,52.562
1306.00,52.554
1307.00,52.554
1308.00,52.566
1309.00,52.587
1310.00,52.611
1311.00,52.580
1312.00,52.591
1313.00,52.603
1314.00,52.622
1315.00,52.631
1316.00,52.653
1317.00,52.672
1318.00,52.680
1319.00,52.661
1320.00,52.649
1321.00,52.821
1322.00,52.804
1323.00,52.775
1324.00,52.793
1325.00,52.761
1326.00,52.757
1327.00,52.768
1328.00,52.766
1329.00,52.752
1330.00,52.773
1331.00,52.773
1332.00,52.771
1333.00,52.782
1334.00,52.802
1335.00,52.849
1336.00,52.850
1337.00,52.868
1338.00,52.943
1339.00,53.000
1340.00,53.041
1341.00,53.118
1342.00,53.177
1343.00,53.234
1344.00,53.264
1345.00,53.317
1346.00,53.381
1347.00,53.382
1348.00,53.387
1349.00,53.408
1350.00,53.458
1351.00,53.443
1352.00,53.436
1353.00,53.515
1354.00,53.469
1355.00,53.384
1356.00,53.504
1357.00,53.544
1358.00,53.479
1359.00,53.522
1360.00,53.519
1361.00,53.508
1362.00,53.407
1363.00,53.599
1364.00,53.668
1365.00,53.517
1366.00,53.602
1367.00,53.541
1368.00,53.486
1369.00,53.624
1370.00,53.384
1371.00,53.871
1372.00,53.504
1373.00,53.498
1374.00,53.510
1375.00,53.511
1376.00,53.479
1377.00,53.479
1378.00,53.522
1379.00,53.557
1380.00,53.516
1381.00,53.605
1382.00,53.489
1383.00,53.559
1384.00,53.444
1385.00,53.365
1386.00,53.526
1387.00,53.535
1388.00,53.426
1389.00,53.373
1390.00,53.507
1391.00,53.560
1392.00,53.464
1393.00,53.531
1394.00,53.557
1395.00,53.495
1396.00,53.386
1397.00,53.393
1398.00,53.507
1399.00,53.539
1400.00,53.417
1401.00,53.448
1402.00,53.533
1403.00,53.546
1404.00,53.480
1405.00,53.480
1406.00,53.503
1407.00,53.567
1408.00,53.576
1409.00,53.521
1410.00,53.563
1411.00,53.491
1412.00,53.634
1413.00,53.603
1414.00,53.536
1415.00,53.579
1416.00,53.631
1417.00,53.669
1418.00,53.619
1419.00,53.611
1420.00,53.632
1421.00,53.671
1422.00,53.667
1423.00,53.680
1424.00,53.695
1425.00,53.683
1426.00,53.710
1427.00,53.746
1428.00,53.712
1429.00,53.736
1430.00,53.755
1431.00,53.773
1432.00,53.783
1433.00,53.783
1434.00,53.793
1435.00,53.842
1436.00,53.828
1437.00,53.824
1438.00,53.856
1439.00,53.885
1440.00,53.887
1441.00,53.906
1442.00,53.903
1443.00,53.919
1444.00,54.000
1445.00,53.943
1446.00,53.957
1447.00,53.983
1448.00,54.018
1449.00,54.077
1450.00,54.059
1451.00,54.034
1452.00,54.048
1453.00,54.044
1454.00,54.081
1455.00,54.085
1456.00,54.106
1457.00,54.111
1458.00,54.113
1459.00,54.165
1460.00,54.173
1461.00,54.141
1462.00,54.191
1463.00,54.200
1464.00,54.232
1465.00,54.271
1466.00,54.258
1467.00,54.295
1468.00,54.334
1469.00,54.283
1470.00,54.309
1471.00,54.342
1472.00,54.324
1473.00,54.348
1474.00,54.359
1475.00,54.371
1476.00,54.386
1477.00,54.351
1478.00,54.380
1479.00,54.407
1480.00,54.413
1481.00,54.456
1482.00,54.455
1483.00,54.461
1484.00,54.461
1485.00,54.479
1486.00,54.500
1487.00,54.512
1488.00,54.513
1489.00,54.511
1490.00,54.529
1491.00,54.532
1492.00,54.568
1493.00,54.566
1494.00,54.578
1495.00,54.571
1496.00,54.582
1497.00,54.590
1498.00,54.609
1499.00,54.613
1500.00,54.626
1501.00, 
1502.00, 
1503.00, 
1504.00, 
1505.00, 
1506.00, 
1507.00, 
1508.00, 
1509.00, 
1510.00, 
1511.00, 
1512.00, 
1513.00, 
1514.00, 
1515.00, 
1516.00, 
1517.00, 
1518.00, 
1519.00, 
1520.00, 
1521.00, 
1522.00, 
1523.00, 
1524.00, 
1525.00, 
1526.00, 
1527.00, 
1528.00, 
1529.00, 
1530.00, 
1531.00, 
1532.00, 
1533.00, 
1534.00, 
1535.00, 
1536.00, 
1537.00, 
1538.00, 
1539.00, 
1540.00, 
1541.00, 
1542.00, 
1543.00, 
1544.00, 
1545.00, 
1546.00, 
1547.00, 
1548.00, 
1549.00, 
1550.00, 
1551.00, 
1552.00, 
1553.00, 
1554.00, 
1555.00, 
1556.00, 
1557.00, 
1558.00, 
1559.00, 
1560.00, 
1561.00, 
1562.00, 
1563.00, 
1564.00, 
1565.00, 
1566.00, 
1567.00, 
1568.00, 
1569.00, 
1570.00, 
1571.00, 
1572.00, 
1573.00, 
1574.00, 
1575.00, 
1576.00, 
1577.00, 
1578.00, 
1579.00, 
1580.00, 
1581.00, 
1582.00, 
1583.00, 
1584.00, 
1585.00, 
1586.00, 
1587.00, 
1588.00, 
1589.00, 
1590.00, 
1591.00, 
1592.00, 
1593.00, 
1594.00, 
1595.00, 
1596.00, 
1597.00, 
1598.00, 
1599.00, 
1600.00, 
1601.00, 
1602.00, 
1603.00, 
1604.00, 
1605.00, 
1606.00, 
1607.00, 
1608.00, 
1609.00, 
1610.00, 
1611.00, 
1612.00, 
1613.00, 
1614.00, 
1615.00, 
1616.00, 
1617.00, 
1618.00, 
1619.00, 
1620.00, 
1621.00, 
1622.00, 
1623.00, 
1624.00, 
1625.00, 
1626.00, 
1627.00, 
1628.00, 
1629.00, 
1630.00, 
1631.00, 
1632.00, 
1633.00, 
1634.00, 
1635.00, 
1636.00, 
1637.00, 
1638.00, 
1639.00, 
1640.00, 
1641.00, 
1642.00, 
1643.00, 
1644.00, 
1645.00, 
1646.00, 
1647.00, 
1648.00, 
1649.00, 
1650.00, 
1651.00, 
1652.00, 
1653.00, 
1654.00, 
1655.00, 
1656.00, 
1657.00, 
1658.00, 
1659.00, 
1660.00, 
1661.00, 
1662.00, 
1663.00, 
1664.00, 
1665.00, 
1666.00, 
1667.00, 
1668.00, 
1669.00, 
1670.00, 
1671.00, 
1672.00, 
1673.00, 
1674.00, 
1675.00, 
1676.00, 
1677.00, 
1678.00, 
1679.00, 
1680.00, 
1681.00, 
1682.00, 
1683.00, 
1684.00, 
1685.00, 
1686.00, 
1687.00, 
1688.00, 
1689.00, 
1690.00, 
1691.00, 
1692.00, 
1693.00, 
1694.00, 
1695.00, 
1696.00, 
1697.00, 
1698.00, 
1699.00, 
1700.00, 
1701.00, 
1702.00, 
1703.00, 
1704.00, 
1705.00, 
1706.00, 
1707.00, 
1708.00, 
1709.00, 
1710.00, 
1711.00, 
1712.00, 
1713.00, 
1714.00, 
1715.00, 
1716.00, 
1717.00, 
1718.00, 
1719.00, 
1720.00, 
1721.00, 
1722.00, 
1723.00, 
1724.00, 
1725.00, 
1726.00, 
1727.00, 
1728.00, 
1729.00, 
1730.00, 
1731.00, 
1732.00, 
1733.00, 
1734.00, 
1735.00, 
1736.00, 
1737.00, 
1738.00, 
1739.00, 
1740.00, 
1741.00, 
1742.00, 
1743.00, 
1744.00, 
1745.00, 
1746.00, 
1747.00, 
1748.00, 
1749.00, 
1750.00, 
1751.00, 
1752.00, 
1753.00, 
1754.00, 
1755.00, 
1756.00, 
1757.00, 
1758.00, 
1759.00, 
1760.00, 
1761.00, 
1762.00, 
1763.00, 
1764.00, 
1765.00, 
1766.00, 
1767.00, 
1768.00, 
1769.00, 
1770.00, 
1771.00, 
1772.00, 
1773.00, 
1774.00, 
1775.00, 
1776.00, 
1777.00, 
1778.00, 
1779.00, 
1780.00, 
1781.00, 
1782.00, 
1783.00, 
1784.00, 
1785.00, 
1786.00, 
1787.00, 
1788.00, 
1789.00, 
1790.00, 
1791.00, 
1792.00, 
1793.00, 
1794.00, 
1795.00, 
1796.00, 
1797.00, 
1798.00, 
1799.00, 
1800.00, 
1801.00, 
1802.00, 
1803.00, 
1804.00, 
1805.00, 
1806.00, 
1807.00, 
1808.00, 
1809.00, 
1810.00, 
1811.00, 
1812.00, 
1813.00, 
1814.00, 
1815.00, 
1816.00, 
1817.00, 
1818.00, 
1819.00, 
1820.00, 
1821.00, 
1822.00, 
1823.00, 
1824.00, 
1825.00, 
1826.00, 
1827.00, 
1828.00, 
1829.00, 
1830.00, 
1831.00, 
1832.00, 
1833.00, 
1834.00, 
1835.00, 
1836.00, 
1837.00, 
1838.00, 
1839.00, 
1840.00, 
1841.00, 
1842.00, 
1843.00, 
1844.00, 
1845.00, 
1846.00, 
1847.00, 
1848.00, 
1849.00, 
1850.00, 
1851.00, 
1852.00, 
1853.00, 
1854.00, 
1855.00, 
1856.00, 
1857.00, 
1858.00, 
1859.00, 
1860.00, 
1861.00, 
1862.00, 
1863.00, 
1864.00, 
1865.00, 
1866.00, 
1867.00, 
1868.00, 
1869.00, 
1870.00, 
1871.00, 
1872.00, 
1873.00, 
1874.00, 
1875.00, 
1876.00, 
1877.00, 
1878.00, 
1879.00, 
1880.00, 
1881.00, 
1882.00, 
1883.00, 
1884.00, 
1885.00, 
1886.00, 
1887.00, 
1888.00, 
1889.00, 
1890.00, 
1891.00, 
1892.00, 
1893.00, 
1894.00, 
1895.00, 
1896.00, 
1897.00, 
1898.00, 
1899.00, 
1900.00, 
1901.00, 
1902.00, 
1903.00, 
1904.00, 
1905.00, 
1906.00, 
1907.00, 
1908.00, 
1909.00, 
1910.00, 
1911.00, 
1912.00, 
1913.00, 
1914.00, 
1915.00, 
1916.00, 
1917.00, 
1918.00, 
1919.00, 
1920.00, 
1921.00, 
1922.00, 
1923.00, 
1924.00, 
1925.00, 
1926.00, 
1927.00, 
1928.00, 
1929.00, 
1930.00, 
1931.00, 
1932.00, 
1933.00, 
1934.00, 
1935.00, 
1936.00, 
1937.00, 
1938.00, 
1939.00, 
1940.00, 
1941.00, 
1942.00, 
1943.00, 
1944.00, 
1945.00, 
1946.00, 
1947.00, 
1948.00, 
1949.00, 
1950.00, 
1951.00, 
1952.00, 
1953.00, 
1954.00, 
1955.00, 
1956.00, 
1957.00, 
1958.00, 
1959.00, 
1960.00, 
1961.00, 
1962.00, 
1963.00, 
1964.00, 
1965.00, 
1966.00, 
1967.00, 
1968.00, 
1969.00, 
1970.00, 
1971.00, 
1972.00, 
1973.00, 
1974.00, 
1975.00, 
1976.00, 
1977.00, 
1978.00, 
1979.00, 
1980.00, 
1981.00, 
1982.00, 
1983.00, 
1984.00, 
1985.00, 
1986.00, 
1987.00, 
1988.00, 
1989.00, 
1990.00, 
1991.00, 
1992.00, 
1993.00, 
1994.00, 
1995.00, 
1996.00, 
1997.00, 
1998.00, 
1999.00, 
2000.00, 
2001.00, 
2002.00, 
2003.00, 
2004.00, 
2005.00, 
2006.00, 
2007.00, 
2008.00, 
2009.00, 
2010.00, 
2011.00, 
2012.00, 
2013.00, 
2014.00, 
2015.00, 
2016.00, 
2017.00, 
2018.00, 
2019.00, 
2020.00, 
2021.00, 
2022.00, 
2023.00, 
2024.00, 
2025.00, 
2026.00, 
2027.00, 
2028.00, 
2029.00, 
2030.00, 
2031.00, 
2032.00, 
2033.00, 
2034.00, 
2035.00, 
2036.00, 
2037.00, 
2038.00, 
2039.00, 
2040.00, 
2041.00, 
2042.00, 
2043.00, 
2044.00, 
2045.00, 
2046.00, 
2047.00, 
2048.00, 
2049.00, 
2050.00, 
2051.00, 
2052.00, 
2053.00, 
2054.00, 
2055.00, 
2056.00, 
2057.00, 
2058.00, 
2059.00, 
2060.00, 
2061.00, 
2062.00, 
2063.00, 
2064.00, 
2065.00, 
2066.00, 
2067.00, 
2068.00, 
2069.00, 
2070.00, 
2071.00, 
2072.00, 
2073.00, 
2074.00, 
2075.00, 
2076.00, 
2077.00, 
2078.00, 
2079.00, 
2080.00, 
2081.00, 
2082.00, 
2083.00, 
2084.00, 
2085.00, 
2086.00, 
2087.00, 
2088.00, 
2089.00, 
2090.00, 
2091.00, 
2092.00, 
2093.00, 
2094.00, 
2095.00, 
2096.00, 
2097.00, 
2098.00, 
2099.00, 
2100.00, 
2101.00, 
2102.00, 
2103.00, 
2104.00, 
2105.00, 
2106.00, 
2107.00, 
2108.00, 
2109.00, 
2110.00, 
2111.00, 
2112.00, 
2113.00, 
2114.00, 
2115.00, 
2116.00, 
2117.00, 
2118.00, 
2119.00, 
2120.00, 
2121.00, 
2122.00, 
2123.00, 
2124.00, 
2125.00, 
2126.00, 
2127.00, 
2128.00, 
2129.00, 
2130.00, 
2131.00, 
2132.00, 
2133.00, 
2134.00, 
2135.00, 
2136.00, 
2137.00, 
2138.00, 
2139.00, 
2140.00, 
2141.00, 
2142.00, 
2143.00, 
2144.00, 
2145.00, 
2146.00, 
2147.00, 
2148.00, 
2149.00, 
2150.00, 
2151.00, 
2152.00, 
2153.00, 
2154.00, 
2155.00, 
2156.00, 
2157.00, 
2158.00, 
2159.00, 
2160.00, 
2161.00, 
2162.00, 
2163.00, 
2164.00, 
2165.00, 
2166.00, 
2167.00, 
2168.00, 
2169.00, 
2170.00, 
2171.00, 
2172.00, 
2173.00, 
2174.00, 
2175.00, 
2176.00, 
2177.00, 
2178.00, 
2179.00, 
2180.00, 
2181.00, 
2182.00, 
2183.00, 
2184.00, 
2185.00, 
2186.00, 
2187.00, 
2188.00, 
2189.00, 
2190.00, 
2191.00, 
2192.00, 
2193.00, 
2194.00, 
2195.00, 
2196.00, 
2197.00, 
2198.00, 
2199.00, 
2200.00, 
2201.00, 
2202.00, 
2203.00, 
2204.00, 
2205.00, 
2206.00, 
2207.00, 
2208.00, 
2209.00, 
2210.00, 
2211.00, 
2212.00, 
2213.00, 
2214.00, 
2215.00, 
2216.00, 
2217.00, 
2218.00, 
2219.00, 
2220.00, 
2221.00, 
2222.00, 
2223.00, 
2224.00, 
2225.00, 
2226.00, 
2227.00, 
2228.00, 
2229.00, 
2230.00, 
2231.00, 
2232.00, 
2233.00, 
2234.00, 
2235.00, 
2236.00, 
2237.00, 
2238.00, 
2239.00, 
2240.00, 
2241.00, 
2242.00, 
2243.00, 
2244.00, 
2245.00, 
2246.00, 
2247.00, 
2248.00, 
2249.00, 
2250.00, 
2251.00, 
2252.00, 
2253.00, 
2254.00, 
2255.00, 
2256.00, 
2257.00, 
2258.00, 
2259.00, 
2260.00, 
2261.00, 
2262.00, 
2263.00, 
2264.00, 
2265.00, 
2266.00, 
2267.00, 
2268.00, 
2269.00, 
2270.00, 
2271.00, 
2272.00, 
2273.00, 
2274.00, 
2275.00, 
2276.00, 
2277.00, 
2278.00, 
2279.00, 
2280.00, 
2281.00, 
2282.00, 
2283.00, 
2284.00, 
2285.00, 
2286.00, 
2287.00, 
2288.00, 
2289.00, 
2290.00, 
2291.00, 
2292.00, 
2293.00, 
2294.00, 
2295.00, 
2296.00, 
2297.00, 
2298.00, 
2299.00, 
2300.00, 
2301.00, 
2302.00, 
2303.00, 
2304.00, 
2305.00, 
2306.00, 
2307.00, 
2308.00, 
2309.00, 
2310.00, 
2311.00, 
2312.00, 
2313.00, 
2314.00, 
2315.00, 
2316.00, 
2317.00, 
2318.00, 
2319.00, 
2320.00, 
2321.00, 
2322.00, 
2323.00, 
2324.00, 
2325.00, 
2326.00, 
2327.00, 
2328.00, 
2329.00, 
2330.00, 
2331.00, 
2332.00, 
2333.00, 
2334.00, 
2335.00, 
2336.00, 
2337.00, 
2338.00, 
2339.00, 
2340.00, 
2341.00, 
2342.00, 
2343.00, 
2344.00, 
2345.00, 
2346.00, 
2347.00, 
2348.00, 
2349.00, 
2350.00, 
2351.00, 
2352.00, 
2353.00, 
2354.00, 
2355.00, 
2356.00, 
2357.00, 
2358.00, 
2359.00, 
2360.00, 
2361.00, 
2362.00, 
2363.00, 
2364.00, 
2365.00, 
2366.00, 
2367.00, 
2368.00, 
2369.00, 
2370.00, 
2371.00, 
2372.00, 
2373.00, 
2374.00, 
2375.00, 
2376.00, 
2377.00, 
2378.00, 
2379.00, 
2380.00, 
2381.00, 
2382.00, 
2383.00, 
2384.00, 
2385.00, 
2386.00, 
2387.00, 
2388.00, 
2389.00, 
2390.00, 
2391.00, 
2392.00, 
2393.00, 
2394.00, 
2395.00, 
2396.00, 
2397.00, 
2398.00, 
2399.00, 
2400.00, 
2401.00, 
2402.00, 
2403.00, 
2404.00, 
2405.00, 
2406.00, 
2407.00, 
2408.00, 
2409.00, 
2410.00, 
2411.00, 
2412.00, 
2413.00, 
2414.00, 
2415.00, 
2416.00, 
2417.00, 
2418.00, 
2419.00, 
2420.00, 
2421.00, 
2422.00, 
2423.00, 
2424.00, 
2425.00, 
2426.00, 
2427.00, 
2428.00, 
2429.00, 
2430.00, 
2431.00, 
2432.00, 
2433.00, 
2434.00, 
2435.00, 
2436.00, 
2437.00, 
2438.00, 
2439.00, 
2440.00, 
2441.00, 
2442.00, 
2443.00, 
2444.00, 
2445.00, 
2446.00, 
2447.00, 
2448.00, 
2449.00, 
2450.00, 
2451.00, 
2452.00, 
2453.00, 
2454.00, 
2455.00, 
2456.00, 
2457.00, 
2458.00, 
2459.00, 
2460.00, 
2461.00, 
2462.00, 
2463.00, 
2464.00, 
2465.00, 
2466.00, 
2467.00, 
2468.00, 
2469.00, 
2470.00, 
2471.00, 
2472.00, 
2473.00, 
2474.00, 
2475.00, 
2476.00, 
2477.00, 
2478.00, 
2479.00, 
2480.00, 
2481.00, 
2482.00, 
2483.00, 
2484.00, 
2485.00, 
2486.00, 
2487.00, 
2488.00, 
2489.00, 
2490.00, 
2491.00, 
2492.00, 
2493.00, 
2494.00, 
2495.00, 
2496.00, 
2497.00, 
2498.00, 
2499.00, 
2500.00, 
2501.00, 
2502.00, 
2503.00, 
2504.00, 
2505.00, 
2506.00, 
2507.00, 
2508.00, 
2509.00, 
2510.00, 
2511.00, 
2512.00, 
2513.00, 
2514.00, 
2515.00, 
2516.00, 
2517.00, 
2518.00, 
2519.00, 
2520.00, 
2521.00, 
2522.00, 
2523.00, 
2524.00, 
2525.00, 
2526.00, 
2527.00, 
2528.00, 
2529.00, 
2530.00, 
2531.00, 
2532.00, 
2533.00, 
2534.00, 
2535.00, 
2536.00, 
2537.00, 
2538.00, 
2539.00, 
2540.00, 
2541.00, 
2542.00, 
2543.00, 
2544.00, 
2545.00, 
2546.00, 
2547.00, 
2548.00, 
2549.00, 
2550.00, 
2551.00, 
2552.00, 
2553.00, 
2554.00, 
2555.00, 
2556.00, 
2557.00, 
2558.00, 
2559.00, 
2560.00, 
2561.00, 
2562.00, 
2563.00, 
2564.00, 
2565.00, 
2566.00, 
2567.00, 
2568.00, 
2569.00, 
2570.00, 
2571.00, 
2572.00, 
2573.00, 
2574.00, 
2575.00, 
2576.00, 
2577.00, 
2578.00, 
2579.00, 
2580.00, 
2581.00, 
2582.00, 
2583.00, 
2584.00, 
2585.00, 
2586.00, 
2587.00, 
2588.00, 
2589.00, 
2590.00, 
2591.00, 
2592.00, 
2593.00, 
2594.00, 
2595.00, 
2596.00, 
2597.00, 
2598.00, 
2599.00, 
2600.00, 
