"1bP2 - RawData"
"Wavelength nm.","T%"
200.00,0.004
201.00,-0.001
202.00,-0.001
203.00,0.003
204.00,0.002
205.00,0.003
206.00,0.001
207.00,-0.000
208.00,0.003
209.00,0.003
210.00,-0.000
211.00,0.001
212.00,0.000
213.00,0.002
214.00,0.002
215.00,0.000
216.00,0.004
217.00,-0.000
218.00,-0.002
219.00,0.002
220.00,-0.001
221.00,-0.001
222.00,0.001
223.00,0.003
224.00,-0.000
225.00,-0.001
226.00,0.001
227.00,-0.000
228.00,0.001
229.00,0.002
230.00,0.002
231.00,0.001
232.00,0.001
233.00,0.002
234.00,0.000
235.00,0.000
236.00,0.001
237.00,0.001
238.00,0.000
239.00,-0.000
240.00,0.001
241.00,0.001
242.00,0.001
243.00,-0.000
244.00,-0.001
245.00,0.001
246.00,0.000
247.00,0.001
248.00,0.002
249.00,0.002
250.00,0.000
251.00,0.000
252.00,0.002
253.00,-0.001
254.00,-0.001
255.00,0.000
256.00,0.002
257.00,-0.001
258.00,0.002
259.00,0.002
260.00,-0.000
261.00,0.002
262.00,0.001
263.00,-0.001
264.00,-0.000
265.00,-0.000
266.00,-0.003
267.00,0.001
268.00,0.000
269.00,-0.001
270.00,-0.000
271.00,0.000
272.00,0.001
273.00,0.001
274.00,0.001
275.00,0.001
276.00,-0.000
277.00,0.000
278.00,0.000
279.00,-0.001
280.00,0.000
281.00,-0.000
282.00,-0.000
283.00,-0.000
284.00,0.001
285.00,0.000
286.00,0.001
287.00,0.001
288.00,0.001
289.00,-0.001
290.00,-0.003
291.00,-0.001
292.00,-0.001
293.00,-0.000
294.00,0.000
295.00,0.001
296.00,-0.001
297.00,0.001
298.00,0.002
299.00,0.002
300.00,0.005
301.00,0.005
302.00,0.010
303.00,0.013
304.00,0.021
305.00,0.034
306.00,0.048
307.00,0.073
308.00,0.115
309.00,0.178
310.00,0.249
311.00,0.330
312.00,0.444
313.00,0.595
314.00,0.777
315.00,1.002
316.00,1.282
317.00,1.594
318.00,1.954
319.00,2.384
320.00,2.851
321.00,3.393
322.00,3.989
323.00,4.656
324.00,5.335
325.00,6.032
326.00,6.736
327.00,7.568
328.00,8.360
329.00,9.202
330.00,10.083
331.00,10.909
332.00,11.770
333.00,12.682
334.00,13.480
335.00,14.393
336.00,15.265
337.00,16.094
338.00,16.967
339.00,17.658
340.00,18.503
341.00,19.231
342.00,19.917
343.00,20.539
344.00,21.169
345.00,21.882
346.00,22.402
347.00,22.949
348.00,23.452
349.00,23.872
350.00,24.347
351.00,24.804
352.00,25.102
353.00,25.479
354.00,25.782
355.00,26.155
356.00,26.457
357.00,26.643
358.00,26.937
359.00,27.178
360.00,27.433
361.00,27.502
362.00,27.777
363.00,27.915
364.00,27.998
365.00,28.146
366.00,28.192
367.00,28.357
368.00,28.401
369.00,28.448
370.00,28.520
371.00,28.537
372.00,28.498
373.00,28.493
374.00,28.528
375.00,28.486
376.00,28.386
377.00,28.400
378.00,28.298
379.00,28.175
380.00,28.208
381.00,28.114
382.00,28.158
383.00,28.114
384.00,28.222
385.00,28.259
386.00,28.233
387.00,28.338
388.00,28.380
389.00,28.356
390.00,28.428
391.00,28.445
392.00,28.459
393.00,28.497
394.00,28.514
395.00,28.552
396.00,28.536
397.00,28.594
398.00,28.592
399.00,28.551
400.00,28.561
401.00,28.554
402.00,28.561
403.00,28.558
404.00,28.614
405.00,28.471
406.00,28.467
407.00,28.448
408.00,28.470
409.00,28.372
410.00,28.305
411.00,28.371
412.00,28.325
413.00,28.349
414.00,28.308
415.00,28.297
416.00,28.387
417.00,28.236
418.00,28.302
419.00,28.375
420.00,28.456
421.00,28.461
422.00,28.461
423.00,28.511
424.00,28.547
425.00,28.581
426.00,28.598
427.00,28.648
428.00,28.679
429.00,28.741
430.00,28.794
431.00,28.837
432.00,28.847
433.00,28.898
434.00,28.961
435.00,29.012
436.00,29.057
437.00,29.104
438.00,29.210
439.00,29.257
440.00,29.305
441.00,29.409
442.00,29.463
443.00,29.511
444.00,29.623
445.00,29.690
446.00,29.755
447.00,29.868
448.00,29.985
449.00,30.046
450.00,30.152
451.00,30.202
452.00,30.303
453.00,30.454
454.00,30.549
455.00,30.612
456.00,30.730
457.00,30.814
458.00,30.949
459.00,31.077
460.00,31.187
461.00,31.326
462.00,31.417
463.00,31.561
464.00,31.688
465.00,31.788
466.00,31.894
467.00,32.017
468.00,32.097
469.00,32.182
470.00,32.274
471.00,32.347
472.00,32.516
473.00,32.553
474.00,32.684
475.00,32.798
476.00,32.854
477.00,33.005
478.00,33.090
479.00,33.275
480.00,33.406
481.00,33.527
482.00,33.630
483.00,33.715
484.00,33.863
485.00,34.009
486.00,34.162
487.00,34.304
488.00,34.416
489.00,34.579
490.00,34.728
491.00,34.848
492.00,35.094
493.00,35.199
494.00,35.120
495.00,35.275
496.00,35.439
497.00,35.518
498.00,35.649
499.00,35.785
500.00,35.933
501.00,36.012
502.00,36.136
503.00,36.244
504.00,36.235
505.00,36.422
506.00,36.501
507.00,36.586
508.00,36.667
509.00,36.804
510.00,36.979
511.00,36.944
512.00,37.132
513.00,37.284
514.00,37.392
515.00,37.602
516.00,37.703
517.00,37.647
518.00,37.751
519.00,37.833
520.00,37.814
521.00,37.953
522.00,38.060
523.00,38.010
524.00,38.193
525.00,38.269
526.00,38.337
527.00,38.380
528.00,38.433
529.00,38.600
530.00,38.707
531.00,38.860
532.00,38.865
533.00,39.006
534.00,39.117
535.00,39.187
536.00,39.204
537.00,39.297
538.00,39.384
539.00,39.358
540.00,39.447
541.00,39.487
542.00,39.554
543.00,39.532
544.00,39.626
545.00,39.654
546.00,39.697
547.00,39.794
548.00,39.915
549.00,39.910
550.00,39.988
551.00,40.093
552.00,40.061
553.00,40.107
554.00,40.238
555.00,40.187
556.00,40.194
557.00,40.338
558.00,40.395
559.00,40.430
560.00,40.549
561.00,40.621
562.00,40.622
563.00,40.655
564.00,40.752
565.00,40.730
566.00,40.786
567.00,40.892
568.00,40.787
569.00,40.819
570.00,40.872
571.00,40.972
572.00,40.925
573.00,40.936
574.00,40.987
575.00,40.951
576.00,40.968
577.00,40.998
578.00,41.093
579.00,41.185
580.00,41.186
581.00,41.407
582.00,41.407
583.00,41.370
584.00,41.481
585.00,41.583
586.00,41.619
587.00,41.614
588.00,41.670
589.00,41.638
590.00,41.696
591.00,41.723
592.00,41.644
593.00,41.689
594.00,41.839
595.00,41.838
596.00,41.895
597.00,41.934
598.00,41.962
599.00,41.925
600.00,41.942
601.00,41.984
602.00,41.811
603.00,42.055
604.00,42.307
605.00,42.185
606.00,42.163
607.00,42.157
608.00,42.313
609.00,42.409
610.00,42.127
611.00,42.248
612.00,42.167
613.00,42.302
614.00,42.367
615.00,42.587
616.00,42.606
617.00,42.637
618.00,42.596
619.00,42.678
620.00,42.681
621.00,42.730
622.00,42.862
623.00,42.859
624.00,42.891
625.00,42.975
626.00,43.041
627.00,43.035
628.00,42.979
629.00,43.063
630.00,43.167
631.00,43.154
632.00,43.206
633.00,43.330
634.00,43.377
635.00,43.499
636.00,43.495
637.00,43.535
638.00,43.562
639.00,43.681
640.00,43.701
641.00,43.737
642.00,43.768
643.00,43.764
644.00,43.925
645.00,43.941
646.00,44.062
647.00,44.118
648.00,44.208
649.00,44.242
650.00,44.158
651.00,44.332
652.00,44.414
653.00,44.378
654.00,44.380
655.00,44.604
656.00,44.758
657.00,44.666
658.00,44.756
659.00,44.860
660.00,44.793
661.00,44.849
662.00,44.986
663.00,45.009
664.00,45.308
665.00,45.414
666.00,45.291
667.00,45.354
668.00,45.337
669.00,45.568
670.00,45.750
671.00,45.754
672.00,45.779
673.00,45.844
674.00,45.859
675.00,45.889
676.00,46.055
677.00,46.233
678.00,46.082
679.00,46.111
680.00,46.265
681.00,46.455
682.00,46.441
683.00,46.347
684.00,46.596
685.00,46.760
686.00,46.530
687.00,46.570
688.00,46.672
689.00,46.667
690.00,46.930
691.00,47.104
692.00,46.830
693.00,46.763
694.00,46.923
695.00,47.009
696.00,47.038
697.00,47.123
698.00,47.236
699.00,47.441
700.00,47.309
701.00,47.467
702.00,47.739
703.00,47.684
704.00,47.757
705.00,47.541
706.00,47.652
707.00,47.760
708.00,47.769
709.00,48.355
710.00,47.979
711.00,47.812
712.00,47.966
713.00,48.163
714.00,48.129
715.00,48.279
716.00,48.176
717.00,48.316
718.00,48.413
719.00,48.467
720.00,48.551
721.00,53.062
722.00,52.938
723.00,53.019
724.00,53.042
725.00,52.979
726.00,53.043
727.00,53.042
728.00,53.031
729.00,52.990
730.00,53.098
731.00,53.081
732.00,53.006
733.00,53.125
734.00,53.069
735.00,53.103
736.00,53.088
737.00,53.212
738.00,53.093
739.00,53.096
740.00,53.108
741.00,53.196
742.00,53.222
743.00,53.181
744.00,53.097
745.00,53.169
746.00,53.148
747.00,53.090
748.00,53.056
749.00,53.170
750.00,53.064
751.00,53.057
752.00,53.114
753.00,53.036
754.00,52.994
755.00,53.072
756.00,53.082
757.00,53.122
758.00,53.092
759.00,53.016
760.00,53.037
761.00,53.068
762.00,53.033
763.00,53.054
764.00,53.020
765.00,53.039
766.00,53.083
767.00,53.085
768.00,53.120
769.00,53.010
770.00,53.008
771.00,53.080
772.00,53.148
773.00,53.054
774.00,53.116
775.00,53.070
776.00,53.037
777.00,53.125
778.00,52.899
779.00,53.039
780.00,52.967
781.00,53.067
782.00,53.004
783.00,52.978
784.00,53.050
785.00,52.911
786.00,52.999
787.00,52.981
788.00,52.864
789.00,52.911
790.00,52.893
791.00,52.911
792.00,52.893
793.00,52.833
794.00,52.856
795.00,52.817
796.00,52.851
797.00,52.715
798.00,52.871
799.00,52.779
800.00,52.715
801.00,52.751
802.00,52.653
803.00,52.642
804.00,52.599
805.00,52.702
806.00,52.571
807.00,52.669
808.00,52.597
809.00,52.562
810.00,52.523
811.00,52.571
812.00,52.534
813.00,52.518
814.00,52.481
815.00,52.519
816.00,52.459
817.00,52.477
818.00,52.409
819.00,52.483
820.00,52.356
821.00,52.440
822.00,52.338
823.00,52.386
824.00,52.369
825.00,52.212
826.00,52.291
827.00,52.322
828.00,52.276
829.00,52.284
830.00,52.293
831.00,54.824
832.00,54.867
833.00,54.789
834.00,54.766
835.00,54.822
836.00,54.784
837.00,54.743
838.00,54.714
839.00,54.711
840.00,54.627
841.00,54.657
842.00,54.646
843.00,54.638
844.00,54.670
845.00,54.591
846.00,54.589
847.00,54.558
848.00,54.544
849.00,54.449
850.00,54.490
851.00,54.421
852.00,54.456
853.00,54.348
854.00,54.363
855.00,54.283
856.00,54.360
857.00,54.253
858.00,54.265
859.00,54.240
860.00,54.222
861.00,54.204
862.00,54.274
863.00,54.207
864.00,54.125
865.00,54.134
866.00,54.246
867.00,54.181
868.00,54.127
869.00,54.158
870.00,54.144
871.00,54.100
872.00,54.117
873.00,54.111
874.00,54.101
875.00,53.998
876.00,54.080
877.00,54.180
878.00,54.006
879.00,53.978
880.00,54.044
881.00,53.877
882.00,53.995
883.00,53.969
884.00,53.917
885.00,53.936
886.00,53.914
887.00,53.879
888.00,53.865
889.00,53.843
890.00,53.844
891.00,53.783
892.00,53.793
893.00,53.775
894.00,53.790
895.00,53.741
896.00,53.725
897.00,53.690
898.00,53.672
899.00,53.669
900.00,53.644
901.00,53.670
902.00,53.712
903.00,53.606
904.00,53.611
905.00,53.601
906.00,53.590
907.00,53.591
908.00,53.518
909.00,53.510
910.00,53.499
911.00,53.490
912.00,53.458
913.00,53.429
914.00,53.422
915.00,53.394
916.00,53.397
917.00,53.405
918.00,53.371
919.00,53.316
920.00,53.295
921.00,53.280
922.00,53.306
923.00,53.259
924.00,53.206
925.00,53.239
926.00,53.222
927.00,53.202
928.00,53.182
929.00,53.163
930.00,53.130
931.00,53.128
932.00,53.074
933.00,53.104
934.00,53.068
935.00,53.042
936.00,53.042
937.00,53.023
938.00,53.026
939.00,53.011
940.00,52.961
941.00,52.967
942.00,52.950
943.00,52.929
944.00,52.902
945.00,52.913
946.00,52.895
947.00,52.844
948.00,52.840
949.00,52.827
950.00,52.813
951.00,52.770
952.00,52.756
953.00,52.719
954.00,52.702
955.00,52.665
956.00,52.660
957.00,52.615
958.00,52.642
959.00,52.569
960.00,52.549
961.00,52.566
962.00,52.538
963.00,52.505
964.00,52.512
965.00,52.538
966.00,52.498
967.00,52.515
968.00,52.481
969.00,52.517
970.00,52.491
971.00,52.497
972.00,52.472
973.00,52.493
974.00,52.531
975.00,52.537
976.00,52.503
977.00,52.526
978.00,52.606
979.00,52.498
980.00,52.527
981.00,52.516
982.00,52.469
983.00,52.499
984.00,52.470
985.00,52.480
986.00,52.449
987.00,52.460
988.00,52.446
989.00,52.431
990.00,52.433
991.00,52.414
992.00,52.425
993.00,52.382
994.00,52.381
995.00,52.364
996.00,52.368
997.00,52.362
998.00,52.310
999.00,52.332
1000.00,52.317
1001.00,52.286
1002.00,52.254
1003.00,52.280
1004.00,52.248
1005.00,52.219
1006.00,52.257
1007.00,52.231
1008.00,52.230
1009.00,52.185
1010.00,52.203
1011.00,52.173
1012.00,52.153
1013.00,52.159
1014.00,52.116
1015.00,52.140
1016.00,52.104
1017.00,52.090
1018.00,52.100
1019.00,52.079
1020.00,52.062
1021.00,52.036
1022.00,52.057
1023.00,52.025
1024.00,51.995
1025.00,51.973
1026.00,51.965
1027.00,51.946
1028.00,51.941
1029.00,51.930
1030.00,51.899
1031.00,51.893
1032.00,51.868
1033.00,51.877
1034.00,51.843
1035.00,51.829
1036.00,51.786
1037.00,51.745
1038.00,51.765
1039.00,51.718
1040.00,51.723
1041.00,51.689
1042.00,51.670
1043.00,51.669
1044.00,51.695
1045.00,51.685
1046.00,51.675
1047.00,51.701
1048.00,51.709
1049.00,51.708
1050.00,51.705
1051.00,51.753
1052.00,51.740
1053.00,51.738
1054.00,51.746
1055.00,51.772
1056.00,51.773
1057.00,51.786
1058.00,51.777
1059.00,51.769
1060.00,51.803
1061.00,51.770
1062.00,51.764
1063.00,51.770
1064.00,51.757
1065.00,51.744
1066.00,51.736
1067.00,51.719
1068.00,51.741
1069.00,51.720
1070.00,51.697
1071.00,51.699
1072.00,51.699
1073.00,51.697
1074.00,51.697
1075.00,51.655
1076.00,51.683
1077.00,51.672
1078.00,51.649
1079.00,51.661
1080.00,51.667
1081.00,51.658
1082.00,51.649
1083.00,51.636
1084.00,51.663
1085.00,51.665
1086.00,51.628
1087.00,51.647
1088.00,51.626
1089.00,51.604
1090.00,51.611
1091.00,51.606
1092.00,51.594
1093.00,51.579
1094.00,51.545
1095.00,51.537
1096.00,51.525
1097.00,51.508
1098.00,51.515
1099.00,51.533
1100.00,51.530
1101.00,51.511
1102.00,51.495
1103.00,51.490
1104.00,51.482
1105.00,51.459
1106.00,51.465
1107.00,51.459
1108.00,51.433
1109.00,51.435
1110.00,51.432
1111.00,51.409
1112.00,51.406
1113.00,51.409
1114.00,51.376
1115.00,51.399
1116.00,51.372
1117.00,51.366
1118.00,51.367
1119.00,51.352
1120.00,51.351
1121.00,51.353
1122.00,51.332
1123.00,51.334
1124.00,51.329
1125.00,51.338
1126.00,51.342
1127.00,51.320
1128.00,51.303
1129.00,51.300
1130.00,51.268
1131.00,51.283
1132.00,51.284
1133.00,51.268
1134.00,51.267
1135.00,51.269
1136.00,51.257
1137.00,51.270
1138.00,51.250
1139.00,51.262
1140.00,51.235
1141.00,51.227
1142.00,51.237
1143.00,51.253
1144.00,51.218
1145.00,51.234
1146.00,51.224
1147.00,51.229
1148.00,51.236
1149.00,51.239
1150.00,51.260
1151.00,51.255
1152.00,51.225
1153.00,51.242
1154.00,51.227
1155.00,51.217
1156.00,51.216
1157.00,51.216
1158.00,51.211
1159.00,51.218
1160.00,51.215
1161.00,51.237
1162.00,51.231
1163.00,51.197
1164.00,51.220
1165.00,51.207
1166.00,51.210
1167.00,51.205
1168.00,51.221
1169.00,51.203
1170.00,51.215
1171.00,51.201
1172.00,51.209
1173.00,51.210
1174.00,51.190
1175.00,51.180
1176.00,51.201
1177.00,51.176
1178.00,51.192
1179.00,51.211
1180.00,51.192
1181.00,51.219
1182.00,51.191
1183.00,51.204
1184.00,51.197
1185.00,51.198
1186.00,51.206
1187.00,51.195
1188.00,51.189
1189.00,51.189
1190.00,51.184
1191.00,51.176
1192.00,51.212
1193.00,51.184
1194.00,51.193
1195.00,51.190
1196.00,51.204
1197.00,51.210
1198.00,51.184
1199.00,51.167
1200.00,51.196
1201.00,51.210
1202.00,51.179
1203.00,51.196
1204.00,51.175
1205.00,51.205
1206.00,51.200
1207.00,51.171
1208.00,51.172
1209.00,51.186
1210.00,51.176
1211.00,51.184
1212.00,51.199
1213.00,51.152
1214.00,51.191
1215.00,51.146
1216.00,51.168
1217.00,51.187
1218.00,51.156
1219.00,51.187
1220.00,51.183
1221.00,51.190
1222.00,51.172
1223.00,51.203
1224.00,51.193
1225.00,51.183
1226.00,51.179
1227.00,51.182
1228.00,51.203
1229.00,51.168
1230.00,51.219
1231.00,51.221
1232.00,51.224
1233.00,51.236
1234.00,51.231
1235.00,51.240
1236.00,51.233
1237.00,51.224
1238.00,51.222
1239.00,51.239
1240.00,51.193
1241.00,51.221
1242.00,51.229
1243.00,51.227
1244.00,51.232
1245.00,51.251
1246.00,51.244
1247.00,51.245
1248.00,51.221
1249.00,51.265
1250.00,51.280
1251.00,51.247
1252.00,51.285
1253.00,51.264
1254.00,51.287
1255.00,51.273
1256.00,51.262
1257.00,51.266
1258.00,51.302
1259.00,51.290
1260.00,51.322
1261.00,51.323
1262.00,51.300
1263.00,51.311
1264.00,51.311
1265.00,51.307
1266.00,51.315
1267.00,51.325
1268.00,51.335
1269.00,51.343
1270.00,51.349
1271.00,51.360
1272.00,51.367
1273.00,51.371
1274.00,51.374
1275.00,51.390
1276.00,51.367
1277.00,51.381
1278.00,51.394
1279.00,51.384
1280.00,51.377
1281.00,51.391
1282.00,51.417
1283.00,51.421
1284.00,51.391
1285.00,51.410
1286.00,51.426
1287.00,51.411
1288.00,51.429
1289.00,51.416
1290.00,51.449
1291.00,51.452
1292.00,51.436
1293.00,51.449
1294.00,51.471
1295.00,51.472
1296.00,51.471
1297.00,51.490
1298.00,51.522
1299.00,51.474
1300.00,51.487
1301.00,51.478
1302.00,51.518
1303.00,51.504
1304.00,51.487
1305.00,51.526
1306.00,51.517
1307.00,51.533
1308.00,51.549
1309.00,51.551
1310.00,51.548
1311.00,51.532
1312.00,51.524
1313.00,51.543
1314.00,51.546
1315.00,51.569
1316.00,51.563
1317.00,51.561
1318.00,51.572
1319.00,51.586
1320.00,51.580
1321.00,51.774
1322.00,51.759
1323.00,51.723
1324.00,51.729
1325.00,51.715
1326.00,51.738
1327.00,51.740
1328.00,51.729
1329.00,51.720
1330.00,51.731
1331.00,51.722
1332.00,51.750
1333.00,51.757
1334.00,51.759
1335.00,51.788
1336.00,51.804
1337.00,51.838
1338.00,51.911
1339.00,51.940
1340.00,52.001
1341.00,52.062
1342.00,52.109
1343.00,52.172
1344.00,52.220
1345.00,52.276
1346.00,52.321
1347.00,52.337
1348.00,52.358
1349.00,52.380
1350.00,52.400
1351.00,52.407
1352.00,52.412
1353.00,52.443
1354.00,52.420
1355.00,52.342
1356.00,52.431
1357.00,52.456
1358.00,52.446
1359.00,52.474
1360.00,52.457
1361.00,52.460
1362.00,52.355
1363.00,52.526
1364.00,52.563
1365.00,52.460
1366.00,52.573
1367.00,52.464
1368.00,52.420
1369.00,52.479
1370.00,52.436
1371.00,52.466
1372.00,52.456
1373.00,52.448
1374.00,52.471
1375.00,52.438
1376.00,52.420
1377.00,52.424
1378.00,52.456
1379.00,52.471
1380.00,52.436
1381.00,52.513
1382.00,52.512
1383.00,52.477
1384.00,52.396
1385.00,52.355
1386.00,52.409
1387.00,52.444
1388.00,52.346
1389.00,52.347
1390.00,52.392
1391.00,52.438
1392.00,52.370
1393.00,52.447
1394.00,52.444
1395.00,52.373
1396.00,52.326
1397.00,52.333
1398.00,52.443
1399.00,52.468
1400.00,52.343
1401.00,52.363
1402.00,52.478
1403.00,52.451
1404.00,52.408
1405.00,52.464
1406.00,52.445
1407.00,52.477
1408.00,52.487
1409.00,52.450
1410.00,52.499
1411.00,52.440
1412.00,52.601
1413.00,52.472
1414.00,52.443
1415.00,52.499
1416.00,52.515
1417.00,52.573
1418.00,52.513
1419.00,52.491
1420.00,52.530
1421.00,52.584
1422.00,52.553
1423.00,52.577
1424.00,52.577
1425.00,52.590
1426.00,52.611
1427.00,52.613
1428.00,52.601
1429.00,52.631
1430.00,52.631
1431.00,52.669
1432.00,52.677
1433.00,52.685
1434.00,52.689
1435.00,52.742
1436.00,52.740
1437.00,52.740
1438.00,52.748
1439.00,52.776
1440.00,52.801
1441.00,52.786
1442.00,52.804
1443.00,52.832
1444.00,52.913
1445.00,52.837
1446.00,52.861
1447.00,52.888
1448.00,52.942
1449.00,52.929
1450.00,52.956
1451.00,52.932
1452.00,52.949
1453.00,52.945
1454.00,52.989
1455.00,52.989
1456.00,53.009
1457.00,53.008
1458.00,53.021
1459.00,53.055
1460.00,53.057
1461.00,53.054
1462.00,53.120
1463.00,53.087
1464.00,53.111
1465.00,53.130
1466.00,53.108
1467.00,53.131
1468.00,53.193
1469.00,53.153
1470.00,53.196
1471.00,53.210
1472.00,53.220
1473.00,53.231
1474.00,53.244
1475.00,53.244
1476.00,53.277
1477.00,53.239
1478.00,53.281
1479.00,53.291
1480.00,53.274
1481.00,53.310
1482.00,53.332
1483.00,53.346
1484.00,53.366
1485.00,53.366
1486.00,53.380
1487.00,53.388
1488.00,53.401
1489.00,53.373
1490.00,53.409
1491.00,53.405
1492.00,53.438
1493.00,53.404
1494.00,53.452
1495.00,53.435
1496.00,53.458
1497.00,53.443
1498.00,53.483
1499.00,53.491
1500.00,53.507
1501.00, 
1502.00, 
1503.00, 
1504.00, 
1505.00, 
1506.00, 
1507.00, 
1508.00, 
1509.00, 
1510.00, 
1511.00, 
1512.00, 
1513.00, 
1514.00, 
1515.00, 
1516.00, 
1517.00, 
1518.00, 
1519.00, 
1520.00, 
1521.00, 
1522.00, 
1523.00, 
1524.00, 
1525.00, 
1526.00, 
1527.00, 
1528.00, 
1529.00, 
1530.00, 
1531.00, 
1532.00, 
1533.00, 
1534.00, 
1535.00, 
1536.00, 
1537.00, 
1538.00, 
1539.00, 
1540.00, 
1541.00, 
1542.00, 
1543.00, 
1544.00, 
1545.00, 
1546.00, 
1547.00, 
1548.00, 
1549.00, 
1550.00, 
1551.00, 
1552.00, 
1553.00, 
1554.00, 
1555.00, 
1556.00, 
1557.00, 
1558.00, 
1559.00, 
1560.00, 
1561.00, 
1562.00, 
1563.00, 
1564.00, 
1565.00, 
1566.00, 
1567.00, 
1568.00, 
1569.00, 
1570.00, 
1571.00, 
1572.00, 
1573.00, 
1574.00, 
1575.00, 
1576.00, 
1577.00, 
1578.00, 
1579.00, 
1580.00, 
1581.00, 
1582.00, 
1583.00, 
1584.00, 
1585.00, 
1586.00, 
1587.00, 
1588.00, 
1589.00, 
1590.00, 
1591.00, 
1592.00, 
1593.00, 
1594.00, 
1595.00, 
1596.00, 
1597.00, 
1598.00, 
1599.00, 
1600.00, 
1601.00, 
1602.00, 
1603.00, 
1604.00, 
1605.00, 
1606.00, 
1607.00, 
1608.00, 
1609.00, 
1610.00, 
1611.00, 
1612.00, 
1613.00, 
1614.00, 
1615.00, 
1616.00, 
1617.00, 
1618.00, 
1619.00, 
1620.00, 
1621.00, 
1622.00, 
1623.00, 
1624.00, 
1625.00, 
1626.00, 
1627.00, 
1628.00, 
1629.00, 
1630.00, 
1631.00, 
1632.00, 
1633.00, 
1634.00, 
1635.00, 
1636.00, 
1637.00, 
1638.00, 
1639.00, 
1640.00, 
1641.00, 
1642.00, 
1643.00, 
1644.00, 
1645.00, 
1646.00, 
1647.00, 
1648.00, 
1649.00, 
1650.00, 
1651.00, 
1652.00, 
1653.00, 
1654.00, 
1655.00, 
1656.00, 
1657.00, 
1658.00, 
1659.00, 
1660.00, 
1661.00, 
1662.00, 
1663.00, 
1664.00, 
1665.00, 
1666.00, 
1667.00, 
1668.00, 
1669.00, 
1670.00, 
1671.00, 
1672.00, 
1673.00, 
1674.00, 
1675.00, 
1676.00, 
1677.00, 
1678.00, 
1679.00, 
1680.00, 
1681.00, 
1682.00, 
1683.00, 
1684.00, 
1685.00, 
1686.00, 
1687.00, 
1688.00, 
1689.00, 
1690.00, 
1691.00, 
1692.00, 
1693.00, 
1694.00, 
1695.00, 
1696.00, 
1697.00, 
1698.00, 
1699.00, 
1700.00, 
1701.00, 
1702.00, 
1703.00, 
1704.00, 
1705.00, 
1706.00, 
1707.00, 
1708.00, 
1709.00, 
1710.00, 
1711.00, 
1712.00, 
1713.00, 
1714.00, 
1715.00, 
1716.00, 
1717.00, 
1718.00, 
1719.00, 
1720.00, 
1721.00, 
1722.00, 
1723.00, 
1724.00, 
1725.00, 
1726.00, 
1727.00, 
1728.00, 
1729.00, 
1730.00, 
1731.00, 
1732.00, 
1733.00, 
1734.00, 
1735.00, 
1736.00, 
1737.00, 
1738.00, 
1739.00, 
1740.00, 
1741.00, 
1742.00, 
1743.00, 
1744.00, 
1745.00, 
1746.00, 
1747.00, 
1748.00, 
1749.00, 
1750.00, 
1751.00, 
1752.00, 
1753.00, 
1754.00, 
1755.00, 
1756.00, 
1757.00, 
1758.00, 
1759.00, 
1760.00, 
1761.00, 
1762.00, 
1763.00, 
1764.00, 
1765.00, 
1766.00, 
1767.00, 
1768.00, 
1769.00, 
1770.00, 
1771.00, 
1772.00, 
1773.00, 
1774.00, 
1775.00, 
1776.00, 
1777.00, 
1778.00, 
1779.00, 
1780.00, 
1781.00, 
1782.00, 
1783.00, 
1784.00, 
1785.00, 
1786.00, 
1787.00, 
1788.00, 
1789.00, 
1790.00, 
1791.00, 
1792.00, 
1793.00, 
1794.00, 
1795.00, 
1796.00, 
1797.00, 
1798.00, 
1799.00, 
1800.00, 
1801.00, 
1802.00, 
1803.00, 
1804.00, 
1805.00, 
1806.00, 
1807.00, 
1808.00, 
1809.00, 
1810.00, 
1811.00, 
1812.00, 
1813.00, 
1814.00, 
1815.00, 
1816.00, 
1817.00, 
1818.00, 
1819.00, 
1820.00, 
1821.00, 
1822.00, 
1823.00, 
1824.00, 
1825.00, 
1826.00, 
1827.00, 
1828.00, 
1829.00, 
1830.00, 
1831.00, 
1832.00, 
1833.00, 
1834.00, 
1835.00, 
1836.00, 
1837.00, 
1838.00, 
1839.00, 
1840.00, 
1841.00, 
1842.00, 
1843.00, 
1844.00, 
1845.00, 
1846.00, 
1847.00, 
1848.00, 
1849.00, 
1850.00, 
1851.00, 
1852.00, 
1853.00, 
1854.00, 
1855.00, 
1856.00, 
1857.00, 
1858.00, 
1859.00, 
1860.00, 
1861.00, 
1862.00, 
1863.00, 
1864.00, 
1865.00, 
1866.00, 
1867.00, 
1868.00, 
1869.00, 
1870.00, 
1871.00, 
1872.00, 
1873.00, 
1874.00, 
1875.00, 
1876.00, 
1877.00, 
1878.00, 
1879.00, 
1880.00, 
1881.00, 
1882.00, 
1883.00, 
1884.00, 
1885.00, 
1886.00, 
1887.00, 
1888.00, 
1889.00, 
1890.00, 
1891.00, 
1892.00, 
1893.00, 
1894.00, 
1895.00, 
1896.00, 
1897.00, 
1898.00, 
1899.00, 
1900.00, 
1901.00, 
1902.00, 
1903.00, 
1904.00, 
1905.00, 
1906.00, 
1907.00, 
1908.00, 
1909.00, 
1910.00, 
1911.00, 
1912.00, 
1913.00, 
1914.00, 
1915.00, 
1916.00, 
1917.00, 
1918.00, 
1919.00, 
1920.00, 
1921.00, 
1922.00, 
1923.00, 
1924.00, 
1925.00, 
1926.00, 
1927.00, 
1928.00, 
1929.00, 
1930.00, 
1931.00, 
1932.00, 
1933.00, 
1934.00, 
1935.00, 
1936.00, 
1937.00, 
1938.00, 
1939.00, 
1940.00, 
1941.00, 
1942.00, 
1943.00, 
1944.00, 
1945.00, 
1946.00, 
1947.00, 
1948.00, 
1949.00, 
1950.00, 
1951.00, 
1952.00, 
1953.00, 
1954.00, 
1955.00, 
1956.00, 
1957.00, 
1958.00, 
1959.00, 
1960.00, 
1961.00, 
1962.00, 
1963.00, 
1964.00, 
1965.00, 
1966.00, 
1967.00, 
1968.00, 
1969.00, 
1970.00, 
1971.00, 
1972.00, 
1973.00, 
1974.00, 
1975.00, 
1976.00, 
1977.00, 
1978.00, 
1979.00, 
1980.00, 
1981.00, 
1982.00, 
1983.00, 
1984.00, 
1985.00, 
1986.00, 
1987.00, 
1988.00, 
1989.00, 
1990.00, 
1991.00, 
1992.00, 
1993.00, 
1994.00, 
1995.00, 
1996.00, 
1997.00, 
1998.00, 
1999.00, 
2000.00, 
2001.00, 
2002.00, 
2003.00, 
2004.00, 
2005.00, 
2006.00, 
2007.00, 
2008.00, 
2009.00, 
2010.00, 
2011.00, 
2012.00, 
2013.00, 
2014.00, 
2015.00, 
2016.00, 
2017.00, 
2018.00, 
2019.00, 
2020.00, 
2021.00, 
2022.00, 
2023.00, 
2024.00, 
2025.00, 
2026.00, 
2027.00, 
2028.00, 
2029.00, 
2030.00, 
2031.00, 
2032.00, 
2033.00, 
2034.00, 
2035.00, 
2036.00, 
2037.00, 
2038.00, 
2039.00, 
2040.00, 
2041.00, 
2042.00, 
2043.00, 
2044.00, 
2045.00, 
2046.00, 
2047.00, 
2048.00, 
2049.00, 
2050.00, 
2051.00, 
2052.00, 
2053.00, 
2054.00, 
2055.00, 
2056.00, 
2057.00, 
2058.00, 
2059.00, 
2060.00, 
2061.00, 
2062.00, 
2063.00, 
2064.00, 
2065.00, 
2066.00, 
2067.00, 
2068.00, 
2069.00, 
2070.00, 
2071.00, 
2072.00, 
2073.00, 
2074.00, 
2075.00, 
2076.00, 
2077.00, 
2078.00, 
2079.00, 
2080.00, 
2081.00, 
2082.00, 
2083.00, 
2084.00, 
2085.00, 
2086.00, 
2087.00, 
2088.00, 
2089.00, 
2090.00, 
2091.00, 
2092.00, 
2093.00, 
2094.00, 
2095.00, 
2096.00, 
2097.00, 
2098.00, 
2099.00, 
2100.00, 
2101.00, 
2102.00, 
2103.00, 
2104.00, 
2105.00, 
2106.00, 
2107.00, 
2108.00, 
2109.00, 
2110.00, 
2111.00, 
2112.00, 
2113.00, 
2114.00, 
2115.00, 
2116.00, 
2117.00, 
2118.00, 
2119.00, 
2120.00, 
2121.00, 
2122.00, 
2123.00, 
2124.00, 
2125.00, 
2126.00, 
2127.00, 
2128.00, 
2129.00, 
2130.00, 
2131.00, 
2132.00, 
2133.00, 
2134.00, 
2135.00, 
2136.00, 
2137.00, 
2138.00, 
2139.00, 
2140.00, 
2141.00, 
2142.00, 
2143.00, 
2144.00, 
2145.00, 
2146.00, 
2147.00, 
2148.00, 
2149.00, 
2150.00, 
2151.00, 
2152.00, 
2153.00, 
2154.00, 
2155.00, 
2156.00, 
2157.00, 
2158.00, 
2159.00, 
2160.00, 
2161.00, 
2162.00, 
2163.00, 
2164.00, 
2165.00, 
2166.00, 
2167.00, 
2168.00, 
2169.00, 
2170.00, 
2171.00, 
2172.00, 
2173.00, 
2174.00, 
2175.00, 
2176.00, 
2177.00, 
2178.00, 
2179.00, 
2180.00, 
2181.00, 
2182.00, 
2183.00, 
2184.00, 
2185.00, 
2186.00, 
2187.00, 
2188.00, 
2189.00, 
2190.00, 
2191.00, 
2192.00, 
2193.00, 
2194.00, 
2195.00, 
2196.00, 
2197.00, 
2198.00, 
2199.00, 
2200.00, 
2201.00, 
2202.00, 
2203.00, 
2204.00, 
2205.00, 
2206.00, 
2207.00, 
2208.00, 
2209.00, 
2210.00, 
2211.00, 
2212.00, 
2213.00, 
2214.00, 
2215.00, 
2216.00, 
2217.00, 
2218.00, 
2219.00, 
2220.00, 
2221.00, 
2222.00, 
2223.00, 
2224.00, 
2225.00, 
2226.00, 
2227.00, 
2228.00, 
2229.00, 
2230.00, 
2231.00, 
2232.00, 
2233.00, 
2234.00, 
2235.00, 
2236.00, 
2237.00, 
2238.00, 
2239.00, 
2240.00, 
2241.00, 
2242.00, 
2243.00, 
2244.00, 
2245.00, 
2246.00, 
2247.00, 
2248.00, 
2249.00, 
2250.00, 
2251.00, 
2252.00, 
2253.00, 
2254.00, 
2255.00, 
2256.00, 
2257.00, 
2258.00, 
2259.00, 
2260.00, 
2261.00, 
2262.00, 
2263.00, 
2264.00, 
2265.00, 
2266.00, 
2267.00, 
2268.00, 
2269.00, 
2270.00, 
2271.00, 
2272.00, 
2273.00, 
2274.00, 
2275.00, 
2276.00, 
2277.00, 
2278.00, 
2279.00, 
2280.00, 
2281.00, 
2282.00, 
2283.00, 
2284.00, 
2285.00, 
2286.00, 
2287.00, 
2288.00, 
2289.00, 
2290.00, 
2291.00, 
2292.00, 
2293.00, 
2294.00, 
2295.00, 
2296.00, 
2297.00, 
2298.00, 
2299.00, 
2300.00, 
2301.00, 
2302.00, 
2303.00, 
2304.00, 
2305.00, 
2306.00, 
2307.00, 
2308.00, 
2309.00, 
2310.00, 
2311.00, 
2312.00, 
2313.00, 
2314.00, 
2315.00, 
2316.00, 
2317.00, 
2318.00, 
2319.00, 
2320.00, 
2321.00, 
2322.00, 
2323.00, 
2324.00, 
2325.00, 
2326.00, 
2327.00, 
2328.00, 
2329.00, 
2330.00, 
2331.00, 
2332.00, 
2333.00, 
2334.00, 
2335.00, 
2336.00, 
2337.00, 
2338.00, 
2339.00, 
2340.00, 
2341.00, 
2342.00, 
2343.00, 
2344.00, 
2345.00, 
2346.00, 
2347.00, 
2348.00, 
2349.00, 
2350.00, 
2351.00, 
2352.00, 
2353.00, 
2354.00, 
2355.00, 
2356.00, 
2357.00, 
2358.00, 
2359.00, 
2360.00, 
2361.00, 
2362.00, 
2363.00, 
2364.00, 
2365.00, 
2366.00, 
2367.00, 
2368.00, 
2369.00, 
2370.00, 
2371.00, 
2372.00, 
2373.00, 
2374.00, 
2375.00, 
2376.00, 
2377.00, 
2378.00, 
2379.00, 
2380.00, 
2381.00, 
2382.00, 
2383.00, 
2384.00, 
2385.00, 
2386.00, 
2387.00, 
2388.00, 
2389.00, 
2390.00, 
2391.00, 
2392.00, 
2393.00, 
2394.00, 
2395.00, 
2396.00, 
2397.00, 
2398.00, 
2399.00, 
2400.00, 
2401.00, 
2402.00, 
2403.00, 
2404.00, 
2405.00, 
2406.00, 
2407.00, 
2408.00, 
2409.00, 
2410.00, 
2411.00, 
2412.00, 
2413.00, 
2414.00, 
2415.00, 
2416.00, 
2417.00, 
2418.00, 
2419.00, 
2420.00, 
2421.00, 
2422.00, 
2423.00, 
2424.00, 
2425.00, 
2426.00, 
2427.00, 
2428.00, 
2429.00, 
2430.00, 
2431.00, 
2432.00, 
2433.00, 
2434.00, 
2435.00, 
2436.00, 
2437.00, 
2438.00, 
2439.00, 
2440.00, 
2441.00, 
2442.00, 
2443.00, 
2444.00, 
2445.00, 
2446.00, 
2447.00, 
2448.00, 
2449.00, 
2450.00, 
2451.00, 
2452.00, 
2453.00, 
2454.00, 
2455.00, 
2456.00, 
2457.00, 
2458.00, 
2459.00, 
2460.00, 
2461.00, 
2462.00, 
2463.00, 
2464.00, 
2465.00, 
2466.00, 
2467.00, 
2468.00, 
2469.00, 
2470.00, 
2471.00, 
2472.00, 
2473.00, 
2474.00, 
2475.00, 
2476.00, 
2477.00, 
2478.00, 
2479.00, 
2480.00, 
2481.00, 
2482.00, 
2483.00, 
2484.00, 
2485.00, 
2486.00, 
2487.00, 
2488.00, 
2489.00, 
2490.00, 
2491.00, 
2492.00, 
2493.00, 
2494.00, 
2495.00, 
2496.00, 
2497.00, 
2498.00, 
2499.00, 
2500.00, 
2501.00, 
2502.00, 
2503.00, 
2504.00, 
2505.00, 
2506.00, 
2507.00, 
2508.00, 
2509.00, 
2510.00, 
2511.00, 
2512.00, 
2513.00, 
2514.00, 
2515.00, 
2516.00, 
2517.00, 
2518.00, 
2519.00, 
2520.00, 
2521.00, 
2522.00, 
2523.00, 
2524.00, 
2525.00, 
2526.00, 
2527.00, 
2528.00, 
2529.00, 
2530.00, 
2531.00, 
2532.00, 
2533.00, 
2534.00, 
2535.00, 
2536.00, 
2537.00, 
2538.00, 
2539.00, 
2540.00, 
2541.00, 
2542.00, 
2543.00, 
2544.00, 
2545.00, 
2546.00, 
2547.00, 
2548.00, 
2549.00, 
2550.00, 
2551.00, 
2552.00, 
2553.00, 
2554.00, 
2555.00, 
2556.00, 
2557.00, 
2558.00, 
2559.00, 
2560.00, 
2561.00, 
2562.00, 
2563.00, 
2564.00, 
2565.00, 
2566.00, 
2567.00, 
2568.00, 
2569.00, 
2570.00, 
2571.00, 
2572.00, 
2573.00, 
2574.00, 
2575.00, 
2576.00, 
2577.00, 
2578.00, 
2579.00, 
2580.00, 
2581.00, 
2582.00, 
2583.00, 
2584.00, 
2585.00, 
2586.00, 
2587.00, 
2588.00, 
2589.00, 
2590.00, 
2591.00, 
2592.00, 
2593.00, 
2594.00, 
2595.00, 
2596.00, 
2597.00, 
2598.00, 
2599.00, 
2600.00, 
