"1cP1 - RawData"
"Wavelength nm.","T%"
200.00,0.001
201.00,0.003
202.00,-0.002
203.00,0.002
204.00,0.003
205.00,0.001
206.00,-0.003
207.00,-0.003
208.00,0.002
209.00,0.000
210.00,0.001
211.00,0.003
212.00,0.002
213.00,-0.001
214.00,-0.000
215.00,-0.002
216.00,0.002
217.00,0.003
218.00,0.003
219.00,0.002
220.00,0.000
221.00,0.001
222.00,-0.000
223.00,0.002
224.00,0.002
225.00,0.001
226.00,0.000
227.00,-0.000
228.00,-0.001
229.00,0.000
230.00,0.002
231.00,0.001
232.00,-0.002
233.00,-0.000
234.00,-0.002
235.00,0.002
236.00,-0.000
237.00,0.001
238.00,-0.001
239.00,0.002
240.00,-0.001
241.00,0.001
242.00,0.000
243.00,0.002
244.00,0.001
245.00,0.001
246.00,0.000
247.00,0.000
248.00,0.001
249.00,0.000
250.00,-0.001
251.00,-0.002
252.00,0.000
253.00,0.000
254.00,0.001
255.00,-0.002
256.00,-0.002
257.00,-0.001
258.00,-0.001
259.00,-0.000
260.00,0.001
261.00,0.001
262.00,-0.001
263.00,-0.002
264.00,0.002
265.00,0.002
266.00,0.002
267.00,0.000
268.00,0.000
269.00,0.000
270.00,0.002
271.00,0.001
272.00,0.000
273.00,0.000
274.00,-0.001
275.00,0.000
276.00,-0.001
277.00,-0.000
278.00,0.001
279.00,-0.001
280.00,-0.001
281.00,0.001
282.00,0.001
283.00,0.000
284.00,0.000
285.00,-0.000
286.00,-0.000
287.00,0.001
288.00,0.002
289.00,0.000
290.00,-0.003
291.00,-0.000
292.00,-0.000
293.00,0.001
294.00,0.001
295.00,0.000
296.00,-0.000
297.00,0.000
298.00,0.001
299.00,-0.001
300.00,0.002
301.00,0.001
302.00,0.001
303.00,0.001
304.00,0.002
305.00,-0.001
306.00,0.001
307.00,0.002
308.00,0.006
309.00,0.011
310.00,0.018
311.00,0.029
312.00,0.043
313.00,0.065
314.00,0.096
315.00,0.138
316.00,0.200
317.00,0.287
318.00,0.383
319.00,0.523
320.00,0.697
321.00,0.904
322.00,1.151
323.00,1.451
324.00,1.785
325.00,2.168
326.00,2.581
327.00,3.043
328.00,3.569
329.00,4.105
330.00,4.722
331.00,5.305
332.00,5.977
333.00,6.670
334.00,7.367
335.00,8.118
336.00,8.869
337.00,9.617
338.00,10.370
339.00,11.034
340.00,11.786
341.00,12.521
342.00,13.205
343.00,13.828
344.00,14.492
345.00,15.165
346.00,15.741
347.00,16.278
348.00,16.816
349.00,17.303
350.00,17.817
351.00,18.287
352.00,18.628
353.00,19.008
354.00,19.448
355.00,19.742
356.00,20.107
357.00,20.409
358.00,20.735
359.00,21.026
360.00,21.330
361.00,21.430
362.00,21.682
363.00,21.873
364.00,21.986
365.00,22.104
366.00,22.218
367.00,22.336
368.00,22.413
369.00,22.497
370.00,22.584
371.00,22.607
372.00,22.550
373.00,22.539
374.00,22.558
375.00,22.542
376.00,22.419
377.00,22.375
378.00,22.315
379.00,22.170
380.00,22.179
381.00,22.171
382.00,22.165
383.00,22.203
384.00,22.249
385.00,22.299
386.00,22.354
387.00,22.429
388.00,22.534
389.00,22.548
390.00,22.629
391.00,22.674
392.00,22.680
393.00,22.749
394.00,22.763
395.00,22.766
396.00,22.725
397.00,22.796
398.00,22.820
399.00,22.861
400.00,22.893
401.00,22.843
402.00,22.870
403.00,22.864
404.00,22.908
405.00,22.815
406.00,22.828
407.00,22.788
408.00,22.777
409.00,22.708
410.00,22.645
411.00,22.674
412.00,22.644
413.00,22.633
414.00,22.597
415.00,22.610
416.00,22.644
417.00,22.565
418.00,22.633
419.00,22.706
420.00,22.756
421.00,22.763
422.00,22.762
423.00,22.817
424.00,22.823
425.00,22.818
426.00,22.874
427.00,22.891
428.00,22.985
429.00,23.013
430.00,23.049
431.00,23.108
432.00,23.114
433.00,23.210
434.00,23.255
435.00,23.311
436.00,23.319
437.00,23.376
438.00,23.493
439.00,23.527
440.00,23.567
441.00,23.642
442.00,23.705
443.00,23.783
444.00,23.903
445.00,23.984
446.00,24.061
447.00,24.163
448.00,24.273
449.00,24.368
450.00,24.447
451.00,24.557
452.00,24.650
453.00,24.755
454.00,24.874
455.00,24.981
456.00,25.081
457.00,25.192
458.00,25.271
459.00,25.401
460.00,25.543
461.00,25.659
462.00,25.770
463.00,25.882
464.00,26.021
465.00,26.145
466.00,26.292
467.00,26.398
468.00,26.467
469.00,26.594
470.00,26.669
471.00,26.757
472.00,26.901
473.00,26.972
474.00,27.104
475.00,27.230
476.00,27.305
477.00,27.463
478.00,27.510
479.00,27.740
480.00,27.871
481.00,28.007
482.00,28.128
483.00,28.265
484.00,28.421
485.00,28.579
486.00,28.624
487.00,28.861
488.00,28.944
489.00,29.188
490.00,29.307
491.00,29.412
492.00,29.644
493.00,29.755
494.00,29.716
495.00,29.925
496.00,29.968
497.00,30.144
498.00,30.339
499.00,30.425
500.00,30.568
501.00,30.684
502.00,30.823
503.00,30.945
504.00,30.997
505.00,31.192
506.00,31.297
507.00,31.354
508.00,31.472
509.00,31.648
510.00,31.790
511.00,31.886
512.00,32.022
513.00,32.162
514.00,32.239
515.00,32.503
516.00,32.598
517.00,32.579
518.00,32.739
519.00,32.813
520.00,32.805
521.00,32.972
522.00,33.051
523.00,33.096
524.00,33.236
525.00,33.301
526.00,33.460
527.00,33.473
528.00,33.540
529.00,33.758
530.00,33.861
531.00,34.000
532.00,34.039
533.00,34.157
534.00,34.262
535.00,34.327
536.00,34.408
537.00,34.485
538.00,34.616
539.00,34.606
540.00,34.658
541.00,34.657
542.00,34.822
543.00,34.875
544.00,34.967
545.00,35.022
546.00,35.096
547.00,35.214
548.00,35.353
549.00,35.334
550.00,35.455
551.00,35.558
552.00,35.542
553.00,35.673
554.00,35.747
555.00,35.702
556.00,35.800
557.00,35.905
558.00,35.958
559.00,36.024
560.00,36.105
561.00,36.187
562.00,36.236
563.00,36.272
564.00,36.365
565.00,36.377
566.00,36.425
567.00,36.523
568.00,36.459
569.00,36.544
570.00,36.550
571.00,36.604
572.00,36.641
573.00,36.583
574.00,36.714
575.00,36.709
576.00,36.741
577.00,36.780
578.00,36.873
579.00,36.960
580.00,36.952
581.00,37.166
582.00,37.200
583.00,37.197
584.00,37.273
585.00,37.320
586.00,37.350
587.00,37.436
588.00,37.475
589.00,37.488
590.00,37.561
591.00,37.606
592.00,37.603
593.00,37.636
594.00,37.721
595.00,37.833
596.00,37.862
597.00,37.939
598.00,37.963
599.00,37.945
600.00,37.951
601.00,38.028
602.00,38.044
603.00,38.119
604.00,38.197
605.00,38.251
606.00,38.236
607.00,38.284
608.00,38.464
609.00,38.545
610.00,38.395
611.00,38.510
612.00,38.517
613.00,38.602
614.00,38.624
615.00,38.694
616.00,38.760
617.00,38.716
618.00,38.761
619.00,38.846
620.00,38.859
621.00,38.968
622.00,39.012
623.00,39.074
624.00,39.125
625.00,39.188
626.00,39.243
627.00,39.338
628.00,39.284
629.00,39.345
630.00,39.443
631.00,39.456
632.00,39.503
633.00,39.637
634.00,39.693
635.00,39.775
636.00,39.873
637.00,39.863
638.00,39.920
639.00,40.025
640.00,40.023
641.00,40.097
642.00,40.171
643.00,40.182
644.00,40.233
645.00,40.400
646.00,40.573
647.00,40.587
648.00,40.633
649.00,40.660
650.00,40.674
651.00,40.867
652.00,40.921
653.00,40.962
654.00,40.959
655.00,41.172
656.00,41.441
657.00,41.284
658.00,41.345
659.00,41.521
660.00,41.467
661.00,41.568
662.00,41.692
663.00,41.694
664.00,42.029
665.00,42.137
666.00,42.038
667.00,42.060
668.00,42.126
669.00,42.266
670.00,42.501
671.00,42.599
672.00,42.985
673.00,42.674
674.00,42.762
675.00,42.765
676.00,42.945
677.00,43.172
678.00,42.864
679.00,43.070
680.00,43.173
681.00,43.320
682.00,43.417
683.00,43.373
684.00,43.460
685.00,43.596
686.00,43.395
687.00,43.563
688.00,43.592
689.00,43.875
690.00,44.228
691.00,44.313
692.00,44.063
693.00,44.074
694.00,44.263
695.00,44.423
696.00,44.384
697.00,44.455
698.00,44.574
699.00,44.888
700.00,44.887
701.00,44.785
702.00,44.945
703.00,45.121
704.00,45.175
705.00,45.016
706.00,45.094
707.00,45.126
708.00,45.213
709.00,45.793
710.00,45.378
711.00,45.125
712.00,45.536
713.00,45.910
714.00,45.702
715.00,45.791
716.00,45.710
717.00,45.910
718.00,46.040
719.00,46.006
720.00,46.121
721.00,50.700
722.00,50.668
723.00,50.671
724.00,50.609
725.00,50.646
726.00,50.698
727.00,50.703
728.00,50.772
729.00,50.762
730.00,50.781
731.00,50.798
732.00,50.832
733.00,50.865
734.00,50.883
735.00,50.959
736.00,50.927
737.00,51.041
738.00,51.062
739.00,51.054
740.00,51.022
741.00,51.089
742.00,51.120
743.00,51.058
744.00,51.060
745.00,51.069
746.00,51.116
747.00,51.093
748.00,51.071
749.00,51.145
750.00,51.018
751.00,51.030
752.00,51.085
753.00,51.053
754.00,51.029
755.00,51.094
756.00,51.119
757.00,51.115
758.00,51.079
759.00,51.062
760.00,51.123
761.00,51.117
762.00,51.120
763.00,51.203
764.00,51.138
765.00,51.159
766.00,51.249
767.00,51.220
768.00,51.260
769.00,51.143
770.00,51.238
771.00,51.201
772.00,51.272
773.00,51.225
774.00,51.321
775.00,51.294
776.00,51.189
777.00,51.246
778.00,51.157
779.00,51.205
780.00,51.220
781.00,51.294
782.00,51.224
783.00,51.155
784.00,51.266
785.00,51.173
786.00,51.199
787.00,51.182
788.00,51.148
789.00,51.127
790.00,51.115
791.00,51.166
792.00,51.150
793.00,51.177
794.00,51.083
795.00,51.065
796.00,51.104
797.00,51.017
798.00,51.099
799.00,51.077
800.00,51.049
801.00,51.055
802.00,50.994
803.00,50.970
804.00,50.926
805.00,51.017
806.00,50.834
807.00,51.022
808.00,50.860
809.00,50.856
810.00,50.855
811.00,50.875
812.00,50.854
813.00,50.748
814.00,50.759
815.00,50.874
816.00,50.788
817.00,50.718
818.00,50.683
819.00,50.706
820.00,50.701
821.00,50.665
822.00,50.729
823.00,50.684
824.00,50.686
825.00,50.580
826.00,50.540
827.00,50.667
828.00,50.557
829.00,50.587
830.00,50.611
831.00,52.842
832.00,52.869
833.00,52.793
834.00,52.815
835.00,52.781
836.00,52.796
837.00,52.735
838.00,52.719
839.00,52.714
840.00,52.683
841.00,52.660
842.00,52.635
843.00,52.641
844.00,52.637
845.00,52.599
846.00,52.594
847.00,52.555
848.00,52.530
849.00,52.491
850.00,52.480
851.00,52.396
852.00,52.431
853.00,52.355
854.00,52.353
855.00,52.279
856.00,52.316
857.00,52.279
858.00,52.241
859.00,52.230
860.00,52.249
861.00,52.202
862.00,52.162
863.00,52.187
864.00,52.133
865.00,52.152
866.00,52.208
867.00,52.185
868.00,52.099
869.00,52.118
870.00,52.081
871.00,52.077
872.00,52.088
873.00,52.085
874.00,52.029
875.00,52.087
876.00,52.063
877.00,52.009
878.00,51.996
879.00,51.945
880.00,52.002
881.00,51.861
882.00,51.954
883.00,51.910
884.00,51.856
885.00,51.864
886.00,51.833
887.00,51.797
888.00,51.796
889.00,51.783
890.00,51.779
891.00,51.730
892.00,51.717
893.00,51.692
894.00,51.710
895.00,51.659
896.00,51.654
897.00,51.608
898.00,51.606
899.00,51.589
900.00,51.575
901.00,51.570
902.00,51.589
903.00,51.520
904.00,51.523
905.00,51.525
906.00,51.506
907.00,51.485
908.00,51.424
909.00,51.428
910.00,51.409
911.00,51.389
912.00,51.366
913.00,51.323
914.00,51.288
915.00,51.381
916.00,51.290
917.00,51.294
918.00,51.254
919.00,51.227
920.00,51.197
921.00,51.175
922.00,51.184
923.00,51.146
924.00,51.116
925.00,51.130
926.00,51.099
927.00,51.077
928.00,51.051
929.00,51.053
930.00,51.014
931.00,51.033
932.00,50.983
933.00,50.999
934.00,50.956
935.00,50.944
936.00,50.931
937.00,50.905
938.00,50.904
939.00,50.887
940.00,50.846
941.00,50.845
942.00,50.815
943.00,50.793
944.00,50.752
945.00,50.758
946.00,50.722
947.00,50.689
948.00,50.671
949.00,50.653
950.00,50.645
951.00,50.601
952.00,50.592
953.00,50.547
954.00,50.531
955.00,50.492
956.00,50.499
957.00,50.465
958.00,50.476
959.00,50.392
960.00,50.393
961.00,50.394
962.00,50.388
963.00,50.341
964.00,50.347
965.00,50.353
966.00,50.308
967.00,50.318
968.00,50.275
969.00,50.319
970.00,50.279
971.00,50.287
972.00,50.265
973.00,50.304
974.00,50.290
975.00,50.254
976.00,50.312
977.00,50.290
978.00,50.324
979.00,50.274
980.00,50.309
981.00,50.293
982.00,50.265
983.00,50.287
984.00,50.256
985.00,50.274
986.00,50.232
987.00,50.242
988.00,50.212
989.00,50.190
990.00,50.182
991.00,50.184
992.00,50.178
993.00,50.152
994.00,50.142
995.00,50.129
996.00,50.129
997.00,50.122
998.00,50.092
999.00,50.119
1000.00,50.078
1001.00,50.072
1002.00,50.070
1003.00,50.066
1004.00,50.022
1005.00,49.991
1006.00,50.066
1007.00,50.003
1008.00,49.997
1009.00,49.966
1010.00,49.987
1011.00,49.942
1012.00,49.902
1013.00,49.931
1014.00,49.884
1015.00,49.907
1016.00,49.856
1017.00,49.844
1018.00,49.839
1019.00,49.808
1020.00,49.803
1021.00,49.799
1022.00,49.794
1023.00,49.735
1024.00,49.761
1025.00,49.728
1026.00,49.720
1027.00,49.709
1028.00,49.697
1029.00,49.681
1030.00,49.658
1031.00,49.667
1032.00,49.615
1033.00,49.627
1034.00,49.619
1035.00,49.564
1036.00,49.528
1037.00,49.518
1038.00,49.509
1039.00,49.465
1040.00,49.479
1041.00,49.445
1042.00,49.416
1043.00,49.415
1044.00,49.444
1045.00,49.412
1046.00,49.402
1047.00,49.434
1048.00,49.445
1049.00,49.449
1050.00,49.436
1051.00,49.504
1052.00,49.515
1053.00,49.494
1054.00,49.512
1055.00,49.533
1056.00,49.537
1057.00,49.543
1058.00,49.525
1059.00,49.507
1060.00,49.530
1061.00,49.512
1062.00,49.510
1063.00,49.521
1064.00,49.510
1065.00,49.506
1066.00,49.497
1067.00,49.500
1068.00,49.513
1069.00,49.458
1070.00,49.434
1071.00,49.425
1072.00,49.450
1073.00,49.431
1074.00,49.430
1075.00,49.401
1076.00,49.411
1077.00,49.390
1078.00,49.357
1079.00,49.364
1080.00,49.365
1081.00,49.365
1082.00,49.395
1083.00,49.372
1084.00,49.343
1085.00,49.347
1086.00,49.319
1087.00,49.333
1088.00,49.317
1089.00,49.309
1090.00,49.314
1091.00,49.304
1092.00,49.297
1093.00,49.287
1094.00,49.268
1095.00,49.267
1096.00,49.256
1097.00,49.240
1098.00,49.239
1099.00,49.229
1100.00,49.216
1101.00,49.217
1102.00,49.190
1103.00,49.195
1104.00,49.192
1105.00,49.175
1106.00,49.163
1107.00,49.163
1108.00,49.139
1109.00,49.137
1110.00,49.136
1111.00,49.126
1112.00,49.117
1113.00,49.107
1114.00,49.095
1115.00,49.114
1116.00,49.081
1117.00,49.076
1118.00,49.073
1119.00,49.059
1120.00,49.060
1121.00,49.048
1122.00,49.019
1123.00,49.031
1124.00,49.024
1125.00,49.023
1126.00,49.028
1127.00,49.023
1128.00,49.023
1129.00,48.992
1130.00,48.971
1131.00,48.980
1132.00,48.969
1133.00,48.962
1134.00,48.965
1135.00,48.957
1136.00,48.949
1137.00,48.959
1138.00,48.941
1139.00,48.955
1140.00,48.952
1141.00,48.936
1142.00,48.922
1143.00,48.940
1144.00,48.900
1145.00,48.912
1146.00,48.894
1147.00,48.893
1148.00,48.899
1149.00,48.906
1150.00,48.911
1151.00,48.916
1152.00,48.889
1153.00,48.906
1154.00,48.903
1155.00,48.893
1156.00,48.892
1157.00,48.888
1158.00,48.888
1159.00,48.901
1160.00,48.888
1161.00,48.905
1162.00,48.901
1163.00,48.887
1164.00,48.902
1165.00,48.895
1166.00,48.901
1167.00,48.898
1168.00,48.905
1169.00,48.890
1170.00,48.885
1171.00,48.872
1172.00,48.863
1173.00,48.864
1174.00,48.885
1175.00,48.869
1176.00,48.872
1177.00,48.860
1178.00,48.866
1179.00,48.881
1180.00,48.868
1181.00,48.888
1182.00,48.867
1183.00,48.867
1184.00,48.854
1185.00,48.872
1186.00,48.871
1187.00,48.873
1188.00,48.856
1189.00,48.870
1190.00,48.849
1191.00,48.845
1192.00,48.879
1193.00,48.853
1194.00,48.866
1195.00,48.850
1196.00,48.864
1197.00,48.867
1198.00,48.855
1199.00,48.839
1200.00,48.859
1201.00,48.857
1202.00,48.835
1203.00,48.840
1204.00,48.828
1205.00,48.866
1206.00,48.860
1207.00,48.841
1208.00,48.847
1209.00,48.861
1210.00,48.855
1211.00,48.860
1212.00,48.865
1213.00,48.821
1214.00,48.850
1215.00,48.820
1216.00,48.842
1217.00,48.840
1218.00,48.820
1219.00,48.846
1220.00,48.832
1221.00,48.837
1222.00,48.834
1223.00,48.859
1224.00,48.865
1225.00,48.868
1226.00,48.856
1227.00,48.849
1228.00,48.874
1229.00,48.863
1230.00,48.898
1231.00,48.880
1232.00,48.891
1233.00,48.909
1234.00,48.911
1235.00,48.938
1236.00,48.925
1237.00,48.926
1238.00,48.928
1239.00,48.951
1240.00,48.910
1241.00,48.932
1242.00,48.935
1243.00,48.939
1244.00,48.932
1245.00,48.957
1246.00,48.963
1247.00,48.957
1248.00,48.944
1249.00,48.971
1250.00,48.986
1251.00,48.946
1252.00,48.962
1253.00,48.952
1254.00,48.971
1255.00,48.978
1256.00,48.963
1257.00,48.957
1258.00,48.995
1259.00,48.993
1260.00,49.023
1261.00,49.015
1262.00,49.015
1263.00,49.024
1264.00,49.015
1265.00,49.011
1266.00,49.031
1267.00,49.046
1268.00,49.049
1269.00,49.052
1270.00,49.077
1271.00,49.091
1272.00,49.083
1273.00,49.093
1274.00,49.094
1275.00,49.100
1276.00,49.085
1277.00,49.109
1278.00,49.102
1279.00,49.096
1280.00,49.120
1281.00,49.140
1282.00,49.141
1283.00,49.145
1284.00,49.146
1285.00,49.138
1286.00,49.167
1287.00,49.151
1288.00,49.165
1289.00,49.150
1290.00,49.172
1291.00,49.181
1292.00,49.163
1293.00,49.194
1294.00,49.213
1295.00,49.215
1296.00,49.230
1297.00,49.215
1298.00,49.226
1299.00,49.219
1300.00,49.238
1301.00,49.229
1302.00,49.260
1303.00,49.257
1304.00,49.253
1305.00,49.288
1306.00,49.275
1307.00,49.291
1308.00,49.287
1309.00,49.290
1310.00,49.303
1311.00,49.270
1312.00,49.280
1313.00,49.307
1314.00,49.315
1315.00,49.342
1316.00,49.365
1317.00,49.382
1318.00,49.379
1319.00,49.389
1320.00,49.399
1321.00,49.530
1322.00,49.523
1323.00,49.507
1324.00,49.530
1325.00,49.508
1326.00,49.528
1327.00,49.533
1328.00,49.517
1329.00,49.523
1330.00,49.537
1331.00,49.522
1332.00,49.539
1333.00,49.557
1334.00,49.606
1335.00,49.577
1336.00,49.616
1337.00,49.627
1338.00,49.693
1339.00,49.747
1340.00,49.851
1341.00,49.916
1342.00,49.958
1343.00,50.021
1344.00,50.074
1345.00,50.117
1346.00,50.161
1347.00,50.182
1348.00,50.195
1349.00,50.215
1350.00,50.217
1351.00,50.233
1352.00,50.247
1353.00,50.281
1354.00,50.266
1355.00,50.197
1356.00,50.337
1357.00,50.212
1358.00,50.308
1359.00,50.338
1360.00,50.310
1361.00,50.232
1362.00,50.219
1363.00,50.422
1364.00,50.422
1365.00,50.304
1366.00,50.428
1367.00,50.331
1368.00,50.296
1369.00,50.354
1370.00,50.301
1371.00,50.502
1372.00,50.334
1373.00,50.331
1374.00,50.351
1375.00,50.321
1376.00,50.300
1377.00,50.337
1378.00,50.347
1379.00,50.366
1380.00,50.308
1381.00,50.397
1382.00,50.303
1383.00,50.348
1384.00,50.306
1385.00,50.279
1386.00,50.405
1387.00,50.369
1388.00,50.258
1389.00,50.260
1390.00,50.328
1391.00,50.288
1392.00,50.267
1393.00,50.309
1394.00,50.328
1395.00,50.271
1396.00,50.232
1397.00,50.278
1398.00,50.343
1399.00,50.346
1400.00,50.196
1401.00,50.303
1402.00,50.142
1403.00,50.326
1404.00,50.320
1405.00,50.359
1406.00,50.360
1407.00,50.377
1408.00,50.399
1409.00,50.362
1410.00,50.426
1411.00,50.395
1412.00,50.478
1413.00,50.407
1414.00,50.392
1415.00,50.438
1416.00,50.446
1417.00,50.485
1418.00,50.452
1419.00,50.463
1420.00,50.496
1421.00,50.541
1422.00,50.538
1423.00,50.566
1424.00,50.548
1425.00,50.570
1426.00,50.591
1427.00,50.612
1428.00,50.595
1429.00,50.630
1430.00,50.637
1431.00,50.665
1432.00,50.680
1433.00,50.685
1434.00,50.684
1435.00,50.743
1436.00,50.738
1437.00,50.753
1438.00,50.763
1439.00,50.793
1440.00,50.788
1441.00,50.795
1442.00,50.828
1443.00,50.865
1444.00,50.908
1445.00,50.874
1446.00,50.907
1447.00,50.918
1448.00,50.970
1449.00,50.961
1450.00,50.975
1451.00,50.987
1452.00,51.017
1453.00,51.020
1454.00,51.055
1455.00,51.059
1456.00,51.086
1457.00,51.084
1458.00,51.102
1459.00,51.126
1460.00,51.148
1461.00,51.150
1462.00,51.219
1463.00,51.188
1464.00,51.216
1465.00,51.223
1466.00,51.221
1467.00,51.261
1468.00,51.311
1469.00,51.285
1470.00,51.322
1471.00,51.329
1472.00,51.342
1473.00,51.357
1474.00,51.395
1475.00,51.399
1476.00,51.414
1477.00,51.392
1478.00,51.439
1479.00,51.453
1480.00,51.447
1481.00,51.473
1482.00,51.482
1483.00,51.504
1484.00,51.512
1485.00,51.514
1486.00,51.540
1487.00,51.554
1488.00,51.586
1489.00,51.577
1490.00,51.597
1491.00,51.614
1492.00,51.644
1493.00,51.609
1494.00,51.658
1495.00,51.648
1496.00,51.660
1497.00,51.661
1498.00,51.695
1499.00,51.701
1500.00,51.730
1501.00, 
1502.00, 
1503.00, 
1504.00, 
1505.00, 
1506.00, 
1507.00, 
1508.00, 
1509.00, 
1510.00, 
1511.00, 
1512.00, 
1513.00, 
1514.00, 
1515.00, 
1516.00, 
1517.00, 
1518.00, 
1519.00, 
1520.00, 
1521.00, 
1522.00, 
1523.00, 
1524.00, 
1525.00, 
1526.00, 
1527.00, 
1528.00, 
1529.00, 
1530.00, 
1531.00, 
1532.00, 
1533.00, 
1534.00, 
1535.00, 
1536.00, 
1537.00, 
1538.00, 
1539.00, 
1540.00, 
1541.00, 
1542.00, 
1543.00, 
1544.00, 
1545.00, 
1546.00, 
1547.00, 
1548.00, 
1549.00, 
1550.00, 
1551.00, 
1552.00, 
1553.00, 
1554.00, 
1555.00, 
1556.00, 
1557.00, 
1558.00, 
1559.00, 
1560.00, 
1561.00, 
1562.00, 
1563.00, 
1564.00, 
1565.00, 
1566.00, 
1567.00, 
1568.00, 
1569.00, 
1570.00, 
1571.00, 
1572.00, 
1573.00, 
1574.00, 
1575.00, 
1576.00, 
1577.00, 
1578.00, 
1579.00, 
1580.00, 
1581.00, 
1582.00, 
1583.00, 
1584.00, 
1585.00, 
1586.00, 
1587.00, 
1588.00, 
1589.00, 
1590.00, 
1591.00, 
1592.00, 
1593.00, 
1594.00, 
1595.00, 
1596.00, 
1597.00, 
1598.00, 
1599.00, 
1600.00, 
1601.00, 
1602.00, 
1603.00, 
1604.00, 
1605.00, 
1606.00, 
1607.00, 
1608.00, 
1609.00, 
1610.00, 
1611.00, 
1612.00, 
1613.00, 
1614.00, 
1615.00, 
1616.00, 
1617.00, 
1618.00, 
1619.00, 
1620.00, 
1621.00, 
1622.00, 
1623.00, 
1624.00, 
1625.00, 
1626.00, 
1627.00, 
1628.00, 
1629.00, 
1630.00, 
1631.00, 
1632.00, 
1633.00, 
1634.00, 
1635.00, 
1636.00, 
1637.00, 
1638.00, 
1639.00, 
1640.00, 
1641.00, 
1642.00, 
1643.00, 
1644.00, 
1645.00, 
1646.00, 
1647.00, 
1648.00, 
1649.00, 
1650.00, 
1651.00, 
1652.00, 
1653.00, 
1654.00, 
1655.00, 
1656.00, 
1657.00, 
1658.00, 
1659.00, 
1660.00, 
1661.00, 
1662.00, 
1663.00, 
1664.00, 
1665.00, 
1666.00, 
1667.00, 
1668.00, 
1669.00, 
1670.00, 
1671.00, 
1672.00, 
1673.00, 
1674.00, 
1675.00, 
1676.00, 
1677.00, 
1678.00, 
1679.00, 
1680.00, 
1681.00, 
1682.00, 
1683.00, 
1684.00, 
1685.00, 
1686.00, 
1687.00, 
1688.00, 
1689.00, 
1690.00, 
1691.00, 
1692.00, 
1693.00, 
1694.00, 
1695.00, 
1696.00, 
1697.00, 
1698.00, 
1699.00, 
1700.00, 
1701.00, 
1702.00, 
1703.00, 
1704.00, 
1705.00, 
1706.00, 
1707.00, 
1708.00, 
1709.00, 
1710.00, 
1711.00, 
1712.00, 
1713.00, 
1714.00, 
1715.00, 
1716.00, 
1717.00, 
1718.00, 
1719.00, 
1720.00, 
1721.00, 
1722.00, 
1723.00, 
1724.00, 
1725.00, 
1726.00, 
1727.00, 
1728.00, 
1729.00, 
1730.00, 
1731.00, 
1732.00, 
1733.00, 
1734.00, 
1735.00, 
1736.00, 
1737.00, 
1738.00, 
1739.00, 
1740.00, 
1741.00, 
1742.00, 
1743.00, 
1744.00, 
1745.00, 
1746.00, 
1747.00, 
1748.00, 
1749.00, 
1750.00, 
1751.00, 
1752.00, 
1753.00, 
1754.00, 
1755.00, 
1756.00, 
1757.00, 
1758.00, 
1759.00, 
1760.00, 
1761.00, 
1762.00, 
1763.00, 
1764.00, 
1765.00, 
1766.00, 
1767.00, 
1768.00, 
1769.00, 
1770.00, 
1771.00, 
1772.00, 
1773.00, 
1774.00, 
1775.00, 
1776.00, 
1777.00, 
1778.00, 
1779.00, 
1780.00, 
1781.00, 
1782.00, 
1783.00, 
1784.00, 
1785.00, 
1786.00, 
1787.00, 
1788.00, 
1789.00, 
1790.00, 
1791.00, 
1792.00, 
1793.00, 
1794.00, 
1795.00, 
1796.00, 
1797.00, 
1798.00, 
1799.00, 
1800.00, 
1801.00, 
1802.00, 
1803.00, 
1804.00, 
1805.00, 
1806.00, 
1807.00, 
1808.00, 
1809.00, 
1810.00, 
1811.00, 
1812.00, 
1813.00, 
1814.00, 
1815.00, 
1816.00, 
1817.00, 
1818.00, 
1819.00, 
1820.00, 
1821.00, 
1822.00, 
1823.00, 
1824.00, 
1825.00, 
1826.00, 
1827.00, 
1828.00, 
1829.00, 
1830.00, 
1831.00, 
1832.00, 
1833.00, 
1834.00, 
1835.00, 
1836.00, 
1837.00, 
1838.00, 
1839.00, 
1840.00, 
1841.00, 
1842.00, 
1843.00, 
1844.00, 
1845.00, 
1846.00, 
1847.00, 
1848.00, 
1849.00, 
1850.00, 
1851.00, 
1852.00, 
1853.00, 
1854.00, 
1855.00, 
1856.00, 
1857.00, 
1858.00, 
1859.00, 
1860.00, 
1861.00, 
1862.00, 
1863.00, 
1864.00, 
1865.00, 
1866.00, 
1867.00, 
1868.00, 
1869.00, 
1870.00, 
1871.00, 
1872.00, 
1873.00, 
1874.00, 
1875.00, 
1876.00, 
1877.00, 
1878.00, 
1879.00, 
1880.00, 
1881.00, 
1882.00, 
1883.00, 
1884.00, 
1885.00, 
1886.00, 
1887.00, 
1888.00, 
1889.00, 
1890.00, 
1891.00, 
1892.00, 
1893.00, 
1894.00, 
1895.00, 
1896.00, 
1897.00, 
1898.00, 
1899.00, 
1900.00, 
1901.00, 
1902.00, 
1903.00, 
1904.00, 
1905.00, 
1906.00, 
1907.00, 
1908.00, 
1909.00, 
1910.00, 
1911.00, 
1912.00, 
1913.00, 
1914.00, 
1915.00, 
1916.00, 
1917.00, 
1918.00, 
1919.00, 
1920.00, 
1921.00, 
1922.00, 
1923.00, 
1924.00, 
1925.00, 
1926.00, 
1927.00, 
1928.00, 
1929.00, 
1930.00, 
1931.00, 
1932.00, 
1933.00, 
1934.00, 
1935.00, 
1936.00, 
1937.00, 
1938.00, 
1939.00, 
1940.00, 
1941.00, 
1942.00, 
1943.00, 
1944.00, 
1945.00, 
1946.00, 
1947.00, 
1948.00, 
1949.00, 
1950.00, 
1951.00, 
1952.00, 
1953.00, 
1954.00, 
1955.00, 
1956.00, 
1957.00, 
1958.00, 
1959.00, 
1960.00, 
1961.00, 
1962.00, 
1963.00, 
1964.00, 
1965.00, 
1966.00, 
1967.00, 
1968.00, 
1969.00, 
1970.00, 
1971.00, 
1972.00, 
1973.00, 
1974.00, 
1975.00, 
1976.00, 
1977.00, 
1978.00, 
1979.00, 
1980.00, 
1981.00, 
1982.00, 
1983.00, 
1984.00, 
1985.00, 
1986.00, 
1987.00, 
1988.00, 
1989.00, 
1990.00, 
1991.00, 
1992.00, 
1993.00, 
1994.00, 
1995.00, 
1996.00, 
1997.00, 
1998.00, 
1999.00, 
2000.00, 
2001.00, 
2002.00, 
2003.00, 
2004.00, 
2005.00, 
2006.00, 
2007.00, 
2008.00, 
2009.00, 
2010.00, 
2011.00, 
2012.00, 
2013.00, 
2014.00, 
2015.00, 
2016.00, 
2017.00, 
2018.00, 
2019.00, 
2020.00, 
2021.00, 
2022.00, 
2023.00, 
2024.00, 
2025.00, 
2026.00, 
2027.00, 
2028.00, 
2029.00, 
2030.00, 
2031.00, 
2032.00, 
2033.00, 
2034.00, 
2035.00, 
2036.00, 
2037.00, 
2038.00, 
2039.00, 
2040.00, 
2041.00, 
2042.00, 
2043.00, 
2044.00, 
2045.00, 
2046.00, 
2047.00, 
2048.00, 
2049.00, 
2050.00, 
2051.00, 
2052.00, 
2053.00, 
2054.00, 
2055.00, 
2056.00, 
2057.00, 
2058.00, 
2059.00, 
2060.00, 
2061.00, 
2062.00, 
2063.00, 
2064.00, 
2065.00, 
2066.00, 
2067.00, 
2068.00, 
2069.00, 
2070.00, 
2071.00, 
2072.00, 
2073.00, 
2074.00, 
2075.00, 
2076.00, 
2077.00, 
2078.00, 
2079.00, 
2080.00, 
2081.00, 
2082.00, 
2083.00, 
2084.00, 
2085.00, 
2086.00, 
2087.00, 
2088.00, 
2089.00, 
2090.00, 
2091.00, 
2092.00, 
2093.00, 
2094.00, 
2095.00, 
2096.00, 
2097.00, 
2098.00, 
2099.00, 
2100.00, 
2101.00, 
2102.00, 
2103.00, 
2104.00, 
2105.00, 
2106.00, 
2107.00, 
2108.00, 
2109.00, 
2110.00, 
2111.00, 
2112.00, 
2113.00, 
2114.00, 
2115.00, 
2116.00, 
2117.00, 
2118.00, 
2119.00, 
2120.00, 
2121.00, 
2122.00, 
2123.00, 
2124.00, 
2125.00, 
2126.00, 
2127.00, 
2128.00, 
2129.00, 
2130.00, 
2131.00, 
2132.00, 
2133.00, 
2134.00, 
2135.00, 
2136.00, 
2137.00, 
2138.00, 
2139.00, 
2140.00, 
2141.00, 
2142.00, 
2143.00, 
2144.00, 
2145.00, 
2146.00, 
2147.00, 
2148.00, 
2149.00, 
2150.00, 
2151.00, 
2152.00, 
2153.00, 
2154.00, 
2155.00, 
2156.00, 
2157.00, 
2158.00, 
2159.00, 
2160.00, 
2161.00, 
2162.00, 
2163.00, 
2164.00, 
2165.00, 
2166.00, 
2167.00, 
2168.00, 
2169.00, 
2170.00, 
2171.00, 
2172.00, 
2173.00, 
2174.00, 
2175.00, 
2176.00, 
2177.00, 
2178.00, 
2179.00, 
2180.00, 
2181.00, 
2182.00, 
2183.00, 
2184.00, 
2185.00, 
2186.00, 
2187.00, 
2188.00, 
2189.00, 
2190.00, 
2191.00, 
2192.00, 
2193.00, 
2194.00, 
2195.00, 
2196.00, 
2197.00, 
2198.00, 
2199.00, 
2200.00, 
2201.00, 
2202.00, 
2203.00, 
2204.00, 
2205.00, 
2206.00, 
2207.00, 
2208.00, 
2209.00, 
2210.00, 
2211.00, 
2212.00, 
2213.00, 
2214.00, 
2215.00, 
2216.00, 
2217.00, 
2218.00, 
2219.00, 
2220.00, 
2221.00, 
2222.00, 
2223.00, 
2224.00, 
2225.00, 
2226.00, 
2227.00, 
2228.00, 
2229.00, 
2230.00, 
2231.00, 
2232.00, 
2233.00, 
2234.00, 
2235.00, 
2236.00, 
2237.00, 
2238.00, 
2239.00, 
2240.00, 
2241.00, 
2242.00, 
2243.00, 
2244.00, 
2245.00, 
2246.00, 
2247.00, 
2248.00, 
2249.00, 
2250.00, 
2251.00, 
2252.00, 
2253.00, 
2254.00, 
2255.00, 
2256.00, 
2257.00, 
2258.00, 
2259.00, 
2260.00, 
2261.00, 
2262.00, 
2263.00, 
2264.00, 
2265.00, 
2266.00, 
2267.00, 
2268.00, 
2269.00, 
2270.00, 
2271.00, 
2272.00, 
2273.00, 
2274.00, 
2275.00, 
2276.00, 
2277.00, 
2278.00, 
2279.00, 
2280.00, 
2281.00, 
2282.00, 
2283.00, 
2284.00, 
2285.00, 
2286.00, 
2287.00, 
2288.00, 
2289.00, 
2290.00, 
2291.00, 
2292.00, 
2293.00, 
2294.00, 
2295.00, 
2296.00, 
2297.00, 
2298.00, 
2299.00, 
2300.00, 
2301.00, 
2302.00, 
2303.00, 
2304.00, 
2305.00, 
2306.00, 
2307.00, 
2308.00, 
2309.00, 
2310.00, 
2311.00, 
2312.00, 
2313.00, 
2314.00, 
2315.00, 
2316.00, 
2317.00, 
2318.00, 
2319.00, 
2320.00, 
2321.00, 
2322.00, 
2323.00, 
2324.00, 
2325.00, 
2326.00, 
2327.00, 
2328.00, 
2329.00, 
2330.00, 
2331.00, 
2332.00, 
2333.00, 
2334.00, 
2335.00, 
2336.00, 
2337.00, 
2338.00, 
2339.00, 
2340.00, 
2341.00, 
2342.00, 
2343.00, 
2344.00, 
2345.00, 
2346.00, 
2347.00, 
2348.00, 
2349.00, 
2350.00, 
2351.00, 
2352.00, 
2353.00, 
2354.00, 
2355.00, 
2356.00, 
2357.00, 
2358.00, 
2359.00, 
2360.00, 
2361.00, 
2362.00, 
2363.00, 
2364.00, 
2365.00, 
2366.00, 
2367.00, 
2368.00, 
2369.00, 
2370.00, 
2371.00, 
2372.00, 
2373.00, 
2374.00, 
2375.00, 
2376.00, 
2377.00, 
2378.00, 
2379.00, 
2380.00, 
2381.00, 
2382.00, 
2383.00, 
2384.00, 
2385.00, 
2386.00, 
2387.00, 
2388.00, 
2389.00, 
2390.00, 
2391.00, 
2392.00, 
2393.00, 
2394.00, 
2395.00, 
2396.00, 
2397.00, 
2398.00, 
2399.00, 
2400.00, 
2401.00, 
2402.00, 
2403.00, 
2404.00, 
2405.00, 
2406.00, 
2407.00, 
2408.00, 
2409.00, 
2410.00, 
2411.00, 
2412.00, 
2413.00, 
2414.00, 
2415.00, 
2416.00, 
2417.00, 
2418.00, 
2419.00, 
2420.00, 
2421.00, 
2422.00, 
2423.00, 
2424.00, 
2425.00, 
2426.00, 
2427.00, 
2428.00, 
2429.00, 
2430.00, 
2431.00, 
2432.00, 
2433.00, 
2434.00, 
2435.00, 
2436.00, 
2437.00, 
2438.00, 
2439.00, 
2440.00, 
2441.00, 
2442.00, 
2443.00, 
2444.00, 
2445.00, 
2446.00, 
2447.00, 
2448.00, 
2449.00, 
2450.00, 
2451.00, 
2452.00, 
2453.00, 
2454.00, 
2455.00, 
2456.00, 
2457.00, 
2458.00, 
2459.00, 
2460.00, 
2461.00, 
2462.00, 
2463.00, 
2464.00, 
2465.00, 
2466.00, 
2467.00, 
2468.00, 
2469.00, 
2470.00, 
2471.00, 
2472.00, 
2473.00, 
2474.00, 
2475.00, 
2476.00, 
2477.00, 
2478.00, 
2479.00, 
2480.00, 
2481.00, 
2482.00, 
2483.00, 
2484.00, 
2485.00, 
2486.00, 
2487.00, 
2488.00, 
2489.00, 
2490.00, 
2491.00, 
2492.00, 
2493.00, 
2494.00, 
2495.00, 
2496.00, 
2497.00, 
2498.00, 
2499.00, 
2500.00, 
2501.00, 
2502.00, 
2503.00, 
2504.00, 
2505.00, 
2506.00, 
2507.00, 
2508.00, 
2509.00, 
2510.00, 
2511.00, 
2512.00, 
2513.00, 
2514.00, 
2515.00, 
2516.00, 
2517.00, 
2518.00, 
2519.00, 
2520.00, 
2521.00, 
2522.00, 
2523.00, 
2524.00, 
2525.00, 
2526.00, 
2527.00, 
2528.00, 
2529.00, 
2530.00, 
2531.00, 
2532.00, 
2533.00, 
2534.00, 
2535.00, 
2536.00, 
2537.00, 
2538.00, 
2539.00, 
2540.00, 
2541.00, 
2542.00, 
2543.00, 
2544.00, 
2545.00, 
2546.00, 
2547.00, 
2548.00, 
2549.00, 
2550.00, 
2551.00, 
2552.00, 
2553.00, 
2554.00, 
2555.00, 
2556.00, 
2557.00, 
2558.00, 
2559.00, 
2560.00, 
2561.00, 
2562.00, 
2563.00, 
2564.00, 
2565.00, 
2566.00, 
2567.00, 
2568.00, 
2569.00, 
2570.00, 
2571.00, 
2572.00, 
2573.00, 
2574.00, 
2575.00, 
2576.00, 
2577.00, 
2578.00, 
2579.00, 
2580.00, 
2581.00, 
2582.00, 
2583.00, 
2584.00, 
2585.00, 
2586.00, 
2587.00, 
2588.00, 
2589.00, 
2590.00, 
2591.00, 
2592.00, 
2593.00, 
2594.00, 
2595.00, 
2596.00, 
2597.00, 
2598.00, 
2599.00, 
2600.00, 
