"1cP5 - RawData"
"Wavelength nm.","T%"
200.00,-0.003
201.00,0.001
202.00,-0.000
203.00,0.001
204.00,0.003
205.00,0.004
206.00,-0.001
207.00,-0.003
208.00,0.004
209.00,0.001
210.00,-0.001
211.00,-0.001
212.00,0.000
213.00,0.001
214.00,0.001
215.00,0.001
216.00,0.001
217.00,0.001
218.00,-0.000
219.00,0.002
220.00,-0.001
221.00,-0.001
222.00,0.001
223.00,0.000
224.00,-0.000
225.00,-0.001
226.00,-0.001
227.00,-0.003
228.00,0.001
229.00,0.001
230.00,0.000
231.00,0.001
232.00,0.002
233.00,-0.001
234.00,-0.000
235.00,0.001
236.00,0.001
237.00,0.000
238.00,-0.002
239.00,0.001
240.00,0.001
241.00,0.000
242.00,0.000
243.00,0.001
244.00,0.001
245.00,-0.000
246.00,0.001
247.00,0.001
248.00,0.000
249.00,0.000
250.00,-0.000
251.00,-0.001
252.00,-0.001
253.00,-0.000
254.00,0.001
255.00,-0.001
256.00,-0.000
257.00,0.000
258.00,-0.000
259.00,0.001
260.00,0.002
261.00,0.000
262.00,0.001
263.00,-0.000
264.00,0.001
265.00,0.002
266.00,-0.000
267.00,-0.000
268.00,0.002
269.00,0.001
270.00,-0.000
271.00,-0.001
272.00,-0.000
273.00,0.001
274.00,0.001
275.00,0.000
276.00,-0.001
277.00,-0.000
278.00,0.000
279.00,0.001
280.00,0.000
281.00,0.001
282.00,0.000
283.00,-0.000
284.00,0.001
285.00,0.002
286.00,0.002
287.00,0.001
288.00,0.000
289.00,-0.002
290.00,-0.002
291.00,-0.001
292.00,-0.001
293.00,0.000
294.00,0.000
295.00,-0.001
296.00,0.001
297.00,-0.001
298.00,0.000
299.00,0.000
300.00,0.000
301.00,-0.002
302.00,0.001
303.00,0.000
304.00,-0.001
305.00,0.001
306.00,0.003
307.00,0.002
308.00,0.006
309.00,0.013
310.00,0.014
311.00,0.024
312.00,0.041
313.00,0.057
314.00,0.086
315.00,0.127
316.00,0.186
317.00,0.262
318.00,0.360
319.00,0.483
320.00,0.638
321.00,0.823
322.00,1.047
323.00,1.334
324.00,1.645
325.00,1.982
326.00,2.370
327.00,2.760
328.00,3.257
329.00,3.754
330.00,4.294
331.00,4.853
332.00,5.436
333.00,6.082
334.00,6.708
335.00,7.373
336.00,8.017
337.00,8.728
338.00,9.399
339.00,10.026
340.00,10.677
341.00,11.320
342.00,11.926
343.00,12.496
344.00,13.082
345.00,13.689
346.00,14.221
347.00,14.707
348.00,15.199
349.00,15.612
350.00,16.041
351.00,16.436
352.00,16.800
353.00,17.124
354.00,17.488
355.00,17.817
356.00,18.079
357.00,18.288
358.00,18.583
359.00,18.798
360.00,19.104
361.00,19.198
362.00,19.378
363.00,19.562
364.00,19.633
365.00,19.763
366.00,19.853
367.00,19.958
368.00,19.984
369.00,20.053
370.00,20.073
371.00,20.090
372.00,20.039
373.00,20.026
374.00,20.033
375.00,20.015
376.00,19.900
377.00,19.823
378.00,19.745
379.00,19.622
380.00,19.639
381.00,19.585
382.00,19.567
383.00,19.623
384.00,19.626
385.00,19.671
386.00,19.674
387.00,19.769
388.00,19.835
389.00,19.830
390.00,19.944
391.00,19.907
392.00,19.918
393.00,19.975
394.00,20.008
395.00,20.036
396.00,20.020
397.00,20.069
398.00,20.050
399.00,20.059
400.00,20.081
401.00,20.035
402.00,20.016
403.00,20.036
404.00,20.085
405.00,19.971
406.00,19.976
407.00,19.914
408.00,19.931
409.00,19.880
410.00,19.820
411.00,19.827
412.00,19.806
413.00,19.809
414.00,19.782
415.00,19.783
416.00,19.841
417.00,19.749
418.00,19.816
419.00,19.871
420.00,19.932
421.00,19.934
422.00,19.925
423.00,19.998
424.00,20.054
425.00,20.055
426.00,20.060
427.00,20.133
428.00,20.176
429.00,20.200
430.00,20.264
431.00,20.307
432.00,20.324
433.00,20.436
434.00,20.458
435.00,20.516
436.00,20.577
437.00,20.584
438.00,20.704
439.00,20.792
440.00,20.864
441.00,20.927
442.00,20.992
443.00,21.071
444.00,21.182
445.00,21.264
446.00,21.361
447.00,21.452
448.00,21.567
449.00,21.653
450.00,21.743
451.00,21.850
452.00,21.943
453.00,22.092
454.00,22.175
455.00,22.295
456.00,22.430
457.00,22.529
458.00,22.647
459.00,22.780
460.00,22.916
461.00,23.053
462.00,23.147
463.00,23.301
464.00,23.407
465.00,23.562
466.00,23.696
467.00,23.826
468.00,23.918
469.00,24.049
470.00,24.142
471.00,24.244
472.00,24.406
473.00,24.504
474.00,24.641
475.00,24.786
476.00,24.862
477.00,25.007
478.00,25.104
479.00,25.300
480.00,25.449
481.00,25.584
482.00,25.707
483.00,25.854
484.00,26.030
485.00,26.165
486.00,26.292
487.00,26.481
488.00,26.624
489.00,26.785
490.00,26.915
491.00,27.095
492.00,27.287
493.00,27.451
494.00,27.412
495.00,27.600
496.00,27.756
497.00,27.859
498.00,28.021
499.00,28.174
500.00,28.333
501.00,28.441
502.00,28.567
503.00,28.692
504.00,28.766
505.00,28.909
506.00,29.035
507.00,29.182
508.00,29.293
509.00,29.439
510.00,29.606
511.00,29.664
512.00,29.874
513.00,30.019
514.00,30.114
515.00,30.313
516.00,30.437
517.00,30.446
518.00,30.578
519.00,30.658
520.00,30.684
521.00,30.804
522.00,30.917
523.00,30.956
524.00,31.092
525.00,31.217
526.00,31.315
527.00,31.354
528.00,31.445
529.00,31.675
530.00,31.768
531.00,31.882
532.00,31.967
533.00,32.104
534.00,32.198
535.00,32.277
536.00,32.328
537.00,32.443
538.00,32.532
539.00,32.563
540.00,32.643
541.00,32.725
542.00,32.795
543.00,32.815
544.00,32.936
545.00,32.983
546.00,33.033
547.00,33.156
548.00,33.273
549.00,33.333
550.00,33.379
551.00,33.516
552.00,33.557
553.00,33.574
554.00,33.735
555.00,33.717
556.00,33.781
557.00,33.844
558.00,33.899
559.00,33.982
560.00,34.041
561.00,34.167
562.00,34.199
563.00,34.168
564.00,34.337
565.00,34.335
566.00,34.289
567.00,34.420
568.00,34.383
569.00,34.433
570.00,34.530
571.00,34.604
572.00,34.556
573.00,34.564
574.00,34.647
575.00,34.635
576.00,34.679
577.00,34.714
578.00,34.816
579.00,34.926
580.00,34.874
581.00,35.118
582.00,35.134
583.00,35.121
584.00,35.197
585.00,35.286
586.00,35.342
587.00,35.401
588.00,35.421
589.00,35.397
590.00,35.476
591.00,35.499
592.00,35.450
593.00,35.486
594.00,35.622
595.00,35.715
596.00,35.761
597.00,35.839
598.00,35.855
599.00,35.821
600.00,35.835
601.00,35.944
602.00,35.917
603.00,36.001
604.00,36.053
605.00,36.163
606.00,36.155
607.00,36.148
608.00,36.329
609.00,36.426
610.00,36.265
611.00,36.356
612.00,36.396
613.00,36.484
614.00,36.509
615.00,36.613
616.00,36.723
617.00,36.703
618.00,36.692
619.00,36.790
620.00,36.792
621.00,36.860
622.00,36.981
623.00,37.004
624.00,37.083
625.00,37.175
626.00,37.238
627.00,37.326
628.00,37.272
629.00,37.357
630.00,37.432
631.00,37.468
632.00,37.519
633.00,37.644
634.00,37.736
635.00,37.767
636.00,37.911
637.00,37.879
638.00,37.948
639.00,38.017
640.00,38.147
641.00,38.207
642.00,38.277
643.00,38.387
644.00,38.456
645.00,38.485
646.00,38.636
647.00,38.663
648.00,38.781
649.00,38.857
650.00,38.835
651.00,39.010
652.00,39.053
653.00,39.057
654.00,39.181
655.00,39.393
656.00,39.615
657.00,39.442
658.00,39.618
659.00,39.738
660.00,39.737
661.00,39.826
662.00,39.953
663.00,40.041
664.00,40.329
665.00,40.487
666.00,40.433
667.00,40.507
668.00,40.535
669.00,40.800
670.00,41.030
671.00,40.971
672.00,41.004
673.00,41.185
674.00,41.176
675.00,41.299
676.00,41.525
677.00,41.709
678.00,41.507
679.00,41.721
680.00,41.665
681.00,41.976
682.00,41.962
683.00,41.843
684.00,42.003
685.00,42.515
686.00,42.600
687.00,42.402
688.00,42.538
689.00,42.540
690.00,42.883
691.00,43.103
692.00,42.900
693.00,42.934
694.00,43.124
695.00,43.201
696.00,43.308
697.00,43.363
698.00,43.491
699.00,43.812
700.00,43.874
701.00,43.836
702.00,43.901
703.00,44.162
704.00,44.162
705.00,44.083
706.00,44.203
707.00,44.182
708.00,44.384
709.00,44.939
710.00,44.595
711.00,44.495
712.00,44.616
713.00,44.890
714.00,44.948
715.00,44.935
716.00,44.866
717.00,45.111
718.00,45.117
719.00,45.166
720.00,45.250
721.00,49.818
722.00,49.748
723.00,49.871
724.00,49.877
725.00,49.921
726.00,49.920
727.00,49.942
728.00,50.003
729.00,49.958
730.00,50.038
731.00,50.148
732.00,50.076
733.00,50.253
734.00,50.217
735.00,50.299
736.00,50.326
737.00,50.377
738.00,50.431
739.00,50.464
740.00,50.434
741.00,50.573
742.00,50.584
743.00,50.545
744.00,50.565
745.00,50.688
746.00,50.606
747.00,50.681
748.00,50.582
749.00,50.724
750.00,50.643
751.00,50.676
752.00,50.689
753.00,50.687
754.00,50.733
755.00,50.711
756.00,50.746
757.00,50.796
758.00,50.815
759.00,50.844
760.00,50.815
761.00,50.863
762.00,50.835
763.00,50.938
764.00,50.940
765.00,50.987
766.00,50.981
767.00,51.032
768.00,51.011
769.00,50.928
770.00,51.020
771.00,51.081
772.00,51.104
773.00,51.066
774.00,51.186
775.00,51.150
776.00,51.050
777.00,51.196
778.00,51.047
779.00,51.101
780.00,51.152
781.00,51.164
782.00,51.175
783.00,51.168
784.00,51.264
785.00,51.148
786.00,51.199
787.00,51.093
788.00,51.111
789.00,51.135
790.00,51.116
791.00,51.151
792.00,51.059
793.00,51.091
794.00,51.094
795.00,51.036
796.00,51.088
797.00,51.038
798.00,51.155
799.00,51.033
800.00,51.032
801.00,51.128
802.00,51.023
803.00,51.042
804.00,50.888
805.00,51.053
806.00,50.968
807.00,51.029
808.00,50.912
809.00,50.970
810.00,50.935
811.00,51.029
812.00,50.902
813.00,50.898
814.00,50.959
815.00,50.945
816.00,50.901
817.00,50.851
818.00,50.832
819.00,50.841
820.00,50.798
821.00,50.838
822.00,50.776
823.00,50.852
824.00,50.843
825.00,50.686
826.00,50.806
827.00,50.753
828.00,50.736
829.00,50.775
830.00,50.768
831.00,53.068
832.00,53.080
833.00,53.054
834.00,53.044
835.00,53.021
836.00,52.990
837.00,52.972
838.00,52.970
839.00,52.984
840.00,52.887
841.00,52.891
842.00,52.863
843.00,52.892
844.00,52.899
845.00,52.806
846.00,52.820
847.00,52.824
848.00,52.801
849.00,52.740
850.00,52.765
851.00,52.660
852.00,52.715
853.00,52.615
854.00,52.623
855.00,52.515
856.00,52.640
857.00,52.545
858.00,52.539
859.00,52.523
860.00,52.515
861.00,52.506
862.00,52.449
863.00,52.455
864.00,52.389
865.00,52.421
866.00,52.509
867.00,52.478
868.00,52.389
869.00,52.416
870.00,52.393
871.00,52.372
872.00,52.369
873.00,52.362
874.00,52.382
875.00,52.287
876.00,52.364
877.00,52.306
878.00,52.298
879.00,52.225
880.00,52.262
881.00,52.244
882.00,52.264
883.00,52.252
884.00,52.202
885.00,52.198
886.00,52.124
887.00,52.290
888.00,52.121
889.00,52.133
890.00,52.077
891.00,52.054
892.00,52.059
893.00,52.029
894.00,52.043
895.00,51.997
896.00,52.006
897.00,51.959
898.00,51.945
899.00,51.933
900.00,51.945
901.00,51.917
902.00,51.940
903.00,51.884
904.00,51.877
905.00,51.876
906.00,51.857
907.00,51.828
908.00,51.790
909.00,51.783
910.00,51.766
911.00,51.752
912.00,51.730
913.00,51.710
914.00,51.690
915.00,51.667
916.00,51.648
917.00,51.647
918.00,51.613
919.00,51.580
920.00,51.551
921.00,51.577
922.00,51.558
923.00,51.514
924.00,51.485
925.00,51.484
926.00,51.461
927.00,51.442
928.00,51.431
929.00,51.410
930.00,51.401
931.00,51.385
932.00,51.353
933.00,51.344
934.00,51.317
935.00,51.311
936.00,51.307
937.00,51.290
938.00,51.280
939.00,51.250
940.00,51.222
941.00,51.221
942.00,51.196
943.00,51.194
944.00,51.134
945.00,51.143
946.00,51.134
947.00,51.076
948.00,51.055
949.00,51.055
950.00,51.049
951.00,51.013
952.00,50.999
953.00,50.967
954.00,50.950
955.00,50.873
956.00,50.891
957.00,50.947
958.00,50.846
959.00,50.787
960.00,50.795
961.00,50.812
962.00,50.796
963.00,50.748
964.00,50.755
965.00,50.762
966.00,50.712
967.00,50.722
968.00,50.700
969.00,50.726
970.00,50.710
971.00,50.735
972.00,50.687
973.00,50.725
974.00,50.745
975.00,50.726
976.00,50.732
977.00,50.705
978.00,50.742
979.00,50.697
980.00,50.717
981.00,50.714
982.00,50.686
983.00,50.707
984.00,50.685
985.00,50.701
986.00,50.667
987.00,50.697
988.00,50.642
989.00,50.636
990.00,50.627
991.00,50.622
992.00,50.616
993.00,50.574
994.00,50.574
995.00,50.564
996.00,50.564
997.00,50.549
998.00,50.521
999.00,50.530
1000.00,50.500
1001.00,50.502
1002.00,50.497
1003.00,50.484
1004.00,50.459
1005.00,50.426
1006.00,50.459
1007.00,50.433
1008.00,50.418
1009.00,50.385
1010.00,50.386
1011.00,50.360
1012.00,50.343
1013.00,50.336
1014.00,50.322
1015.00,50.345
1016.00,50.289
1017.00,50.304
1018.00,50.350
1019.00,50.251
1020.00,50.249
1021.00,50.223
1022.00,50.228
1023.00,50.174
1024.00,50.182
1025.00,50.164
1026.00,50.151
1027.00,50.134
1028.00,50.127
1029.00,50.123
1030.00,50.085
1031.00,50.103
1032.00,50.059
1033.00,50.058
1034.00,50.034
1035.00,50.005
1036.00,49.989
1037.00,49.965
1038.00,49.960
1039.00,49.918
1040.00,49.925
1041.00,49.885
1042.00,49.878
1043.00,49.859
1044.00,49.867
1045.00,49.849
1046.00,49.847
1047.00,49.869
1048.00,49.880
1049.00,49.886
1050.00,49.876
1051.00,49.931
1052.00,49.926
1053.00,49.933
1054.00,49.930
1055.00,49.946
1056.00,49.956
1057.00,49.956
1058.00,49.940
1059.00,49.950
1060.00,49.969
1061.00,49.944
1062.00,49.956
1063.00,49.974
1064.00,49.954
1065.00,49.929
1066.00,49.927
1067.00,49.919
1068.00,49.938
1069.00,49.901
1070.00,49.878
1071.00,49.867
1072.00,49.890
1073.00,49.874
1074.00,49.873
1075.00,49.846
1076.00,49.858
1077.00,49.834
1078.00,49.817
1079.00,49.809
1080.00,49.818
1081.00,49.811
1082.00,49.799
1083.00,49.789
1084.00,49.789
1085.00,49.798
1086.00,49.776
1087.00,49.771
1088.00,49.759
1089.00,49.756
1090.00,49.756
1091.00,49.751
1092.00,49.739
1093.00,49.728
1094.00,49.708
1095.00,49.706
1096.00,49.685
1097.00,49.682
1098.00,49.672
1099.00,49.666
1100.00,49.659
1101.00,49.647
1102.00,49.631
1103.00,49.648
1104.00,49.633
1105.00,49.617
1106.00,49.618
1107.00,49.610
1108.00,49.603
1109.00,49.590
1110.00,49.582
1111.00,49.570
1112.00,49.551
1113.00,49.556
1114.00,49.547
1115.00,49.558
1116.00,49.531
1117.00,49.526
1118.00,49.524
1119.00,49.533
1120.00,49.533
1121.00,49.524
1122.00,49.501
1123.00,49.490
1124.00,49.488
1125.00,49.489
1126.00,49.479
1127.00,49.474
1128.00,49.460
1129.00,49.451
1130.00,49.437
1131.00,49.427
1132.00,49.432
1133.00,49.425
1134.00,49.402
1135.00,49.402
1136.00,49.421
1137.00,49.418
1138.00,49.403
1139.00,49.430
1140.00,49.418
1141.00,49.390
1142.00,49.377
1143.00,49.392
1144.00,49.377
1145.00,49.367
1146.00,49.364
1147.00,49.365
1148.00,49.353
1149.00,49.362
1150.00,49.381
1151.00,49.385
1152.00,49.377
1153.00,49.387
1154.00,49.370
1155.00,49.361
1156.00,49.355
1157.00,49.369
1158.00,49.354
1159.00,49.361
1160.00,49.362
1161.00,49.386
1162.00,49.391
1163.00,49.376
1164.00,49.373
1165.00,49.366
1166.00,49.369
1167.00,49.353
1168.00,49.363
1169.00,49.340
1170.00,49.342
1171.00,49.325
1172.00,49.326
1173.00,49.317
1174.00,49.322
1175.00,49.310
1176.00,49.327
1177.00,49.321
1178.00,49.329
1179.00,49.344
1180.00,49.344
1181.00,49.362
1182.00,49.348
1183.00,49.345
1184.00,49.333
1185.00,49.359
1186.00,49.335
1187.00,49.336
1188.00,49.336
1189.00,49.324
1190.00,49.319
1191.00,49.326
1192.00,49.348
1193.00,49.326
1194.00,49.336
1195.00,49.315
1196.00,49.329
1197.00,49.325
1198.00,49.330
1199.00,49.316
1200.00,49.335
1201.00,49.362
1202.00,49.312
1203.00,49.312
1204.00,49.313
1205.00,49.339
1206.00,49.317
1207.00,49.311
1208.00,49.291
1209.00,49.303
1210.00,49.308
1211.00,49.297
1212.00,49.317
1213.00,49.282
1214.00,49.322
1215.00,49.290
1216.00,49.319
1217.00,49.338
1218.00,49.328
1219.00,49.338
1220.00,49.323
1221.00,49.332
1222.00,49.320
1223.00,49.346
1224.00,49.339
1225.00,49.330
1226.00,49.335
1227.00,49.340
1228.00,49.357
1229.00,49.359
1230.00,49.377
1231.00,49.362
1232.00,49.386
1233.00,49.390
1234.00,49.374
1235.00,49.376
1236.00,49.373
1237.00,49.379
1238.00,49.389
1239.00,49.410
1240.00,49.399
1241.00,49.417
1242.00,49.420
1243.00,49.428
1244.00,49.400
1245.00,49.437
1246.00,49.439
1247.00,49.434
1248.00,49.426
1249.00,49.444
1250.00,49.458
1251.00,49.446
1252.00,49.456
1253.00,49.446
1254.00,49.475
1255.00,49.460
1256.00,49.443
1257.00,49.443
1258.00,49.479
1259.00,49.471
1260.00,49.500
1261.00,49.500
1262.00,49.502
1263.00,49.495
1264.00,49.501
1265.00,49.503
1266.00,49.498
1267.00,49.516
1268.00,49.518
1269.00,49.528
1270.00,49.547
1271.00,49.547
1272.00,49.558
1273.00,49.569
1274.00,49.562
1275.00,49.582
1276.00,49.569
1277.00,49.576
1278.00,49.573
1279.00,49.581
1280.00,49.583
1281.00,49.595
1282.00,49.615
1283.00,49.598
1284.00,49.610
1285.00,49.607
1286.00,49.627
1287.00,49.619
1288.00,49.622
1289.00,49.627
1290.00,49.665
1291.00,49.659
1292.00,49.654
1293.00,49.664
1294.00,49.677
1295.00,49.688
1296.00,49.693
1297.00,49.707
1298.00,49.735
1299.00,49.707
1300.00,49.732
1301.00,49.713
1302.00,49.744
1303.00,49.735
1304.00,49.723
1305.00,49.750
1306.00,49.764
1307.00,49.769
1308.00,49.765
1309.00,49.779
1310.00,49.787
1311.00,49.755
1312.00,49.776
1313.00,49.784
1314.00,49.805
1315.00,49.823
1316.00,49.827
1317.00,49.855
1318.00,49.845
1319.00,49.847
1320.00,49.855
1321.00,50.040
1322.00,50.022
1323.00,50.004
1324.00,49.999
1325.00,49.998
1326.00,50.015
1327.00,50.012
1328.00,50.021
1329.00,50.001
1330.00,50.019
1331.00,50.018
1332.00,50.020
1333.00,50.021
1334.00,50.036
1335.00,50.070
1336.00,50.088
1337.00,50.122
1338.00,50.180
1339.00,50.222
1340.00,50.288
1341.00,50.344
1342.00,50.416
1343.00,50.464
1344.00,50.517
1345.00,50.581
1346.00,50.622
1347.00,50.621
1348.00,50.642
1349.00,50.680
1350.00,50.706
1351.00,50.696
1352.00,50.724
1353.00,50.757
1354.00,50.737
1355.00,50.711
1356.00,50.739
1357.00,50.730
1358.00,50.785
1359.00,50.778
1360.00,50.715
1361.00,50.669
1362.00,50.676
1363.00,51.022
1364.00,50.968
1365.00,50.777
1366.00,50.895
1367.00,50.787
1368.00,50.746
1369.00,50.820
1370.00,50.749
1371.00,50.798
1372.00,50.796
1373.00,50.804
1374.00,50.804
1375.00,50.788
1376.00,50.762
1377.00,50.781
1378.00,50.851
1379.00,50.842
1380.00,50.795
1381.00,50.900
1382.00,50.835
1383.00,50.840
1384.00,50.764
1385.00,50.735
1386.00,50.784
1387.00,50.852
1388.00,50.753
1389.00,50.756
1390.00,50.775
1391.00,50.835
1392.00,50.746
1393.00,50.727
1394.00,50.836
1395.00,50.739
1396.00,50.736
1397.00,50.726
1398.00,50.805
1399.00,50.780
1400.00,50.710
1401.00,50.723
1402.00,50.822
1403.00,50.818
1404.00,50.778
1405.00,50.822
1406.00,50.797
1407.00,50.839
1408.00,50.872
1409.00,50.827
1410.00,50.873
1411.00,50.844
1412.00,50.982
1413.00,51.109
1414.00,50.840
1415.00,50.894
1416.00,50.923
1417.00,50.957
1418.00,50.921
1419.00,50.936
1420.00,50.946
1421.00,51.019
1422.00,51.000
1423.00,50.987
1424.00,50.998
1425.00,51.026
1426.00,51.044
1427.00,51.080
1428.00,51.069
1429.00,51.102
1430.00,51.104
1431.00,51.131
1432.00,51.147
1433.00,51.153
1434.00,51.157
1435.00,51.207
1436.00,51.211
1437.00,51.196
1438.00,51.223
1439.00,51.263
1440.00,51.284
1441.00,51.297
1442.00,51.297
1443.00,51.321
1444.00,51.403
1445.00,51.373
1446.00,51.387
1447.00,51.402
1448.00,51.462
1449.00,51.463
1450.00,51.460
1451.00,51.469
1452.00,51.500
1453.00,51.491
1454.00,51.539
1455.00,51.549
1456.00,51.556
1457.00,51.562
1458.00,51.587
1459.00,51.610
1460.00,51.629
1461.00,51.630
1462.00,51.684
1463.00,51.674
1464.00,51.700
1465.00,51.708
1466.00,51.710
1467.00,51.723
1468.00,51.791
1469.00,51.769
1470.00,51.781
1471.00,51.812
1472.00,51.814
1473.00,51.853
1474.00,51.888
1475.00,51.877
1476.00,51.901
1477.00,51.876
1478.00,51.900
1479.00,51.928
1480.00,51.915
1481.00,51.924
1482.00,51.952
1483.00,51.978
1484.00,51.989
1485.00,52.004
1486.00,52.016
1487.00,52.038
1488.00,52.083
1489.00,52.058
1490.00,52.078
1491.00,52.097
1492.00,52.133
1493.00,52.112
1494.00,52.146
1495.00,52.130
1496.00,52.162
1497.00,52.133
1498.00,52.164
1499.00,52.184
1500.00,52.194
1501.00, 
1502.00, 
1503.00, 
1504.00, 
1505.00, 
1506.00, 
1507.00, 
1508.00, 
1509.00, 
1510.00, 
1511.00, 
1512.00, 
1513.00, 
1514.00, 
1515.00, 
1516.00, 
1517.00, 
1518.00, 
1519.00, 
1520.00, 
1521.00, 
1522.00, 
1523.00, 
1524.00, 
1525.00, 
1526.00, 
1527.00, 
1528.00, 
1529.00, 
1530.00, 
1531.00, 
1532.00, 
1533.00, 
1534.00, 
1535.00, 
1536.00, 
1537.00, 
1538.00, 
1539.00, 
1540.00, 
1541.00, 
1542.00, 
1543.00, 
1544.00, 
1545.00, 
1546.00, 
1547.00, 
1548.00, 
1549.00, 
1550.00, 
1551.00, 
1552.00, 
1553.00, 
1554.00, 
1555.00, 
1556.00, 
1557.00, 
1558.00, 
1559.00, 
1560.00, 
1561.00, 
1562.00, 
1563.00, 
1564.00, 
1565.00, 
1566.00, 
1567.00, 
1568.00, 
1569.00, 
1570.00, 
1571.00, 
1572.00, 
1573.00, 
1574.00, 
1575.00, 
1576.00, 
1577.00, 
1578.00, 
1579.00, 
1580.00, 
1581.00, 
1582.00, 
1583.00, 
1584.00, 
1585.00, 
1586.00, 
1587.00, 
1588.00, 
1589.00, 
1590.00, 
1591.00, 
1592.00, 
1593.00, 
1594.00, 
1595.00, 
1596.00, 
1597.00, 
1598.00, 
1599.00, 
1600.00, 
1601.00, 
1602.00, 
1603.00, 
1604.00, 
1605.00, 
1606.00, 
1607.00, 
1608.00, 
1609.00, 
1610.00, 
1611.00, 
1612.00, 
1613.00, 
1614.00, 
1615.00, 
1616.00, 
1617.00, 
1618.00, 
1619.00, 
1620.00, 
1621.00, 
1622.00, 
1623.00, 
1624.00, 
1625.00, 
1626.00, 
1627.00, 
1628.00, 
1629.00, 
1630.00, 
1631.00, 
1632.00, 
1633.00, 
1634.00, 
1635.00, 
1636.00, 
1637.00, 
1638.00, 
1639.00, 
1640.00, 
1641.00, 
1642.00, 
1643.00, 
1644.00, 
1645.00, 
1646.00, 
1647.00, 
1648.00, 
1649.00, 
1650.00, 
1651.00, 
1652.00, 
1653.00, 
1654.00, 
1655.00, 
1656.00, 
1657.00, 
1658.00, 
1659.00, 
1660.00, 
1661.00, 
1662.00, 
1663.00, 
1664.00, 
1665.00, 
1666.00, 
1667.00, 
1668.00, 
1669.00, 
1670.00, 
1671.00, 
1672.00, 
1673.00, 
1674.00, 
1675.00, 
1676.00, 
1677.00, 
1678.00, 
1679.00, 
1680.00, 
1681.00, 
1682.00, 
1683.00, 
1684.00, 
1685.00, 
1686.00, 
1687.00, 
1688.00, 
1689.00, 
1690.00, 
1691.00, 
1692.00, 
1693.00, 
1694.00, 
1695.00, 
1696.00, 
1697.00, 
1698.00, 
1699.00, 
1700.00, 
1701.00, 
1702.00, 
1703.00, 
1704.00, 
1705.00, 
1706.00, 
1707.00, 
1708.00, 
1709.00, 
1710.00, 
1711.00, 
1712.00, 
1713.00, 
1714.00, 
1715.00, 
1716.00, 
1717.00, 
1718.00, 
1719.00, 
1720.00, 
1721.00, 
1722.00, 
1723.00, 
1724.00, 
1725.00, 
1726.00, 
1727.00, 
1728.00, 
1729.00, 
1730.00, 
1731.00, 
1732.00, 
1733.00, 
1734.00, 
1735.00, 
1736.00, 
1737.00, 
1738.00, 
1739.00, 
1740.00, 
1741.00, 
1742.00, 
1743.00, 
1744.00, 
1745.00, 
1746.00, 
1747.00, 
1748.00, 
1749.00, 
1750.00, 
1751.00, 
1752.00, 
1753.00, 
1754.00, 
1755.00, 
1756.00, 
1757.00, 
1758.00, 
1759.00, 
1760.00, 
1761.00, 
1762.00, 
1763.00, 
1764.00, 
1765.00, 
1766.00, 
1767.00, 
1768.00, 
1769.00, 
1770.00, 
1771.00, 
1772.00, 
1773.00, 
1774.00, 
1775.00, 
1776.00, 
1777.00, 
1778.00, 
1779.00, 
1780.00, 
1781.00, 
1782.00, 
1783.00, 
1784.00, 
1785.00, 
1786.00, 
1787.00, 
1788.00, 
1789.00, 
1790.00, 
1791.00, 
1792.00, 
1793.00, 
1794.00, 
1795.00, 
1796.00, 
1797.00, 
1798.00, 
1799.00, 
1800.00, 
1801.00, 
1802.00, 
1803.00, 
1804.00, 
1805.00, 
1806.00, 
1807.00, 
1808.00, 
1809.00, 
1810.00, 
1811.00, 
1812.00, 
1813.00, 
1814.00, 
1815.00, 
1816.00, 
1817.00, 
1818.00, 
1819.00, 
1820.00, 
1821.00, 
1822.00, 
1823.00, 
1824.00, 
1825.00, 
1826.00, 
1827.00, 
1828.00, 
1829.00, 
1830.00, 
1831.00, 
1832.00, 
1833.00, 
1834.00, 
1835.00, 
1836.00, 
1837.00, 
1838.00, 
1839.00, 
1840.00, 
1841.00, 
1842.00, 
1843.00, 
1844.00, 
1845.00, 
1846.00, 
1847.00, 
1848.00, 
1849.00, 
1850.00, 
1851.00, 
1852.00, 
1853.00, 
1854.00, 
1855.00, 
1856.00, 
1857.00, 
1858.00, 
1859.00, 
1860.00, 
1861.00, 
1862.00, 
1863.00, 
1864.00, 
1865.00, 
1866.00, 
1867.00, 
1868.00, 
1869.00, 
1870.00, 
1871.00, 
1872.00, 
1873.00, 
1874.00, 
1875.00, 
1876.00, 
1877.00, 
1878.00, 
1879.00, 
1880.00, 
1881.00, 
1882.00, 
1883.00, 
1884.00, 
1885.00, 
1886.00, 
1887.00, 
1888.00, 
1889.00, 
1890.00, 
1891.00, 
1892.00, 
1893.00, 
1894.00, 
1895.00, 
1896.00, 
1897.00, 
1898.00, 
1899.00, 
1900.00, 
1901.00, 
1902.00, 
1903.00, 
1904.00, 
1905.00, 
1906.00, 
1907.00, 
1908.00, 
1909.00, 
1910.00, 
1911.00, 
1912.00, 
1913.00, 
1914.00, 
1915.00, 
1916.00, 
1917.00, 
1918.00, 
1919.00, 
1920.00, 
1921.00, 
1922.00, 
1923.00, 
1924.00, 
1925.00, 
1926.00, 
1927.00, 
1928.00, 
1929.00, 
1930.00, 
1931.00, 
1932.00, 
1933.00, 
1934.00, 
1935.00, 
1936.00, 
1937.00, 
1938.00, 
1939.00, 
1940.00, 
1941.00, 
1942.00, 
1943.00, 
1944.00, 
1945.00, 
1946.00, 
1947.00, 
1948.00, 
1949.00, 
1950.00, 
1951.00, 
1952.00, 
1953.00, 
1954.00, 
1955.00, 
1956.00, 
1957.00, 
1958.00, 
1959.00, 
1960.00, 
1961.00, 
1962.00, 
1963.00, 
1964.00, 
1965.00, 
1966.00, 
1967.00, 
1968.00, 
1969.00, 
1970.00, 
1971.00, 
1972.00, 
1973.00, 
1974.00, 
1975.00, 
1976.00, 
1977.00, 
1978.00, 
1979.00, 
1980.00, 
1981.00, 
1982.00, 
1983.00, 
1984.00, 
1985.00, 
1986.00, 
1987.00, 
1988.00, 
1989.00, 
1990.00, 
1991.00, 
1992.00, 
1993.00, 
1994.00, 
1995.00, 
1996.00, 
1997.00, 
1998.00, 
1999.00, 
2000.00, 
2001.00, 
2002.00, 
2003.00, 
2004.00, 
2005.00, 
2006.00, 
2007.00, 
2008.00, 
2009.00, 
2010.00, 
2011.00, 
2012.00, 
2013.00, 
2014.00, 
2015.00, 
2016.00, 
2017.00, 
2018.00, 
2019.00, 
2020.00, 
2021.00, 
2022.00, 
2023.00, 
2024.00, 
2025.00, 
2026.00, 
2027.00, 
2028.00, 
2029.00, 
2030.00, 
2031.00, 
2032.00, 
2033.00, 
2034.00, 
2035.00, 
2036.00, 
2037.00, 
2038.00, 
2039.00, 
2040.00, 
2041.00, 
2042.00, 
2043.00, 
2044.00, 
2045.00, 
2046.00, 
2047.00, 
2048.00, 
2049.00, 
2050.00, 
2051.00, 
2052.00, 
2053.00, 
2054.00, 
2055.00, 
2056.00, 
2057.00, 
2058.00, 
2059.00, 
2060.00, 
2061.00, 
2062.00, 
2063.00, 
2064.00, 
2065.00, 
2066.00, 
2067.00, 
2068.00, 
2069.00, 
2070.00, 
2071.00, 
2072.00, 
2073.00, 
2074.00, 
2075.00, 
2076.00, 
2077.00, 
2078.00, 
2079.00, 
2080.00, 
2081.00, 
2082.00, 
2083.00, 
2084.00, 
2085.00, 
2086.00, 
2087.00, 
2088.00, 
2089.00, 
2090.00, 
2091.00, 
2092.00, 
2093.00, 
2094.00, 
2095.00, 
2096.00, 
2097.00, 
2098.00, 
2099.00, 
2100.00, 
2101.00, 
2102.00, 
2103.00, 
2104.00, 
2105.00, 
2106.00, 
2107.00, 
2108.00, 
2109.00, 
2110.00, 
2111.00, 
2112.00, 
2113.00, 
2114.00, 
2115.00, 
2116.00, 
2117.00, 
2118.00, 
2119.00, 
2120.00, 
2121.00, 
2122.00, 
2123.00, 
2124.00, 
2125.00, 
2126.00, 
2127.00, 
2128.00, 
2129.00, 
2130.00, 
2131.00, 
2132.00, 
2133.00, 
2134.00, 
2135.00, 
2136.00, 
2137.00, 
2138.00, 
2139.00, 
2140.00, 
2141.00, 
2142.00, 
2143.00, 
2144.00, 
2145.00, 
2146.00, 
2147.00, 
2148.00, 
2149.00, 
2150.00, 
2151.00, 
2152.00, 
2153.00, 
2154.00, 
2155.00, 
2156.00, 
2157.00, 
2158.00, 
2159.00, 
2160.00, 
2161.00, 
2162.00, 
2163.00, 
2164.00, 
2165.00, 
2166.00, 
2167.00, 
2168.00, 
2169.00, 
2170.00, 
2171.00, 
2172.00, 
2173.00, 
2174.00, 
2175.00, 
2176.00, 
2177.00, 
2178.00, 
2179.00, 
2180.00, 
2181.00, 
2182.00, 
2183.00, 
2184.00, 
2185.00, 
2186.00, 
2187.00, 
2188.00, 
2189.00, 
2190.00, 
2191.00, 
2192.00, 
2193.00, 
2194.00, 
2195.00, 
2196.00, 
2197.00, 
2198.00, 
2199.00, 
2200.00, 
2201.00, 
2202.00, 
2203.00, 
2204.00, 
2205.00, 
2206.00, 
2207.00, 
2208.00, 
2209.00, 
2210.00, 
2211.00, 
2212.00, 
2213.00, 
2214.00, 
2215.00, 
2216.00, 
2217.00, 
2218.00, 
2219.00, 
2220.00, 
2221.00, 
2222.00, 
2223.00, 
2224.00, 
2225.00, 
2226.00, 
2227.00, 
2228.00, 
2229.00, 
2230.00, 
2231.00, 
2232.00, 
2233.00, 
2234.00, 
2235.00, 
2236.00, 
2237.00, 
2238.00, 
2239.00, 
2240.00, 
2241.00, 
2242.00, 
2243.00, 
2244.00, 
2245.00, 
2246.00, 
2247.00, 
2248.00, 
2249.00, 
2250.00, 
2251.00, 
2252.00, 
2253.00, 
2254.00, 
2255.00, 
2256.00, 
2257.00, 
2258.00, 
2259.00, 
2260.00, 
2261.00, 
2262.00, 
2263.00, 
2264.00, 
2265.00, 
2266.00, 
2267.00, 
2268.00, 
2269.00, 
2270.00, 
2271.00, 
2272.00, 
2273.00, 
2274.00, 
2275.00, 
2276.00, 
2277.00, 
2278.00, 
2279.00, 
2280.00, 
2281.00, 
2282.00, 
2283.00, 
2284.00, 
2285.00, 
2286.00, 
2287.00, 
2288.00, 
2289.00, 
2290.00, 
2291.00, 
2292.00, 
2293.00, 
2294.00, 
2295.00, 
2296.00, 
2297.00, 
2298.00, 
2299.00, 
2300.00, 
2301.00, 
2302.00, 
2303.00, 
2304.00, 
2305.00, 
2306.00, 
2307.00, 
2308.00, 
2309.00, 
2310.00, 
2311.00, 
2312.00, 
2313.00, 
2314.00, 
2315.00, 
2316.00, 
2317.00, 
2318.00, 
2319.00, 
2320.00, 
2321.00, 
2322.00, 
2323.00, 
2324.00, 
2325.00, 
2326.00, 
2327.00, 
2328.00, 
2329.00, 
2330.00, 
2331.00, 
2332.00, 
2333.00, 
2334.00, 
2335.00, 
2336.00, 
2337.00, 
2338.00, 
2339.00, 
2340.00, 
2341.00, 
2342.00, 
2343.00, 
2344.00, 
2345.00, 
2346.00, 
2347.00, 
2348.00, 
2349.00, 
2350.00, 
2351.00, 
2352.00, 
2353.00, 
2354.00, 
2355.00, 
2356.00, 
2357.00, 
2358.00, 
2359.00, 
2360.00, 
2361.00, 
2362.00, 
2363.00, 
2364.00, 
2365.00, 
2366.00, 
2367.00, 
2368.00, 
2369.00, 
2370.00, 
2371.00, 
2372.00, 
2373.00, 
2374.00, 
2375.00, 
2376.00, 
2377.00, 
2378.00, 
2379.00, 
2380.00, 
2381.00, 
2382.00, 
2383.00, 
2384.00, 
2385.00, 
2386.00, 
2387.00, 
2388.00, 
2389.00, 
2390.00, 
2391.00, 
2392.00, 
2393.00, 
2394.00, 
2395.00, 
2396.00, 
2397.00, 
2398.00, 
2399.00, 
2400.00, 
2401.00, 
2402.00, 
2403.00, 
2404.00, 
2405.00, 
2406.00, 
2407.00, 
2408.00, 
2409.00, 
2410.00, 
2411.00, 
2412.00, 
2413.00, 
2414.00, 
2415.00, 
2416.00, 
2417.00, 
2418.00, 
2419.00, 
2420.00, 
2421.00, 
2422.00, 
2423.00, 
2424.00, 
2425.00, 
2426.00, 
2427.00, 
2428.00, 
2429.00, 
2430.00, 
2431.00, 
2432.00, 
2433.00, 
2434.00, 
2435.00, 
2436.00, 
2437.00, 
2438.00, 
2439.00, 
2440.00, 
2441.00, 
2442.00, 
2443.00, 
2444.00, 
2445.00, 
2446.00, 
2447.00, 
2448.00, 
2449.00, 
2450.00, 
2451.00, 
2452.00, 
2453.00, 
2454.00, 
2455.00, 
2456.00, 
2457.00, 
2458.00, 
2459.00, 
2460.00, 
2461.00, 
2462.00, 
2463.00, 
2464.00, 
2465.00, 
2466.00, 
2467.00, 
2468.00, 
2469.00, 
2470.00, 
2471.00, 
2472.00, 
2473.00, 
2474.00, 
2475.00, 
2476.00, 
2477.00, 
2478.00, 
2479.00, 
2480.00, 
2481.00, 
2482.00, 
2483.00, 
2484.00, 
2485.00, 
2486.00, 
2487.00, 
2488.00, 
2489.00, 
2490.00, 
2491.00, 
2492.00, 
2493.00, 
2494.00, 
2495.00, 
2496.00, 
2497.00, 
2498.00, 
2499.00, 
2500.00, 
2501.00, 
2502.00, 
2503.00, 
2504.00, 
2505.00, 
2506.00, 
2507.00, 
2508.00, 
2509.00, 
2510.00, 
2511.00, 
2512.00, 
2513.00, 
2514.00, 
2515.00, 
2516.00, 
2517.00, 
2518.00, 
2519.00, 
2520.00, 
2521.00, 
2522.00, 
2523.00, 
2524.00, 
2525.00, 
2526.00, 
2527.00, 
2528.00, 
2529.00, 
2530.00, 
2531.00, 
2532.00, 
2533.00, 
2534.00, 
2535.00, 
2536.00, 
2537.00, 
2538.00, 
2539.00, 
2540.00, 
2541.00, 
2542.00, 
2543.00, 
2544.00, 
2545.00, 
2546.00, 
2547.00, 
2548.00, 
2549.00, 
2550.00, 
2551.00, 
2552.00, 
2553.00, 
2554.00, 
2555.00, 
2556.00, 
2557.00, 
2558.00, 
2559.00, 
2560.00, 
2561.00, 
2562.00, 
2563.00, 
2564.00, 
2565.00, 
2566.00, 
2567.00, 
2568.00, 
2569.00, 
2570.00, 
2571.00, 
2572.00, 
2573.00, 
2574.00, 
2575.00, 
2576.00, 
2577.00, 
2578.00, 
2579.00, 
2580.00, 
2581.00, 
2582.00, 
2583.00, 
2584.00, 
2585.00, 
2586.00, 
2587.00, 
2588.00, 
2589.00, 
2590.00, 
2591.00, 
2592.00, 
2593.00, 
2594.00, 
2595.00, 
2596.00, 
2597.00, 
2598.00, 
2599.00, 
2600.00, 
