"2aP2 - RawData"
"Wavelength nm.","T%"
200.00,0.006
201.00,0.003
202.00,0.003
203.00,0.001
204.00,0.003
205.00,0.001
206.00,0.002
207.00,0.000
208.00,0.001
209.00,0.003
210.00,0.002
211.00,-0.001
212.00,0.002
213.00,0.001
214.00,0.001
215.00,0.001
216.00,0.003
217.00,0.003
218.00,0.005
219.00,0.002
220.00,0.001
221.00,0.000
222.00,0.000
223.00,0.002
224.00,0.003
225.00,-0.000
226.00,0.001
227.00,0.000
228.00,0.002
229.00,0.002
230.00,0.003
231.00,0.001
232.00,0.000
233.00,0.003
234.00,0.001
235.00,0.001
236.00,0.000
237.00,0.000
238.00,0.001
239.00,0.000
240.00,0.001
241.00,0.001
242.00,0.002
243.00,0.000
244.00,0.002
245.00,0.002
246.00,0.001
247.00,0.001
248.00,0.000
249.00,0.003
250.00,0.001
251.00,-0.001
252.00,-0.001
253.00,0.002
254.00,0.002
255.00,-0.000
256.00,-0.001
257.00,0.000
258.00,-0.001
259.00,-0.001
260.00,-0.000
261.00,-0.000
262.00,0.001
263.00,0.000
264.00,-0.001
265.00,0.000
266.00,-0.000
267.00,0.000
268.00,-0.000
269.00,0.000
270.00,0.000
271.00,-0.000
272.00,0.000
273.00,-0.001
274.00,0.001
275.00,0.001
276.00,0.001
277.00,0.000
278.00,0.000
279.00,0.001
280.00,0.001
281.00,0.000
282.00,-0.001
283.00,0.000
284.00,0.000
285.00,0.000
286.00,0.000
287.00,-0.000
288.00,-0.002
289.00,-0.000
290.00,-0.001
291.00,-0.000
292.00,0.001
293.00,0.000
294.00,-0.000
295.00,-0.000
296.00,-0.000
297.00,0.000
298.00,0.002
299.00,0.001
300.00,0.001
301.00,0.003
302.00,0.003
303.00,0.006
304.00,0.008
305.00,0.014
306.00,0.024
307.00,0.035
308.00,0.056
309.00,0.085
310.00,0.119
311.00,0.161
312.00,0.216
313.00,0.291
314.00,0.383
315.00,0.503
316.00,0.638
317.00,0.809
318.00,0.990
319.00,1.215
320.00,1.476
321.00,1.769
322.00,2.080
323.00,2.458
324.00,2.843
325.00,3.246
326.00,3.645
327.00,4.110
328.00,4.579
329.00,5.058
330.00,5.564
331.00,6.060
332.00,6.597
333.00,7.180
334.00,7.664
335.00,8.236
336.00,8.752
337.00,9.297
338.00,9.796
339.00,10.273
340.00,10.784
341.00,11.261
342.00,11.754
343.00,12.140
344.00,12.540
345.00,12.994
346.00,13.359
347.00,13.706
348.00,14.029
349.00,14.324
350.00,14.628
351.00,14.882
352.00,15.114
353.00,15.340
354.00,15.569
355.00,15.839
356.00,16.049
357.00,16.163
358.00,16.356
359.00,16.539
360.00,16.720
361.00,16.780
362.00,16.909
363.00,17.039
364.00,17.058
365.00,17.147
366.00,17.239
367.00,17.271
368.00,17.290
369.00,17.331
370.00,17.371
371.00,17.366
372.00,17.346
373.00,17.349
374.00,17.337
375.00,17.323
376.00,17.245
377.00,17.238
378.00,17.174
379.00,17.101
380.00,17.080
381.00,17.076
382.00,17.077
383.00,17.073
384.00,17.061
385.00,17.078
386.00,17.073
387.00,17.128
388.00,17.140
389.00,17.088
390.00,17.147
391.00,17.100
392.00,17.125
393.00,17.135
394.00,17.154
395.00,17.167
396.00,17.147
397.00,17.151
398.00,17.167
399.00,17.136
400.00,17.133
401.00,17.118
402.00,17.141
403.00,17.117
404.00,17.187
405.00,17.085
406.00,17.079
407.00,17.072
408.00,17.065
409.00,17.011
410.00,16.968
411.00,16.987
412.00,16.953
413.00,16.994
414.00,16.969
415.00,16.975
416.00,16.998
417.00,16.957
418.00,17.051
419.00,17.093
420.00,17.133
421.00,17.166
422.00,17.177
423.00,17.220
424.00,17.261
425.00,17.269
426.00,17.312
427.00,17.376
428.00,17.429
429.00,17.466
430.00,17.499
431.00,17.554
432.00,17.588
433.00,17.647
434.00,17.720
435.00,17.781
436.00,17.839
437.00,17.923
438.00,17.983
439.00,18.040
440.00,18.125
441.00,18.203
442.00,18.289
443.00,18.365
444.00,18.488
445.00,18.554
446.00,18.660
447.00,18.756
448.00,18.850
449.00,18.956
450.00,19.038
451.00,19.141
452.00,19.237
453.00,19.370
454.00,19.482
455.00,19.596
456.00,19.704
457.00,19.803
458.00,19.923
459.00,20.044
460.00,20.176
461.00,20.309
462.00,20.430
463.00,20.576
464.00,20.716
465.00,20.829
466.00,20.974
467.00,21.115
468.00,21.249
469.00,21.350
470.00,21.469
471.00,21.561
472.00,21.722
473.00,21.828
474.00,21.951
475.00,22.089
476.00,22.183
477.00,22.336
478.00,22.466
479.00,22.647
480.00,22.824
481.00,22.940
482.00,23.051
483.00,23.187
484.00,23.333
485.00,23.489
486.00,23.675
487.00,23.851
488.00,23.981
489.00,24.153
490.00,24.310
491.00,24.434
492.00,24.640
493.00,24.837
494.00,24.800
495.00,25.001
496.00,25.158
497.00,25.279
498.00,25.414
499.00,25.558
500.00,25.755
501.00,25.821
502.00,25.997
503.00,26.143
504.00,26.212
505.00,26.405
506.00,26.485
507.00,26.612
508.00,26.742
509.00,26.921
510.00,27.089
511.00,27.161
512.00,27.353
513.00,27.513
514.00,27.608
515.00,27.825
516.00,27.977
517.00,27.959
518.00,28.103
519.00,28.164
520.00,28.220
521.00,28.352
522.00,28.445
523.00,28.507
524.00,28.623
525.00,28.727
526.00,28.891
527.00,28.931
528.00,29.016
529.00,29.203
530.00,29.391
531.00,29.479
532.00,29.546
533.00,29.681
534.00,29.779
535.00,29.868
536.00,29.938
537.00,30.059
538.00,30.145
539.00,30.159
540.00,30.257
541.00,30.315
542.00,30.403
543.00,30.444
544.00,30.544
545.00,30.612
546.00,30.716
547.00,30.822
548.00,30.897
549.00,30.983
550.00,31.067
551.00,31.182
552.00,31.246
553.00,31.254
554.00,31.341
555.00,31.395
556.00,31.469
557.00,31.527
558.00,31.588
559.00,31.704
560.00,31.770
561.00,31.844
562.00,31.884
563.00,31.919
564.00,32.008
565.00,32.020
566.00,32.099
567.00,32.209
568.00,32.145
569.00,32.205
570.00,32.280
571.00,32.357
572.00,32.318
573.00,32.355
574.00,32.424
575.00,32.425
576.00,32.447
577.00,32.488
578.00,32.575
579.00,32.697
580.00,32.725
581.00,32.834
582.00,32.881
583.00,32.944
584.00,33.026
585.00,33.136
586.00,33.155
587.00,33.244
588.00,33.278
589.00,33.252
590.00,33.333
591.00,33.411
592.00,33.426
593.00,33.391
594.00,33.561
595.00,33.691
596.00,33.667
597.00,33.663
598.00,33.813
599.00,33.793
600.00,33.833
601.00,33.954
602.00,33.949
603.00,34.005
604.00,34.028
605.00,34.108
606.00,34.159
607.00,34.192
608.00,34.354
609.00,34.455
610.00,34.380
611.00,34.456
612.00,34.497
613.00,34.551
614.00,34.601
615.00,34.705
616.00,34.790
617.00,34.778
618.00,34.835
619.00,34.910
620.00,34.945
621.00,35.045
622.00,35.097
623.00,35.132
624.00,35.275
625.00,35.383
626.00,35.433
627.00,35.521
628.00,35.545
629.00,35.587
630.00,35.634
631.00,35.756
632.00,35.830
633.00,35.947
634.00,36.056
635.00,36.115
636.00,36.271
637.00,36.296
638.00,36.350
639.00,36.432
640.00,36.538
641.00,36.586
642.00,36.739
643.00,36.827
644.00,36.913
645.00,36.986
646.00,37.140
647.00,37.182
648.00,37.265
649.00,37.380
650.00,37.385
651.00,37.598
652.00,37.634
653.00,37.713
654.00,37.739
655.00,38.057
656.00,38.356
657.00,38.299
658.00,38.361
659.00,38.534
660.00,38.546
661.00,38.657
662.00,38.795
663.00,38.862
664.00,39.166
665.00,39.324
666.00,39.258
667.00,39.384
668.00,39.409
669.00,39.696
670.00,39.916
671.00,39.920
672.00,39.964
673.00,40.109
674.00,40.198
675.00,40.301
676.00,40.522
677.00,40.724
678.00,40.594
679.00,40.787
680.00,40.799
681.00,41.134
682.00,41.139
683.00,40.980
684.00,41.221
685.00,41.770
686.00,41.728
687.00,41.667
688.00,41.841
689.00,41.888
690.00,42.185
691.00,42.404
692.00,42.219
693.00,42.235
694.00,42.532
695.00,42.675
696.00,42.703
697.00,42.736
698.00,42.934
699.00,43.262
700.00,43.298
701.00,43.343
702.00,43.467
703.00,43.692
704.00,43.837
705.00,43.732
706.00,43.829
707.00,43.870
708.00,44.096
709.00,44.603
710.00,44.329
711.00,44.285
712.00,44.444
713.00,44.639
714.00,44.737
715.00,44.774
716.00,44.676
717.00,44.961
718.00,45.079
719.00,45.120
720.00,45.185
721.00,49.744
722.00,49.723
723.00,49.839
724.00,49.787
725.00,49.847
726.00,49.917
727.00,49.971
728.00,50.066
729.00,50.115
730.00,50.198
731.00,50.286
732.00,50.293
733.00,50.335
734.00,50.417
735.00,50.493
736.00,50.529
737.00,50.666
738.00,50.664
739.00,50.726
740.00,50.773
741.00,50.894
742.00,50.858
743.00,50.967
744.00,50.914
745.00,51.027
746.00,51.106
747.00,51.058
748.00,51.062
749.00,51.201
750.00,51.087
751.00,51.195
752.00,51.239
753.00,51.257
754.00,51.276
755.00,51.322
756.00,51.366
757.00,51.356
758.00,51.432
759.00,51.433
760.00,51.477
761.00,51.531
762.00,51.563
763.00,51.645
764.00,51.548
765.00,51.658
766.00,51.744
767.00,51.748
768.00,51.732
769.00,51.775
770.00,51.828
771.00,51.899
772.00,51.969
773.00,51.945
774.00,51.996
775.00,51.967
776.00,51.927
777.00,52.014
778.00,51.945
779.00,52.078
780.00,52.018
781.00,52.089
782.00,52.135
783.00,52.103
784.00,52.163
785.00,52.085
786.00,52.151
787.00,52.159
788.00,52.128
789.00,52.173
790.00,52.143
791.00,52.181
792.00,52.171
793.00,52.180
794.00,52.172
795.00,52.190
796.00,52.159
797.00,52.066
798.00,52.262
799.00,52.098
800.00,52.172
801.00,52.230
802.00,52.100
803.00,52.098
804.00,52.089
805.00,52.198
806.00,52.106
807.00,52.251
808.00,52.116
809.00,52.106
810.00,52.112
811.00,52.165
812.00,52.126
813.00,52.113
814.00,52.129
815.00,52.119
816.00,52.129
817.00,52.095
818.00,52.082
819.00,52.092
820.00,52.081
821.00,52.144
822.00,52.096
823.00,52.159
824.00,52.102
825.00,51.962
826.00,52.090
827.00,52.163
828.00,52.029
829.00,52.040
830.00,52.066
831.00,54.215
832.00,54.213
833.00,54.177
834.00,54.193
835.00,54.175
836.00,54.179
837.00,54.180
838.00,54.136
839.00,54.126
840.00,54.072
841.00,54.110
842.00,54.055
843.00,54.092
844.00,54.080
845.00,54.026
846.00,54.060
847.00,54.086
848.00,54.032
849.00,53.970
850.00,53.961
851.00,53.874
852.00,53.938
853.00,53.858
854.00,53.838
855.00,53.752
856.00,53.907
857.00,53.769
858.00,53.777
859.00,53.758
860.00,53.776
861.00,53.743
862.00,53.679
863.00,53.706
864.00,53.663
865.00,53.688
866.00,53.754
867.00,53.704
868.00,53.655
869.00,53.700
870.00,53.657
871.00,53.679
872.00,53.679
873.00,53.670
874.00,53.658
875.00,53.600
876.00,53.682
877.00,53.640
878.00,53.630
879.00,53.577
880.00,53.646
881.00,53.475
882.00,53.591
883.00,53.567
884.00,53.511
885.00,53.500
886.00,53.496
887.00,53.468
888.00,53.459
889.00,53.450
890.00,53.432
891.00,53.411
892.00,53.401
893.00,53.381
894.00,53.399
895.00,53.359
896.00,53.338
897.00,53.297
898.00,53.290
899.00,53.280
900.00,53.273
901.00,53.269
902.00,53.299
903.00,53.235
904.00,53.248
905.00,53.244
906.00,53.216
907.00,53.194
908.00,53.148
909.00,53.151
910.00,53.131
911.00,53.112
912.00,53.108
913.00,53.036
914.00,53.035
915.00,53.015
916.00,53.015
917.00,53.012
918.00,52.996
919.00,52.955
920.00,52.941
921.00,52.919
922.00,52.922
923.00,52.875
924.00,52.847
925.00,52.859
926.00,52.845
927.00,52.821
928.00,52.819
929.00,52.795
930.00,52.769
931.00,52.754
932.00,52.716
933.00,52.722
934.00,52.689
935.00,52.675
936.00,52.674
937.00,52.660
938.00,52.664
939.00,52.659
940.00,52.614
941.00,52.611
942.00,52.586
943.00,52.569
944.00,52.523
945.00,52.527
946.00,52.510
947.00,52.477
948.00,52.462
949.00,52.459
950.00,52.453
951.00,52.419
952.00,52.388
953.00,52.353
954.00,52.330
955.00,52.276
956.00,52.296
957.00,52.345
958.00,52.287
959.00,52.207
960.00,52.209
961.00,52.205
962.00,52.184
963.00,52.142
964.00,52.134
965.00,52.139
966.00,52.110
967.00,52.127
968.00,52.084
969.00,52.150
970.00,52.099
971.00,52.117
972.00,52.134
973.00,52.100
974.00,52.124
975.00,52.079
976.00,52.085
977.00,52.083
978.00,52.125
979.00,52.085
980.00,52.127
981.00,52.107
982.00,52.087
983.00,52.105
984.00,52.070
985.00,52.092
986.00,52.061
987.00,52.067
988.00,52.043
989.00,52.029
990.00,52.020
991.00,52.019
992.00,52.022
993.00,51.983
994.00,51.971
995.00,51.966
996.00,51.976
997.00,51.954
998.00,51.915
999.00,51.944
1000.00,51.906
1001.00,51.904
1002.00,51.895
1003.00,51.882
1004.00,51.860
1005.00,51.830
1006.00,51.858
1007.00,51.826
1008.00,51.814
1009.00,51.781
1010.00,51.790
1011.00,51.760
1012.00,51.741
1013.00,51.745
1014.00,51.711
1015.00,51.720
1016.00,51.676
1017.00,51.685
1018.00,51.729
1019.00,51.630
1020.00,51.615
1021.00,51.603
1022.00,51.610
1023.00,51.548
1024.00,51.562
1025.00,51.536
1026.00,51.531
1027.00,51.527
1028.00,51.529
1029.00,51.511
1030.00,51.500
1031.00,51.474
1032.00,51.429
1033.00,51.460
1034.00,51.412
1035.00,51.387
1036.00,51.354
1037.00,51.334
1038.00,51.333
1039.00,51.295
1040.00,51.300
1041.00,51.257
1042.00,51.240
1043.00,51.230
1044.00,51.252
1045.00,51.241
1046.00,51.231
1047.00,51.247
1048.00,51.256
1049.00,51.274
1050.00,51.256
1051.00,51.313
1052.00,51.311
1053.00,51.306
1054.00,51.305
1055.00,51.318
1056.00,51.327
1057.00,51.327
1058.00,51.300
1059.00,51.302
1060.00,51.328
1061.00,51.300
1062.00,51.293
1063.00,51.326
1064.00,51.285
1065.00,51.284
1066.00,51.281
1067.00,51.261
1068.00,51.304
1069.00,51.252
1070.00,51.236
1071.00,51.217
1072.00,51.232
1073.00,51.223
1074.00,51.206
1075.00,51.178
1076.00,51.211
1077.00,51.180
1078.00,51.162
1079.00,51.177
1080.00,51.150
1081.00,51.131
1082.00,51.130
1083.00,51.121
1084.00,51.129
1085.00,51.129
1086.00,51.089
1087.00,51.097
1088.00,51.075
1089.00,51.074
1090.00,51.076
1091.00,51.081
1092.00,51.083
1093.00,51.090
1094.00,51.036
1095.00,51.030
1096.00,51.024
1097.00,51.002
1098.00,51.003
1099.00,50.997
1100.00,50.986
1101.00,50.978
1102.00,50.940
1103.00,50.945
1104.00,50.937
1105.00,50.913
1106.00,50.914
1107.00,50.917
1108.00,50.897
1109.00,50.894
1110.00,50.894
1111.00,50.879
1112.00,50.870
1113.00,50.871
1114.00,50.848
1115.00,50.857
1116.00,50.830
1117.00,50.821
1118.00,50.821
1119.00,50.809
1120.00,50.811
1121.00,50.800
1122.00,50.767
1123.00,50.793
1124.00,50.782
1125.00,50.772
1126.00,50.768
1127.00,50.760
1128.00,50.747
1129.00,50.742
1130.00,50.708
1131.00,50.710
1132.00,50.674
1133.00,50.667
1134.00,50.677
1135.00,50.664
1136.00,50.667
1137.00,50.661
1138.00,50.648
1139.00,50.678
1140.00,50.675
1141.00,50.663
1142.00,50.656
1143.00,50.680
1144.00,50.638
1145.00,50.643
1146.00,50.634
1147.00,50.630
1148.00,50.627
1149.00,50.618
1150.00,50.635
1151.00,50.644
1152.00,50.612
1153.00,50.620
1154.00,50.614
1155.00,50.611
1156.00,50.623
1157.00,50.617
1158.00,50.599
1159.00,50.604
1160.00,50.601
1161.00,50.616
1162.00,50.609
1163.00,50.596
1164.00,50.606
1165.00,50.592
1166.00,50.591
1167.00,50.597
1168.00,50.598
1169.00,50.582
1170.00,50.599
1171.00,50.566
1172.00,50.578
1173.00,50.576
1174.00,50.576
1175.00,50.576
1176.00,50.578
1177.00,50.557
1178.00,50.560
1179.00,50.556
1180.00,50.540
1181.00,50.571
1182.00,50.556
1183.00,50.559
1184.00,50.553
1185.00,50.563
1186.00,50.549
1187.00,50.549
1188.00,50.536
1189.00,50.542
1190.00,50.528
1191.00,50.517
1192.00,50.540
1193.00,50.519
1194.00,50.530
1195.00,50.525
1196.00,50.542
1197.00,50.544
1198.00,50.541
1199.00,50.523
1200.00,50.553
1201.00,50.557
1202.00,50.518
1203.00,50.522
1204.00,50.495
1205.00,50.519
1206.00,50.507
1207.00,50.498
1208.00,50.488
1209.00,50.511
1210.00,50.515
1211.00,50.507
1212.00,50.508
1213.00,50.488
1214.00,50.518
1215.00,50.471
1216.00,50.503
1217.00,50.512
1218.00,50.480
1219.00,50.503
1220.00,50.496
1221.00,50.486
1222.00,50.472
1223.00,50.499
1224.00,50.490
1225.00,50.480
1226.00,50.474
1227.00,50.488
1228.00,50.510
1229.00,50.490
1230.00,50.547
1231.00,50.533
1232.00,50.529
1233.00,50.553
1234.00,50.539
1235.00,50.525
1236.00,50.526
1237.00,50.533
1238.00,50.537
1239.00,50.553
1240.00,50.521
1241.00,50.546
1242.00,50.542
1243.00,50.541
1244.00,50.530
1245.00,50.549
1246.00,50.554
1247.00,50.551
1248.00,50.542
1249.00,50.570
1250.00,50.573
1251.00,50.557
1252.00,50.561
1253.00,50.538
1254.00,50.561
1255.00,50.562
1256.00,50.550
1257.00,50.537
1258.00,50.591
1259.00,50.567
1260.00,50.606
1261.00,50.598
1262.00,50.580
1263.00,50.587
1264.00,50.583
1265.00,50.582
1266.00,50.586
1267.00,50.597
1268.00,50.607
1269.00,50.613
1270.00,50.622
1271.00,50.637
1272.00,50.640
1273.00,50.642
1274.00,50.649
1275.00,50.646
1276.00,50.631
1277.00,50.656
1278.00,50.649
1279.00,50.659
1280.00,50.659
1281.00,50.665
1282.00,50.685
1283.00,50.683
1284.00,50.676
1285.00,50.667
1286.00,50.702
1287.00,50.681
1288.00,50.690
1289.00,50.679
1290.00,50.694
1291.00,50.690
1292.00,50.684
1293.00,50.698
1294.00,50.717
1295.00,50.722
1296.00,50.726
1297.00,50.733
1298.00,50.751
1299.00,50.739
1300.00,50.749
1301.00,50.736
1302.00,50.767
1303.00,50.748
1304.00,50.748
1305.00,50.771
1306.00,50.769
1307.00,50.780
1308.00,50.765
1309.00,50.782
1310.00,50.796
1311.00,50.767
1312.00,50.773
1313.00,50.792
1314.00,50.801
1315.00,50.816
1316.00,50.829
1317.00,50.855
1318.00,50.839
1319.00,50.849
1320.00,50.841
1321.00,51.010
1322.00,50.990
1323.00,50.963
1324.00,50.972
1325.00,50.953
1326.00,50.972
1327.00,50.978
1328.00,50.967
1329.00,50.976
1330.00,50.969
1331.00,50.966
1332.00,50.963
1333.00,50.998
1334.00,50.989
1335.00,51.039
1336.00,51.071
1337.00,51.067
1338.00,51.130
1339.00,51.156
1340.00,51.217
1341.00,51.293
1342.00,51.346
1343.00,51.407
1344.00,51.444
1345.00,51.499
1346.00,51.539
1347.00,51.551
1348.00,51.579
1349.00,51.600
1350.00,51.612
1351.00,51.618
1352.00,51.629
1353.00,51.671
1354.00,51.654
1355.00,51.600
1356.00,51.683
1357.00,51.682
1358.00,51.705
1359.00,51.733
1360.00,51.721
1361.00,51.672
1362.00,51.657
1363.00,51.733
1364.00,51.766
1365.00,51.686
1366.00,51.774
1367.00,51.659
1368.00,51.672
1369.00,51.701
1370.00,51.668
1371.00,51.682
1372.00,51.689
1373.00,51.684
1374.00,51.709
1375.00,51.691
1376.00,51.680
1377.00,51.682
1378.00,51.709
1379.00,51.720
1380.00,51.669
1381.00,51.746
1382.00,51.655
1383.00,51.682
1384.00,51.629
1385.00,51.601
1386.00,51.648
1387.00,51.660
1388.00,51.601
1389.00,51.623
1390.00,51.729
1391.00,51.644
1392.00,51.640
1393.00,51.677
1394.00,51.674
1395.00,51.649
1396.00,51.591
1397.00,51.607
1398.00,51.730
1399.00,51.648
1400.00,51.564
1401.00,51.614
1402.00,51.727
1403.00,51.652
1404.00,51.651
1405.00,51.691
1406.00,51.702
1407.00,51.757
1408.00,51.671
1409.00,51.679
1410.00,51.714
1411.00,51.740
1412.00,51.838
1413.00,52.086
1414.00,51.723
1415.00,51.731
1416.00,51.747
1417.00,51.802
1418.00,51.788
1419.00,51.782
1420.00,51.802
1421.00,51.841
1422.00,51.847
1423.00,51.868
1424.00,51.859
1425.00,51.880
1426.00,51.891
1427.00,51.911
1428.00,51.893
1429.00,51.906
1430.00,51.905
1431.00,51.944
1432.00,51.950
1433.00,51.953
1434.00,51.951
1435.00,52.002
1436.00,51.988
1437.00,51.995
1438.00,52.012
1439.00,52.045
1440.00,52.049
1441.00,52.059
1442.00,52.086
1443.00,52.112
1444.00,52.165
1445.00,52.123
1446.00,52.149
1447.00,52.151
1448.00,52.208
1449.00,52.204
1450.00,52.214
1451.00,52.221
1452.00,52.237
1453.00,52.245
1454.00,52.278
1455.00,52.282
1456.00,52.312
1457.00,52.290
1458.00,52.319
1459.00,52.354
1460.00,52.361
1461.00,52.352
1462.00,52.408
1463.00,52.396
1464.00,52.413
1465.00,52.426
1466.00,52.424
1467.00,52.458
1468.00,52.486
1469.00,52.466
1470.00,52.493
1471.00,52.508
1472.00,52.531
1473.00,52.542
1474.00,52.566
1475.00,52.573
1476.00,52.594
1477.00,52.555
1478.00,52.605
1479.00,52.620
1480.00,52.612
1481.00,52.624
1482.00,52.635
1483.00,52.641
1484.00,52.657
1485.00,52.658
1486.00,52.694
1487.00,52.704
1488.00,52.735
1489.00,52.731
1490.00,52.747
1491.00,52.754
1492.00,52.787
1493.00,52.762
1494.00,52.796
1495.00,52.792
1496.00,52.816
1497.00,52.797
1498.00,52.826
1499.00,52.822
1500.00,52.840
1501.00, 
1502.00, 
1503.00, 
1504.00, 
1505.00, 
1506.00, 
1507.00, 
1508.00, 
1509.00, 
1510.00, 
1511.00, 
1512.00, 
1513.00, 
1514.00, 
1515.00, 
1516.00, 
1517.00, 
1518.00, 
1519.00, 
1520.00, 
1521.00, 
1522.00, 
1523.00, 
1524.00, 
1525.00, 
1526.00, 
1527.00, 
1528.00, 
1529.00, 
1530.00, 
1531.00, 
1532.00, 
1533.00, 
1534.00, 
1535.00, 
1536.00, 
1537.00, 
1538.00, 
1539.00, 
1540.00, 
1541.00, 
1542.00, 
1543.00, 
1544.00, 
1545.00, 
1546.00, 
1547.00, 
1548.00, 
1549.00, 
1550.00, 
1551.00, 
1552.00, 
1553.00, 
1554.00, 
1555.00, 
1556.00, 
1557.00, 
1558.00, 
1559.00, 
1560.00, 
1561.00, 
1562.00, 
1563.00, 
1564.00, 
1565.00, 
1566.00, 
1567.00, 
1568.00, 
1569.00, 
1570.00, 
1571.00, 
1572.00, 
1573.00, 
1574.00, 
1575.00, 
1576.00, 
1577.00, 
1578.00, 
1579.00, 
1580.00, 
1581.00, 
1582.00, 
1583.00, 
1584.00, 
1585.00, 
1586.00, 
1587.00, 
1588.00, 
1589.00, 
1590.00, 
1591.00, 
1592.00, 
1593.00, 
1594.00, 
1595.00, 
1596.00, 
1597.00, 
1598.00, 
1599.00, 
1600.00, 
1601.00, 
1602.00, 
1603.00, 
1604.00, 
1605.00, 
1606.00, 
1607.00, 
1608.00, 
1609.00, 
1610.00, 
1611.00, 
1612.00, 
1613.00, 
1614.00, 
1615.00, 
1616.00, 
1617.00, 
1618.00, 
1619.00, 
1620.00, 
1621.00, 
1622.00, 
1623.00, 
1624.00, 
1625.00, 
1626.00, 
1627.00, 
1628.00, 
1629.00, 
1630.00, 
1631.00, 
1632.00, 
1633.00, 
1634.00, 
1635.00, 
1636.00, 
1637.00, 
1638.00, 
1639.00, 
1640.00, 
1641.00, 
1642.00, 
1643.00, 
1644.00, 
1645.00, 
1646.00, 
1647.00, 
1648.00, 
1649.00, 
1650.00, 
1651.00, 
1652.00, 
1653.00, 
1654.00, 
1655.00, 
1656.00, 
1657.00, 
1658.00, 
1659.00, 
1660.00, 
1661.00, 
1662.00, 
1663.00, 
1664.00, 
1665.00, 
1666.00, 
1667.00, 
1668.00, 
1669.00, 
1670.00, 
1671.00, 
1672.00, 
1673.00, 
1674.00, 
1675.00, 
1676.00, 
1677.00, 
1678.00, 
1679.00, 
1680.00, 
1681.00, 
1682.00, 
1683.00, 
1684.00, 
1685.00, 
1686.00, 
1687.00, 
1688.00, 
1689.00, 
1690.00, 
1691.00, 
1692.00, 
1693.00, 
1694.00, 
1695.00, 
1696.00, 
1697.00, 
1698.00, 
1699.00, 
1700.00, 
1701.00, 
1702.00, 
1703.00, 
1704.00, 
1705.00, 
1706.00, 
1707.00, 
1708.00, 
1709.00, 
1710.00, 
1711.00, 
1712.00, 
1713.00, 
1714.00, 
1715.00, 
1716.00, 
1717.00, 
1718.00, 
1719.00, 
1720.00, 
1721.00, 
1722.00, 
1723.00, 
1724.00, 
1725.00, 
1726.00, 
1727.00, 
1728.00, 
1729.00, 
1730.00, 
1731.00, 
1732.00, 
1733.00, 
1734.00, 
1735.00, 
1736.00, 
1737.00, 
1738.00, 
1739.00, 
1740.00, 
1741.00, 
1742.00, 
1743.00, 
1744.00, 
1745.00, 
1746.00, 
1747.00, 
1748.00, 
1749.00, 
1750.00, 
1751.00, 
1752.00, 
1753.00, 
1754.00, 
1755.00, 
1756.00, 
1757.00, 
1758.00, 
1759.00, 
1760.00, 
1761.00, 
1762.00, 
1763.00, 
1764.00, 
1765.00, 
1766.00, 
1767.00, 
1768.00, 
1769.00, 
1770.00, 
1771.00, 
1772.00, 
1773.00, 
1774.00, 
1775.00, 
1776.00, 
1777.00, 
1778.00, 
1779.00, 
1780.00, 
1781.00, 
1782.00, 
1783.00, 
1784.00, 
1785.00, 
1786.00, 
1787.00, 
1788.00, 
1789.00, 
1790.00, 
1791.00, 
1792.00, 
1793.00, 
1794.00, 
1795.00, 
1796.00, 
1797.00, 
1798.00, 
1799.00, 
1800.00, 
1801.00, 
1802.00, 
1803.00, 
1804.00, 
1805.00, 
1806.00, 
1807.00, 
1808.00, 
1809.00, 
1810.00, 
1811.00, 
1812.00, 
1813.00, 
1814.00, 
1815.00, 
1816.00, 
1817.00, 
1818.00, 
1819.00, 
1820.00, 
1821.00, 
1822.00, 
1823.00, 
1824.00, 
1825.00, 
1826.00, 
1827.00, 
1828.00, 
1829.00, 
1830.00, 
1831.00, 
1832.00, 
1833.00, 
1834.00, 
1835.00, 
1836.00, 
1837.00, 
1838.00, 
1839.00, 
1840.00, 
1841.00, 
1842.00, 
1843.00, 
1844.00, 
1845.00, 
1846.00, 
1847.00, 
1848.00, 
1849.00, 
1850.00, 
1851.00, 
1852.00, 
1853.00, 
1854.00, 
1855.00, 
1856.00, 
1857.00, 
1858.00, 
1859.00, 
1860.00, 
1861.00, 
1862.00, 
1863.00, 
1864.00, 
1865.00, 
1866.00, 
1867.00, 
1868.00, 
1869.00, 
1870.00, 
1871.00, 
1872.00, 
1873.00, 
1874.00, 
1875.00, 
1876.00, 
1877.00, 
1878.00, 
1879.00, 
1880.00, 
1881.00, 
1882.00, 
1883.00, 
1884.00, 
1885.00, 
1886.00, 
1887.00, 
1888.00, 
1889.00, 
1890.00, 
1891.00, 
1892.00, 
1893.00, 
1894.00, 
1895.00, 
1896.00, 
1897.00, 
1898.00, 
1899.00, 
1900.00, 
1901.00, 
1902.00, 
1903.00, 
1904.00, 
1905.00, 
1906.00, 
1907.00, 
1908.00, 
1909.00, 
1910.00, 
1911.00, 
1912.00, 
1913.00, 
1914.00, 
1915.00, 
1916.00, 
1917.00, 
1918.00, 
1919.00, 
1920.00, 
1921.00, 
1922.00, 
1923.00, 
1924.00, 
1925.00, 
1926.00, 
1927.00, 
1928.00, 
1929.00, 
1930.00, 
1931.00, 
1932.00, 
1933.00, 
1934.00, 
1935.00, 
1936.00, 
1937.00, 
1938.00, 
1939.00, 
1940.00, 
1941.00, 
1942.00, 
1943.00, 
1944.00, 
1945.00, 
1946.00, 
1947.00, 
1948.00, 
1949.00, 
1950.00, 
1951.00, 
1952.00, 
1953.00, 
1954.00, 
1955.00, 
1956.00, 
1957.00, 
1958.00, 
1959.00, 
1960.00, 
1961.00, 
1962.00, 
1963.00, 
1964.00, 
1965.00, 
1966.00, 
1967.00, 
1968.00, 
1969.00, 
1970.00, 
1971.00, 
1972.00, 
1973.00, 
1974.00, 
1975.00, 
1976.00, 
1977.00, 
1978.00, 
1979.00, 
1980.00, 
1981.00, 
1982.00, 
1983.00, 
1984.00, 
1985.00, 
1986.00, 
1987.00, 
1988.00, 
1989.00, 
1990.00, 
1991.00, 
1992.00, 
1993.00, 
1994.00, 
1995.00, 
1996.00, 
1997.00, 
1998.00, 
1999.00, 
2000.00, 
2001.00, 
2002.00, 
2003.00, 
2004.00, 
2005.00, 
2006.00, 
2007.00, 
2008.00, 
2009.00, 
2010.00, 
2011.00, 
2012.00, 
2013.00, 
2014.00, 
2015.00, 
2016.00, 
2017.00, 
2018.00, 
2019.00, 
2020.00, 
2021.00, 
2022.00, 
2023.00, 
2024.00, 
2025.00, 
2026.00, 
2027.00, 
2028.00, 
2029.00, 
2030.00, 
2031.00, 
2032.00, 
2033.00, 
2034.00, 
2035.00, 
2036.00, 
2037.00, 
2038.00, 
2039.00, 
2040.00, 
2041.00, 
2042.00, 
2043.00, 
2044.00, 
2045.00, 
2046.00, 
2047.00, 
2048.00, 
2049.00, 
2050.00, 
2051.00, 
2052.00, 
2053.00, 
2054.00, 
2055.00, 
2056.00, 
2057.00, 
2058.00, 
2059.00, 
2060.00, 
2061.00, 
2062.00, 
2063.00, 
2064.00, 
2065.00, 
2066.00, 
2067.00, 
2068.00, 
2069.00, 
2070.00, 
2071.00, 
2072.00, 
2073.00, 
2074.00, 
2075.00, 
2076.00, 
2077.00, 
2078.00, 
2079.00, 
2080.00, 
2081.00, 
2082.00, 
2083.00, 
2084.00, 
2085.00, 
2086.00, 
2087.00, 
2088.00, 
2089.00, 
2090.00, 
2091.00, 
2092.00, 
2093.00, 
2094.00, 
2095.00, 
2096.00, 
2097.00, 
2098.00, 
2099.00, 
2100.00, 
2101.00, 
2102.00, 
2103.00, 
2104.00, 
2105.00, 
2106.00, 
2107.00, 
2108.00, 
2109.00, 
2110.00, 
2111.00, 
2112.00, 
2113.00, 
2114.00, 
2115.00, 
2116.00, 
2117.00, 
2118.00, 
2119.00, 
2120.00, 
2121.00, 
2122.00, 
2123.00, 
2124.00, 
2125.00, 
2126.00, 
2127.00, 
2128.00, 
2129.00, 
2130.00, 
2131.00, 
2132.00, 
2133.00, 
2134.00, 
2135.00, 
2136.00, 
2137.00, 
2138.00, 
2139.00, 
2140.00, 
2141.00, 
2142.00, 
2143.00, 
2144.00, 
2145.00, 
2146.00, 
2147.00, 
2148.00, 
2149.00, 
2150.00, 
2151.00, 
2152.00, 
2153.00, 
2154.00, 
2155.00, 
2156.00, 
2157.00, 
2158.00, 
2159.00, 
2160.00, 
2161.00, 
2162.00, 
2163.00, 
2164.00, 
2165.00, 
2166.00, 
2167.00, 
2168.00, 
2169.00, 
2170.00, 
2171.00, 
2172.00, 
2173.00, 
2174.00, 
2175.00, 
2176.00, 
2177.00, 
2178.00, 
2179.00, 
2180.00, 
2181.00, 
2182.00, 
2183.00, 
2184.00, 
2185.00, 
2186.00, 
2187.00, 
2188.00, 
2189.00, 
2190.00, 
2191.00, 
2192.00, 
2193.00, 
2194.00, 
2195.00, 
2196.00, 
2197.00, 
2198.00, 
2199.00, 
2200.00, 
2201.00, 
2202.00, 
2203.00, 
2204.00, 
2205.00, 
2206.00, 
2207.00, 
2208.00, 
2209.00, 
2210.00, 
2211.00, 
2212.00, 
2213.00, 
2214.00, 
2215.00, 
2216.00, 
2217.00, 
2218.00, 
2219.00, 
2220.00, 
2221.00, 
2222.00, 
2223.00, 
2224.00, 
2225.00, 
2226.00, 
2227.00, 
2228.00, 
2229.00, 
2230.00, 
2231.00, 
2232.00, 
2233.00, 
2234.00, 
2235.00, 
2236.00, 
2237.00, 
2238.00, 
2239.00, 
2240.00, 
2241.00, 
2242.00, 
2243.00, 
2244.00, 
2245.00, 
2246.00, 
2247.00, 
2248.00, 
2249.00, 
2250.00, 
2251.00, 
2252.00, 
2253.00, 
2254.00, 
2255.00, 
2256.00, 
2257.00, 
2258.00, 
2259.00, 
2260.00, 
2261.00, 
2262.00, 
2263.00, 
2264.00, 
2265.00, 
2266.00, 
2267.00, 
2268.00, 
2269.00, 
2270.00, 
2271.00, 
2272.00, 
2273.00, 
2274.00, 
2275.00, 
2276.00, 
2277.00, 
2278.00, 
2279.00, 
2280.00, 
2281.00, 
2282.00, 
2283.00, 
2284.00, 
2285.00, 
2286.00, 
2287.00, 
2288.00, 
2289.00, 
2290.00, 
2291.00, 
2292.00, 
2293.00, 
2294.00, 
2295.00, 
2296.00, 
2297.00, 
2298.00, 
2299.00, 
2300.00, 
2301.00, 
2302.00, 
2303.00, 
2304.00, 
2305.00, 
2306.00, 
2307.00, 
2308.00, 
2309.00, 
2310.00, 
2311.00, 
2312.00, 
2313.00, 
2314.00, 
2315.00, 
2316.00, 
2317.00, 
2318.00, 
2319.00, 
2320.00, 
2321.00, 
2322.00, 
2323.00, 
2324.00, 
2325.00, 
2326.00, 
2327.00, 
2328.00, 
2329.00, 
2330.00, 
2331.00, 
2332.00, 
2333.00, 
2334.00, 
2335.00, 
2336.00, 
2337.00, 
2338.00, 
2339.00, 
2340.00, 
2341.00, 
2342.00, 
2343.00, 
2344.00, 
2345.00, 
2346.00, 
2347.00, 
2348.00, 
2349.00, 
2350.00, 
2351.00, 
2352.00, 
2353.00, 
2354.00, 
2355.00, 
2356.00, 
2357.00, 
2358.00, 
2359.00, 
2360.00, 
2361.00, 
2362.00, 
2363.00, 
2364.00, 
2365.00, 
2366.00, 
2367.00, 
2368.00, 
2369.00, 
2370.00, 
2371.00, 
2372.00, 
2373.00, 
2374.00, 
2375.00, 
2376.00, 
2377.00, 
2378.00, 
2379.00, 
2380.00, 
2381.00, 
2382.00, 
2383.00, 
2384.00, 
2385.00, 
2386.00, 
2387.00, 
2388.00, 
2389.00, 
2390.00, 
2391.00, 
2392.00, 
2393.00, 
2394.00, 
2395.00, 
2396.00, 
2397.00, 
2398.00, 
2399.00, 
2400.00, 
2401.00, 
2402.00, 
2403.00, 
2404.00, 
2405.00, 
2406.00, 
2407.00, 
2408.00, 
2409.00, 
2410.00, 
2411.00, 
2412.00, 
2413.00, 
2414.00, 
2415.00, 
2416.00, 
2417.00, 
2418.00, 
2419.00, 
2420.00, 
2421.00, 
2422.00, 
2423.00, 
2424.00, 
2425.00, 
2426.00, 
2427.00, 
2428.00, 
2429.00, 
2430.00, 
2431.00, 
2432.00, 
2433.00, 
2434.00, 
2435.00, 
2436.00, 
2437.00, 
2438.00, 
2439.00, 
2440.00, 
2441.00, 
2442.00, 
2443.00, 
2444.00, 
2445.00, 
2446.00, 
2447.00, 
2448.00, 
2449.00, 
2450.00, 
2451.00, 
2452.00, 
2453.00, 
2454.00, 
2455.00, 
2456.00, 
2457.00, 
2458.00, 
2459.00, 
2460.00, 
2461.00, 
2462.00, 
2463.00, 
2464.00, 
2465.00, 
2466.00, 
2467.00, 
2468.00, 
2469.00, 
2470.00, 
2471.00, 
2472.00, 
2473.00, 
2474.00, 
2475.00, 
2476.00, 
2477.00, 
2478.00, 
2479.00, 
2480.00, 
2481.00, 
2482.00, 
2483.00, 
2484.00, 
2485.00, 
2486.00, 
2487.00, 
2488.00, 
2489.00, 
2490.00, 
2491.00, 
2492.00, 
2493.00, 
2494.00, 
2495.00, 
2496.00, 
2497.00, 
2498.00, 
2499.00, 
2500.00, 
2501.00, 
2502.00, 
2503.00, 
2504.00, 
2505.00, 
2506.00, 
2507.00, 
2508.00, 
2509.00, 
2510.00, 
2511.00, 
2512.00, 
2513.00, 
2514.00, 
2515.00, 
2516.00, 
2517.00, 
2518.00, 
2519.00, 
2520.00, 
2521.00, 
2522.00, 
2523.00, 
2524.00, 
2525.00, 
2526.00, 
2527.00, 
2528.00, 
2529.00, 
2530.00, 
2531.00, 
2532.00, 
2533.00, 
2534.00, 
2535.00, 
2536.00, 
2537.00, 
2538.00, 
2539.00, 
2540.00, 
2541.00, 
2542.00, 
2543.00, 
2544.00, 
2545.00, 
2546.00, 
2547.00, 
2548.00, 
2549.00, 
2550.00, 
2551.00, 
2552.00, 
2553.00, 
2554.00, 
2555.00, 
2556.00, 
2557.00, 
2558.00, 
2559.00, 
2560.00, 
2561.00, 
2562.00, 
2563.00, 
2564.00, 
2565.00, 
2566.00, 
2567.00, 
2568.00, 
2569.00, 
2570.00, 
2571.00, 
2572.00, 
2573.00, 
2574.00, 
2575.00, 
2576.00, 
2577.00, 
2578.00, 
2579.00, 
2580.00, 
2581.00, 
2582.00, 
2583.00, 
2584.00, 
2585.00, 
2586.00, 
2587.00, 
2588.00, 
2589.00, 
2590.00, 
2591.00, 
2592.00, 
2593.00, 
2594.00, 
2595.00, 
2596.00, 
2597.00, 
2598.00, 
2599.00, 
2600.00, 
