"2cP2 - RawData"
"Wavelength nm.","T%"
200.00,0.002
201.00,0.003
202.00,0.002
203.00,0.002
204.00,0.001
205.00,0.004
206.00,0.001
207.00,0.001
208.00,0.004
209.00,-0.001
210.00,0.004
211.00,0.000
212.00,-0.000
213.00,0.003
214.00,0.002
215.00,-0.001
216.00,-0.000
217.00,-0.001
218.00,0.002
219.00,0.002
220.00,0.002
221.00,0.001
222.00,0.002
223.00,0.004
224.00,-0.002
225.00,0.002
226.00,0.002
227.00,-0.001
228.00,-0.001
229.00,0.000
230.00,0.000
231.00,0.003
232.00,0.001
233.00,0.001
234.00,-0.000
235.00,0.002
236.00,0.001
237.00,0.000
238.00,0.000
239.00,0.001
240.00,0.003
241.00,0.003
242.00,-0.000
243.00,0.001
244.00,-0.000
245.00,-0.000
246.00,0.000
247.00,-0.000
248.00,0.001
249.00,-0.001
250.00,0.000
251.00,0.001
252.00,0.000
253.00,0.002
254.00,-0.001
255.00,-0.002
256.00,0.001
257.00,0.000
258.00,-0.001
259.00,-0.000
260.00,0.000
261.00,0.000
262.00,0.000
263.00,0.001
264.00,0.001
265.00,0.001
266.00,0.002
267.00,0.001
268.00,-0.000
269.00,0.001
270.00,-0.001
271.00,-0.000
272.00,-0.001
273.00,0.001
274.00,-0.000
275.00,0.002
276.00,-0.001
277.00,0.001
278.00,-0.000
279.00,0.001
280.00,0.000
281.00,0.002
282.00,0.001
283.00,-0.000
284.00,-0.002
285.00,-0.001
286.00,0.001
287.00,0.002
288.00,-0.000
289.00,0.002
290.00,-0.001
291.00,-0.000
292.00,-0.001
293.00,0.000
294.00,0.001
295.00,-0.000
296.00,0.000
297.00,0.001
298.00,0.001
299.00,0.002
300.00,0.004
301.00,0.007
302.00,0.008
303.00,0.013
304.00,0.020
305.00,0.028
306.00,0.044
307.00,0.066
308.00,0.107
309.00,0.166
310.00,0.228
311.00,0.309
312.00,0.423
313.00,0.573
314.00,0.768
315.00,0.999
316.00,1.286
317.00,1.573
318.00,2.002
319.00,2.468
320.00,2.991
321.00,3.588
322.00,4.238
323.00,5.016
324.00,5.823
325.00,6.660
326.00,7.503
327.00,8.473
328.00,9.467
329.00,10.451
330.00,11.508
331.00,12.594
332.00,13.738
333.00,14.877
334.00,16.001
335.00,17.158
336.00,18.320
337.00,19.441
338.00,20.589
339.00,21.580
340.00,22.696
341.00,23.726
342.00,24.800
343.00,25.587
344.00,26.617
345.00,27.489
346.00,28.283
347.00,29.152
348.00,29.895
349.00,30.563
350.00,31.303
351.00,31.979
352.00,32.568
353.00,33.186
354.00,33.694
355.00,34.206
356.00,34.754
357.00,35.198
358.00,35.605
359.00,35.981
360.00,36.383
361.00,36.716
362.00,36.970
363.00,37.452
364.00,37.724
365.00,38.022
366.00,38.214
367.00,38.415
368.00,38.605
369.00,38.786
370.00,38.960
371.00,39.072
372.00,39.131
373.00,39.184
374.00,39.202
375.00,39.231
376.00,39.233
377.00,39.192
378.00,39.199
379.00,39.071
380.00,39.203
381.00,39.277
382.00,39.333
383.00,39.365
384.00,39.458
385.00,39.645
386.00,39.739
387.00,39.862
388.00,39.975
389.00,40.050
390.00,40.166
391.00,40.231
392.00,40.341
393.00,40.425
394.00,40.515
395.00,40.565
396.00,40.653
397.00,40.697
398.00,40.815
399.00,40.823
400.00,40.856
401.00,40.848
402.00,40.861
403.00,40.920
404.00,41.046
405.00,40.896
406.00,40.949
407.00,40.927
408.00,40.899
409.00,40.811
410.00,40.760
411.00,40.752
412.00,40.732
413.00,40.730
414.00,40.728
415.00,40.712
416.00,40.730
417.00,40.684
418.00,40.770
419.00,40.777
420.00,40.769
421.00,40.898
422.00,40.905
423.00,40.930
424.00,40.970
425.00,40.966
426.00,40.994
427.00,41.005
428.00,41.063
429.00,41.084
430.00,41.097
431.00,41.134
432.00,41.132
433.00,41.185
434.00,41.239
435.00,41.223
436.00,41.246
437.00,41.293
438.00,41.263
439.00,41.391
440.00,41.432
441.00,41.496
442.00,41.544
443.00,41.570
444.00,41.619
445.00,41.706
446.00,41.754
447.00,41.823
448.00,41.894
449.00,41.972
450.00,41.969
451.00,42.092
452.00,42.111
453.00,42.161
454.00,42.269
455.00,42.343
456.00,42.401
457.00,42.474
458.00,42.540
459.00,42.578
460.00,42.665
461.00,42.726
462.00,42.839
463.00,42.848
464.00,42.978
465.00,43.028
466.00,43.076
467.00,43.172
468.00,43.207
469.00,43.277
470.00,43.269
471.00,43.328
472.00,43.394
473.00,43.418
474.00,43.460
475.00,43.536
476.00,43.505
477.00,43.601
478.00,43.675
479.00,43.770
480.00,43.911
481.00,43.999
482.00,43.924
483.00,44.026
484.00,43.950
485.00,44.327
486.00,44.382
487.00,44.459
488.00,44.516
489.00,44.668
490.00,44.772
491.00,44.836
492.00,44.960
493.00,44.994
494.00,44.947
495.00,45.059
496.00,45.082
497.00,45.130
498.00,45.257
499.00,45.355
500.00,45.381
501.00,45.436
502.00,45.595
503.00,45.605
504.00,45.622
505.00,45.745
506.00,45.837
507.00,45.906
508.00,45.882
509.00,45.982
510.00,46.071
511.00,46.090
512.00,46.181
513.00,46.248
514.00,46.385
515.00,46.497
516.00,46.560
517.00,46.502
518.00,46.557
519.00,46.610
520.00,46.594
521.00,46.627
522.00,46.720
523.00,46.715
524.00,46.778
525.00,46.765
526.00,46.911
527.00,46.897
528.00,46.925
529.00,46.969
530.00,46.997
531.00,47.169
532.00,47.222
533.00,47.243
534.00,47.324
535.00,47.400
536.00,47.380
537.00,47.449
538.00,47.534
539.00,47.398
540.00,47.596
541.00,47.652
542.00,47.706
543.00,47.716
544.00,47.717
545.00,47.762
546.00,47.813
547.00,47.864
548.00,47.883
549.00,47.969
550.00,48.067
551.00,47.984
552.00,48.115
553.00,48.101
554.00,48.114
555.00,48.231
556.00,48.284
557.00,48.276
558.00,48.288
559.00,48.394
560.00,48.469
561.00,48.434
562.00,48.451
563.00,48.457
564.00,48.505
565.00,48.524
566.00,48.544
567.00,48.662
568.00,48.512
569.00,48.486
570.00,48.296
571.00,48.614
572.00,48.554
573.00,48.609
574.00,48.676
575.00,48.670
576.00,48.698
577.00,48.712
578.00,48.794
579.00,48.864
580.00,48.913
581.00,49.022
582.00,49.040
583.00,48.995
584.00,49.063
585.00,49.203
586.00,49.215
587.00,49.272
588.00,49.277
589.00,49.324
590.00,49.351
591.00,49.294
592.00,49.299
593.00,49.352
594.00,49.387
595.00,49.399
596.00,49.460
597.00,49.501
598.00,49.515
599.00,49.445
600.00,49.493
601.00,49.523
602.00,49.521
603.00,49.549
604.00,49.625
605.00,49.641
606.00,49.716
607.00,49.649
608.00,49.689
609.00,49.674
610.00,49.657
611.00,49.696
612.00,49.765
613.00,49.763
614.00,49.748
615.00,49.784
616.00,49.835
617.00,49.789
618.00,49.830
619.00,49.855
620.00,49.806
621.00,49.863
622.00,49.938
623.00,49.883
624.00,49.869
625.00,49.960
626.00,49.985
627.00,49.993
628.00,49.967
629.00,50.000
630.00,50.008
631.00,49.970
632.00,49.976
633.00,50.055
634.00,50.070
635.00,50.096
636.00,50.183
637.00,50.188
638.00,50.198
639.00,50.254
640.00,50.179
641.00,50.126
642.00,50.273
643.00,50.255
644.00,50.331
645.00,50.325
646.00,50.356
647.00,50.264
648.00,50.366
649.00,50.473
650.00,50.352
651.00,50.420
652.00,50.490
653.00,50.480
654.00,50.445
655.00,50.487
656.00,50.495
657.00,50.623
658.00,50.604
659.00,50.701
660.00,50.587
661.00,50.588
662.00,50.738
663.00,50.610
664.00,50.825
665.00,50.675
666.00,50.642
667.00,50.729
668.00,50.727
669.00,50.698
670.00,50.750
671.00,50.835
672.00,50.684
673.00,50.748
674.00,50.784
675.00,50.919
676.00,50.922
677.00,50.912
678.00,50.968
679.00,50.892
680.00,50.835
681.00,50.939
682.00,51.018
683.00,50.955
684.00,51.041
685.00,51.139
686.00,51.040
687.00,50.989
688.00,50.992
689.00,50.922
690.00,51.051
691.00,51.023
692.00,50.993
693.00,50.926
694.00,50.855
695.00,50.890
696.00,50.725
697.00,50.911
698.00,51.069
699.00,51.327
700.00,51.309
701.00,51.220
702.00,51.216
703.00,51.215
704.00,51.295
705.00,51.140
706.00,51.242
707.00,51.116
708.00,51.068
709.00,51.314
710.00,51.258
711.00,51.107
712.00,51.093
713.00,51.187
714.00,51.069
715.00,51.214
716.00,51.182
717.00,51.137
718.00,51.169
719.00,51.173
720.00,51.185
721.00,55.492
722.00,55.451
723.00,55.424
724.00,55.344
725.00,55.182
726.00,55.262
727.00,55.159
728.00,55.234
729.00,55.101
730.00,55.076
731.00,55.053
732.00,54.999
733.00,54.937
734.00,54.930
735.00,54.956
736.00,54.884
737.00,54.897
738.00,54.844
739.00,54.863
740.00,54.771
741.00,54.725
742.00,54.713
743.00,54.701
744.00,54.631
745.00,54.579
746.00,54.523
747.00,54.462
748.00,54.361
749.00,54.358
750.00,54.299
751.00,54.224
752.00,54.158
753.00,54.152
754.00,54.174
755.00,54.047
756.00,54.050
757.00,54.049
758.00,54.013
759.00,53.914
760.00,53.976
761.00,53.937
762.00,53.876
763.00,53.853
764.00,53.810
765.00,53.820
766.00,53.809
767.00,53.763
768.00,53.803
769.00,53.638
770.00,53.763
771.00,53.679
772.00,53.753
773.00,53.567
774.00,53.615
775.00,53.645
776.00,53.568
777.00,53.450
778.00,53.392
779.00,53.433
780.00,53.404
781.00,53.440
782.00,53.332
783.00,53.344
784.00,53.290
785.00,53.307
786.00,53.244
787.00,53.167
788.00,53.105
789.00,53.145
790.00,53.106
791.00,52.993
792.00,53.037
793.00,52.983
794.00,52.928
795.00,52.928
796.00,52.899
797.00,52.779
798.00,52.841
799.00,52.791
800.00,52.768
801.00,52.746
802.00,52.615
803.00,52.647
804.00,52.553
805.00,52.626
806.00,52.506
807.00,52.636
808.00,52.453
809.00,52.430
810.00,52.417
811.00,52.408
812.00,52.355
813.00,52.346
814.00,52.281
815.00,52.309
816.00,52.295
817.00,52.152
818.00,52.219
819.00,52.061
820.00,52.127
821.00,52.101
822.00,52.003
823.00,52.114
824.00,52.058
825.00,51.923
826.00,52.048
827.00,51.976
828.00,51.912
829.00,51.933
830.00,51.904
831.00,54.433
832.00,54.404
833.00,54.368
834.00,54.348
835.00,54.293
836.00,54.284
837.00,54.241
838.00,54.205
839.00,54.204
840.00,54.186
841.00,54.169
842.00,54.102
843.00,54.078
844.00,54.096
845.00,54.000
846.00,53.983
847.00,54.002
848.00,53.935
849.00,53.847
850.00,53.863
851.00,53.774
852.00,53.762
853.00,53.690
854.00,53.695
855.00,53.625
856.00,53.617
857.00,53.582
858.00,53.573
859.00,53.488
860.00,53.552
861.00,53.464
862.00,53.426
863.00,53.435
864.00,53.378
865.00,53.393
866.00,53.436
867.00,53.397
868.00,53.309
869.00,53.330
870.00,53.316
871.00,53.295
872.00,53.276
873.00,53.271
874.00,53.226
875.00,53.186
876.00,53.232
877.00,53.168
878.00,53.154
879.00,53.107
880.00,53.157
881.00,52.998
882.00,53.082
883.00,53.080
884.00,53.010
885.00,52.991
886.00,52.976
887.00,52.944
888.00,52.931
889.00,52.888
890.00,52.869
891.00,52.823
892.00,52.814
893.00,52.779
894.00,52.781
895.00,52.737
896.00,52.726
897.00,52.694
898.00,52.685
899.00,52.651
900.00,52.662
901.00,52.648
902.00,52.665
903.00,52.603
904.00,52.572
905.00,52.572
906.00,52.542
907.00,52.518
908.00,52.458
909.00,52.452
910.00,52.423
911.00,52.423
912.00,52.421
913.00,52.383
914.00,52.323
915.00,52.339
916.00,52.306
917.00,52.287
918.00,52.255
919.00,52.216
920.00,52.203
921.00,52.187
922.00,52.173
923.00,52.160
924.00,52.116
925.00,52.118
926.00,52.080
927.00,52.076
928.00,52.074
929.00,52.038
930.00,51.947
931.00,52.039
932.00,51.949
933.00,51.958
934.00,51.916
935.00,51.901
936.00,51.893
937.00,51.849
938.00,51.856
939.00,51.819
940.00,51.791
941.00,51.782
942.00,51.759
943.00,51.751
944.00,51.719
945.00,51.708
946.00,51.687
947.00,51.657
948.00,51.627
949.00,51.609
950.00,51.591
951.00,51.553
952.00,51.518
953.00,51.500
954.00,51.491
955.00,51.446
956.00,51.444
957.00,51.394
958.00,51.417
959.00,51.348
960.00,51.331
961.00,51.323
962.00,51.331
963.00,51.269
964.00,51.260
965.00,51.253
966.00,51.223
967.00,51.243
968.00,51.215
969.00,51.250
970.00,51.213
971.00,51.221
972.00,51.198
973.00,51.214
974.00,51.240
975.00,51.196
976.00,51.227
977.00,51.211
978.00,51.223
979.00,51.183
980.00,51.233
981.00,51.217
982.00,51.200
983.00,51.202
984.00,51.187
985.00,51.190
986.00,51.155
987.00,51.180
988.00,51.146
989.00,51.119
990.00,51.121
991.00,51.122
992.00,51.139
993.00,51.066
994.00,51.049
995.00,51.035
996.00,51.034
997.00,51.035
998.00,50.995
999.00,51.023
1000.00,50.984
1001.00,50.985
1002.00,50.973
1003.00,50.949
1004.00,50.943
1005.00,50.904
1006.00,50.927
1007.00,50.931
1008.00,50.888
1009.00,50.858
1010.00,50.863
1011.00,50.841
1012.00,50.814
1013.00,50.827
1014.00,50.796
1015.00,50.807
1016.00,50.752
1017.00,50.755
1018.00,50.742
1019.00,50.710
1020.00,50.701
1021.00,50.694
1022.00,50.691
1023.00,50.637
1024.00,50.641
1025.00,50.620
1026.00,50.613
1027.00,50.591
1028.00,50.584
1029.00,50.578
1030.00,50.545
1031.00,50.539
1032.00,50.508
1033.00,50.513
1034.00,50.475
1035.00,50.455
1036.00,50.427
1037.00,50.403
1038.00,50.383
1039.00,50.350
1040.00,50.355
1041.00,50.303
1042.00,50.295
1043.00,50.284
1044.00,50.303
1045.00,50.286
1046.00,50.289
1047.00,50.286
1048.00,50.300
1049.00,50.311
1050.00,50.304
1051.00,50.342
1052.00,50.332
1053.00,50.339
1054.00,50.347
1055.00,50.350
1056.00,50.356
1057.00,50.367
1058.00,50.360
1059.00,50.362
1060.00,50.365
1061.00,50.360
1062.00,50.343
1063.00,50.357
1064.00,50.337
1065.00,50.343
1066.00,50.327
1067.00,50.306
1068.00,50.325
1069.00,50.275
1070.00,50.256
1071.00,50.240
1072.00,50.261
1073.00,50.245
1074.00,50.238
1075.00,50.219
1076.00,50.219
1077.00,50.208
1078.00,50.199
1079.00,50.179
1080.00,50.176
1081.00,50.158
1082.00,50.167
1083.00,50.176
1084.00,50.140
1085.00,50.131
1086.00,50.129
1087.00,50.132
1088.00,50.088
1089.00,50.088
1090.00,50.091
1091.00,50.074
1092.00,50.060
1093.00,50.047
1094.00,50.042
1095.00,50.026
1096.00,50.027
1097.00,50.008
1098.00,50.016
1099.00,50.001
1100.00,49.983
1101.00,49.975
1102.00,49.963
1103.00,49.967
1104.00,49.956
1105.00,49.937
1106.00,49.945
1107.00,49.925
1108.00,49.922
1109.00,49.907
1110.00,49.906
1111.00,49.895
1112.00,49.888
1113.00,49.869
1114.00,49.859
1115.00,49.862
1116.00,49.842
1117.00,49.832
1118.00,49.836
1119.00,49.826
1120.00,49.830
1121.00,49.820
1122.00,49.809
1123.00,49.803
1124.00,49.802
1125.00,49.788
1126.00,49.787
1127.00,49.778
1128.00,49.776
1129.00,49.794
1130.00,49.737
1131.00,49.731
1132.00,49.718
1133.00,49.724
1134.00,49.730
1135.00,49.713
1136.00,49.719
1137.00,49.709
1138.00,49.702
1139.00,49.700
1140.00,49.681
1141.00,49.674
1142.00,49.681
1143.00,49.693
1144.00,49.657
1145.00,49.664
1146.00,49.656
1147.00,49.650
1148.00,49.646
1149.00,49.653
1150.00,49.658
1151.00,49.657
1152.00,49.650
1153.00,49.655
1154.00,49.640
1155.00,49.635
1156.00,49.627
1157.00,49.635
1158.00,49.635
1159.00,49.621
1160.00,49.600
1161.00,49.608
1162.00,49.595
1163.00,49.592
1164.00,49.597
1165.00,49.585
1166.00,49.595
1167.00,49.591
1168.00,49.594
1169.00,49.593
1170.00,49.588
1171.00,49.568
1172.00,49.585
1173.00,49.577
1174.00,49.575
1175.00,49.571
1176.00,49.570
1177.00,49.562
1178.00,49.566
1179.00,49.573
1180.00,49.559
1181.00,49.573
1182.00,49.560
1183.00,49.557
1184.00,49.542
1185.00,49.568
1186.00,49.552
1187.00,49.562
1188.00,49.542
1189.00,49.543
1190.00,49.549
1191.00,49.534
1192.00,49.544
1193.00,49.525
1194.00,49.540
1195.00,49.517
1196.00,49.537
1197.00,49.542
1198.00,49.531
1199.00,49.527
1200.00,49.533
1201.00,49.528
1202.00,49.528
1203.00,49.517
1204.00,49.503
1205.00,49.534
1206.00,49.517
1207.00,49.514
1208.00,49.513
1209.00,49.512
1210.00,49.514
1211.00,49.514
1212.00,49.519
1213.00,49.490
1214.00,49.524
1215.00,49.500
1216.00,49.512
1217.00,49.518
1218.00,49.506
1219.00,49.528
1220.00,49.511
1221.00,49.508
1222.00,49.506
1223.00,49.518
1224.00,49.506
1225.00,49.498
1226.00,49.495
1227.00,49.491
1228.00,49.500
1229.00,49.506
1230.00,49.551
1231.00,49.535
1232.00,49.541
1233.00,49.540
1234.00,49.543
1235.00,49.544
1236.00,49.542
1237.00,49.533
1238.00,49.543
1239.00,49.554
1240.00,49.539
1241.00,49.552
1242.00,49.542
1243.00,49.561
1244.00,49.553
1245.00,49.569
1246.00,49.580
1247.00,49.579
1248.00,49.564
1249.00,49.578
1250.00,49.586
1251.00,49.581
1252.00,49.590
1253.00,49.568
1254.00,49.596
1255.00,49.594
1256.00,49.563
1257.00,49.556
1258.00,49.597
1259.00,49.585
1260.00,49.621
1261.00,49.614
1262.00,49.615
1263.00,49.627
1264.00,49.625
1265.00,49.625
1266.00,49.647
1267.00,49.647
1268.00,49.646
1269.00,49.624
1270.00,49.633
1271.00,49.635
1272.00,49.641
1273.00,49.650
1274.00,49.659
1275.00,49.660
1276.00,49.662
1277.00,49.666
1278.00,49.676
1279.00,49.675
1280.00,49.684
1281.00,49.688
1282.00,49.700
1283.00,49.681
1284.00,49.674
1285.00,49.665
1286.00,49.684
1287.00,49.681
1288.00,49.692
1289.00,49.691
1290.00,49.704
1291.00,49.715
1292.00,49.719
1293.00,49.713
1294.00,49.730
1295.00,49.727
1296.00,49.746
1297.00,49.745
1298.00,49.763
1299.00,49.757
1300.00,49.767
1301.00,49.764
1302.00,49.770
1303.00,49.784
1304.00,49.762
1305.00,49.786
1306.00,49.788
1307.00,49.811
1308.00,49.798
1309.00,49.805
1310.00,49.824
1311.00,49.799
1312.00,49.801
1313.00,49.796
1314.00,49.811
1315.00,49.816
1316.00,49.826
1317.00,49.849
1318.00,49.848
1319.00,49.858
1320.00,49.880
1321.00,50.015
1322.00,50.040
1323.00,50.008
1324.00,50.021
1325.00,49.989
1326.00,50.022
1327.00,50.012
1328.00,50.013
1329.00,50.010
1330.00,50.000
1331.00,50.000
1332.00,50.007
1333.00,50.007
1334.00,50.024
1335.00,50.044
1336.00,50.067
1337.00,50.091
1338.00,50.148
1339.00,50.199
1340.00,50.286
1341.00,50.356
1342.00,50.400
1343.00,50.458
1344.00,50.489
1345.00,50.560
1346.00,50.599
1347.00,50.618
1348.00,50.641
1349.00,50.658
1350.00,50.658
1351.00,50.679
1352.00,50.671
1353.00,50.733
1354.00,50.699
1355.00,50.596
1356.00,50.726
1357.00,50.737
1358.00,50.753
1359.00,50.758
1360.00,50.765
1361.00,50.710
1362.00,50.692
1363.00,50.792
1364.00,50.750
1365.00,50.708
1366.00,50.746
1367.00,50.675
1368.00,50.620
1369.00,50.543
1370.00,50.688
1371.00,50.708
1372.00,50.724
1373.00,50.716
1374.00,50.720
1375.00,50.712
1376.00,50.696
1377.00,50.681
1378.00,50.757
1379.00,50.727
1380.00,50.700
1381.00,50.754
1382.00,50.666
1383.00,50.726
1384.00,50.677
1385.00,50.648
1386.00,50.690
1387.00,50.705
1388.00,50.660
1389.00,50.717
1390.00,50.735
1391.00,50.673
1392.00,50.686
1393.00,50.694
1394.00,50.683
1395.00,50.626
1396.00,50.619
1397.00,50.686
1398.00,50.700
1399.00,50.658
1400.00,50.555
1401.00,50.682
1402.00,50.393
1403.00,50.690
1404.00,50.682
1405.00,50.724
1406.00,50.707
1407.00,50.750
1408.00,50.749
1409.00,50.720
1410.00,50.743
1411.00,50.730
1412.00,50.803
1413.00,50.744
1414.00,50.751
1415.00,50.778
1416.00,50.858
1417.00,50.833
1418.00,50.800
1419.00,50.777
1420.00,50.831
1421.00,50.869
1422.00,50.865
1423.00,50.851
1424.00,50.872
1425.00,50.883
1426.00,50.906
1427.00,50.919
1428.00,50.912
1429.00,50.943
1430.00,50.937
1431.00,50.957
1432.00,50.980
1433.00,50.988
1434.00,50.992
1435.00,51.035
1436.00,51.028
1437.00,51.030
1438.00,51.042
1439.00,51.088
1440.00,51.089
1441.00,51.102
1442.00,51.106
1443.00,51.133
1444.00,51.177
1445.00,51.136
1446.00,51.148
1447.00,51.187
1448.00,51.211
1449.00,51.218
1450.00,51.213
1451.00,51.228
1452.00,51.235
1453.00,51.256
1454.00,51.271
1455.00,51.289
1456.00,51.300
1457.00,51.315
1458.00,51.329
1459.00,51.348
1460.00,51.349
1461.00,51.362
1462.00,51.422
1463.00,51.398
1464.00,51.430
1465.00,51.433
1466.00,51.433
1467.00,51.463
1468.00,51.503
1469.00,51.504
1470.00,51.512
1471.00,51.530
1472.00,51.549
1473.00,51.543
1474.00,51.572
1475.00,51.577
1476.00,51.590
1477.00,51.575
1478.00,51.610
1479.00,51.619
1480.00,51.623
1481.00,51.627
1482.00,51.647
1483.00,51.661
1484.00,51.655
1485.00,51.691
1486.00,51.690
1487.00,51.712
1488.00,51.735
1489.00,51.716
1490.00,51.729
1491.00,51.734
1492.00,51.750
1493.00,51.757
1494.00,51.772
1495.00,51.779
1496.00,51.788
1497.00,51.797
1498.00,51.808
1499.00,51.831
1500.00,51.854
1501.00, 
1502.00, 
1503.00, 
1504.00, 
1505.00, 
1506.00, 
1507.00, 
1508.00, 
1509.00, 
1510.00, 
1511.00, 
1512.00, 
1513.00, 
1514.00, 
1515.00, 
1516.00, 
1517.00, 
1518.00, 
1519.00, 
1520.00, 
1521.00, 
1522.00, 
1523.00, 
1524.00, 
1525.00, 
1526.00, 
1527.00, 
1528.00, 
1529.00, 
1530.00, 
1531.00, 
1532.00, 
1533.00, 
1534.00, 
1535.00, 
1536.00, 
1537.00, 
1538.00, 
1539.00, 
1540.00, 
1541.00, 
1542.00, 
1543.00, 
1544.00, 
1545.00, 
1546.00, 
1547.00, 
1548.00, 
1549.00, 
1550.00, 
1551.00, 
1552.00, 
1553.00, 
1554.00, 
1555.00, 
1556.00, 
1557.00, 
1558.00, 
1559.00, 
1560.00, 
1561.00, 
1562.00, 
1563.00, 
1564.00, 
1565.00, 
1566.00, 
1567.00, 
1568.00, 
1569.00, 
1570.00, 
1571.00, 
1572.00, 
1573.00, 
1574.00, 
1575.00, 
1576.00, 
1577.00, 
1578.00, 
1579.00, 
1580.00, 
1581.00, 
1582.00, 
1583.00, 
1584.00, 
1585.00, 
1586.00, 
1587.00, 
1588.00, 
1589.00, 
1590.00, 
1591.00, 
1592.00, 
1593.00, 
1594.00, 
1595.00, 
1596.00, 
1597.00, 
1598.00, 
1599.00, 
1600.00, 
1601.00, 
1602.00, 
1603.00, 
1604.00, 
1605.00, 
1606.00, 
1607.00, 
1608.00, 
1609.00, 
1610.00, 
1611.00, 
1612.00, 
1613.00, 
1614.00, 
1615.00, 
1616.00, 
1617.00, 
1618.00, 
1619.00, 
1620.00, 
1621.00, 
1622.00, 
1623.00, 
1624.00, 
1625.00, 
1626.00, 
1627.00, 
1628.00, 
1629.00, 
1630.00, 
1631.00, 
1632.00, 
1633.00, 
1634.00, 
1635.00, 
1636.00, 
1637.00, 
1638.00, 
1639.00, 
1640.00, 
1641.00, 
1642.00, 
1643.00, 
1644.00, 
1645.00, 
1646.00, 
1647.00, 
1648.00, 
1649.00, 
1650.00, 
1651.00, 
1652.00, 
1653.00, 
1654.00, 
1655.00, 
1656.00, 
1657.00, 
1658.00, 
1659.00, 
1660.00, 
1661.00, 
1662.00, 
1663.00, 
1664.00, 
1665.00, 
1666.00, 
1667.00, 
1668.00, 
1669.00, 
1670.00, 
1671.00, 
1672.00, 
1673.00, 
1674.00, 
1675.00, 
1676.00, 
1677.00, 
1678.00, 
1679.00, 
1680.00, 
1681.00, 
1682.00, 
1683.00, 
1684.00, 
1685.00, 
1686.00, 
1687.00, 
1688.00, 
1689.00, 
1690.00, 
1691.00, 
1692.00, 
1693.00, 
1694.00, 
1695.00, 
1696.00, 
1697.00, 
1698.00, 
1699.00, 
1700.00, 
1701.00, 
1702.00, 
1703.00, 
1704.00, 
1705.00, 
1706.00, 
1707.00, 
1708.00, 
1709.00, 
1710.00, 
1711.00, 
1712.00, 
1713.00, 
1714.00, 
1715.00, 
1716.00, 
1717.00, 
1718.00, 
1719.00, 
1720.00, 
1721.00, 
1722.00, 
1723.00, 
1724.00, 
1725.00, 
1726.00, 
1727.00, 
1728.00, 
1729.00, 
1730.00, 
1731.00, 
1732.00, 
1733.00, 
1734.00, 
1735.00, 
1736.00, 
1737.00, 
1738.00, 
1739.00, 
1740.00, 
1741.00, 
1742.00, 
1743.00, 
1744.00, 
1745.00, 
1746.00, 
1747.00, 
1748.00, 
1749.00, 
1750.00, 
1751.00, 
1752.00, 
1753.00, 
1754.00, 
1755.00, 
1756.00, 
1757.00, 
1758.00, 
1759.00, 
1760.00, 
1761.00, 
1762.00, 
1763.00, 
1764.00, 
1765.00, 
1766.00, 
1767.00, 
1768.00, 
1769.00, 
1770.00, 
1771.00, 
1772.00, 
1773.00, 
1774.00, 
1775.00, 
1776.00, 
1777.00, 
1778.00, 
1779.00, 
1780.00, 
1781.00, 
1782.00, 
1783.00, 
1784.00, 
1785.00, 
1786.00, 
1787.00, 
1788.00, 
1789.00, 
1790.00, 
1791.00, 
1792.00, 
1793.00, 
1794.00, 
1795.00, 
1796.00, 
1797.00, 
1798.00, 
1799.00, 
1800.00, 
1801.00, 
1802.00, 
1803.00, 
1804.00, 
1805.00, 
1806.00, 
1807.00, 
1808.00, 
1809.00, 
1810.00, 
1811.00, 
1812.00, 
1813.00, 
1814.00, 
1815.00, 
1816.00, 
1817.00, 
1818.00, 
1819.00, 
1820.00, 
1821.00, 
1822.00, 
1823.00, 
1824.00, 
1825.00, 
1826.00, 
1827.00, 
1828.00, 
1829.00, 
1830.00, 
1831.00, 
1832.00, 
1833.00, 
1834.00, 
1835.00, 
1836.00, 
1837.00, 
1838.00, 
1839.00, 
1840.00, 
1841.00, 
1842.00, 
1843.00, 
1844.00, 
1845.00, 
1846.00, 
1847.00, 
1848.00, 
1849.00, 
1850.00, 
1851.00, 
1852.00, 
1853.00, 
1854.00, 
1855.00, 
1856.00, 
1857.00, 
1858.00, 
1859.00, 
1860.00, 
1861.00, 
1862.00, 
1863.00, 
1864.00, 
1865.00, 
1866.00, 
1867.00, 
1868.00, 
1869.00, 
1870.00, 
1871.00, 
1872.00, 
1873.00, 
1874.00, 
1875.00, 
1876.00, 
1877.00, 
1878.00, 
1879.00, 
1880.00, 
1881.00, 
1882.00, 
1883.00, 
1884.00, 
1885.00, 
1886.00, 
1887.00, 
1888.00, 
1889.00, 
1890.00, 
1891.00, 
1892.00, 
1893.00, 
1894.00, 
1895.00, 
1896.00, 
1897.00, 
1898.00, 
1899.00, 
1900.00, 
1901.00, 
1902.00, 
1903.00, 
1904.00, 
1905.00, 
1906.00, 
1907.00, 
1908.00, 
1909.00, 
1910.00, 
1911.00, 
1912.00, 
1913.00, 
1914.00, 
1915.00, 
1916.00, 
1917.00, 
1918.00, 
1919.00, 
1920.00, 
1921.00, 
1922.00, 
1923.00, 
1924.00, 
1925.00, 
1926.00, 
1927.00, 
1928.00, 
1929.00, 
1930.00, 
1931.00, 
1932.00, 
1933.00, 
1934.00, 
1935.00, 
1936.00, 
1937.00, 
1938.00, 
1939.00, 
1940.00, 
1941.00, 
1942.00, 
1943.00, 
1944.00, 
1945.00, 
1946.00, 
1947.00, 
1948.00, 
1949.00, 
1950.00, 
1951.00, 
1952.00, 
1953.00, 
1954.00, 
1955.00, 
1956.00, 
1957.00, 
1958.00, 
1959.00, 
1960.00, 
1961.00, 
1962.00, 
1963.00, 
1964.00, 
1965.00, 
1966.00, 
1967.00, 
1968.00, 
1969.00, 
1970.00, 
1971.00, 
1972.00, 
1973.00, 
1974.00, 
1975.00, 
1976.00, 
1977.00, 
1978.00, 
1979.00, 
1980.00, 
1981.00, 
1982.00, 
1983.00, 
1984.00, 
1985.00, 
1986.00, 
1987.00, 
1988.00, 
1989.00, 
1990.00, 
1991.00, 
1992.00, 
1993.00, 
1994.00, 
1995.00, 
1996.00, 
1997.00, 
1998.00, 
1999.00, 
2000.00, 
2001.00, 
2002.00, 
2003.00, 
2004.00, 
2005.00, 
2006.00, 
2007.00, 
2008.00, 
2009.00, 
2010.00, 
2011.00, 
2012.00, 
2013.00, 
2014.00, 
2015.00, 
2016.00, 
2017.00, 
2018.00, 
2019.00, 
2020.00, 
2021.00, 
2022.00, 
2023.00, 
2024.00, 
2025.00, 
2026.00, 
2027.00, 
2028.00, 
2029.00, 
2030.00, 
2031.00, 
2032.00, 
2033.00, 
2034.00, 
2035.00, 
2036.00, 
2037.00, 
2038.00, 
2039.00, 
2040.00, 
2041.00, 
2042.00, 
2043.00, 
2044.00, 
2045.00, 
2046.00, 
2047.00, 
2048.00, 
2049.00, 
2050.00, 
2051.00, 
2052.00, 
2053.00, 
2054.00, 
2055.00, 
2056.00, 
2057.00, 
2058.00, 
2059.00, 
2060.00, 
2061.00, 
2062.00, 
2063.00, 
2064.00, 
2065.00, 
2066.00, 
2067.00, 
2068.00, 
2069.00, 
2070.00, 
2071.00, 
2072.00, 
2073.00, 
2074.00, 
2075.00, 
2076.00, 
2077.00, 
2078.00, 
2079.00, 
2080.00, 
2081.00, 
2082.00, 
2083.00, 
2084.00, 
2085.00, 
2086.00, 
2087.00, 
2088.00, 
2089.00, 
2090.00, 
2091.00, 
2092.00, 
2093.00, 
2094.00, 
2095.00, 
2096.00, 
2097.00, 
2098.00, 
2099.00, 
2100.00, 
2101.00, 
2102.00, 
2103.00, 
2104.00, 
2105.00, 
2106.00, 
2107.00, 
2108.00, 
2109.00, 
2110.00, 
2111.00, 
2112.00, 
2113.00, 
2114.00, 
2115.00, 
2116.00, 
2117.00, 
2118.00, 
2119.00, 
2120.00, 
2121.00, 
2122.00, 
2123.00, 
2124.00, 
2125.00, 
2126.00, 
2127.00, 
2128.00, 
2129.00, 
2130.00, 
2131.00, 
2132.00, 
2133.00, 
2134.00, 
2135.00, 
2136.00, 
2137.00, 
2138.00, 
2139.00, 
2140.00, 
2141.00, 
2142.00, 
2143.00, 
2144.00, 
2145.00, 
2146.00, 
2147.00, 
2148.00, 
2149.00, 
2150.00, 
2151.00, 
2152.00, 
2153.00, 
2154.00, 
2155.00, 
2156.00, 
2157.00, 
2158.00, 
2159.00, 
2160.00, 
2161.00, 
2162.00, 
2163.00, 
2164.00, 
2165.00, 
2166.00, 
2167.00, 
2168.00, 
2169.00, 
2170.00, 
2171.00, 
2172.00, 
2173.00, 
2174.00, 
2175.00, 
2176.00, 
2177.00, 
2178.00, 
2179.00, 
2180.00, 
2181.00, 
2182.00, 
2183.00, 
2184.00, 
2185.00, 
2186.00, 
2187.00, 
2188.00, 
2189.00, 
2190.00, 
2191.00, 
2192.00, 
2193.00, 
2194.00, 
2195.00, 
2196.00, 
2197.00, 
2198.00, 
2199.00, 
2200.00, 
2201.00, 
2202.00, 
2203.00, 
2204.00, 
2205.00, 
2206.00, 
2207.00, 
2208.00, 
2209.00, 
2210.00, 
2211.00, 
2212.00, 
2213.00, 
2214.00, 
2215.00, 
2216.00, 
2217.00, 
2218.00, 
2219.00, 
2220.00, 
2221.00, 
2222.00, 
2223.00, 
2224.00, 
2225.00, 
2226.00, 
2227.00, 
2228.00, 
2229.00, 
2230.00, 
2231.00, 
2232.00, 
2233.00, 
2234.00, 
2235.00, 
2236.00, 
2237.00, 
2238.00, 
2239.00, 
2240.00, 
2241.00, 
2242.00, 
2243.00, 
2244.00, 
2245.00, 
2246.00, 
2247.00, 
2248.00, 
2249.00, 
2250.00, 
2251.00, 
2252.00, 
2253.00, 
2254.00, 
2255.00, 
2256.00, 
2257.00, 
2258.00, 
2259.00, 
2260.00, 
2261.00, 
2262.00, 
2263.00, 
2264.00, 
2265.00, 
2266.00, 
2267.00, 
2268.00, 
2269.00, 
2270.00, 
2271.00, 
2272.00, 
2273.00, 
2274.00, 
2275.00, 
2276.00, 
2277.00, 
2278.00, 
2279.00, 
2280.00, 
2281.00, 
2282.00, 
2283.00, 
2284.00, 
2285.00, 
2286.00, 
2287.00, 
2288.00, 
2289.00, 
2290.00, 
2291.00, 
2292.00, 
2293.00, 
2294.00, 
2295.00, 
2296.00, 
2297.00, 
2298.00, 
2299.00, 
2300.00, 
2301.00, 
2302.00, 
2303.00, 
2304.00, 
2305.00, 
2306.00, 
2307.00, 
2308.00, 
2309.00, 
2310.00, 
2311.00, 
2312.00, 
2313.00, 
2314.00, 
2315.00, 
2316.00, 
2317.00, 
2318.00, 
2319.00, 
2320.00, 
2321.00, 
2322.00, 
2323.00, 
2324.00, 
2325.00, 
2326.00, 
2327.00, 
2328.00, 
2329.00, 
2330.00, 
2331.00, 
2332.00, 
2333.00, 
2334.00, 
2335.00, 
2336.00, 
2337.00, 
2338.00, 
2339.00, 
2340.00, 
2341.00, 
2342.00, 
2343.00, 
2344.00, 
2345.00, 
2346.00, 
2347.00, 
2348.00, 
2349.00, 
2350.00, 
2351.00, 
2352.00, 
2353.00, 
2354.00, 
2355.00, 
2356.00, 
2357.00, 
2358.00, 
2359.00, 
2360.00, 
2361.00, 
2362.00, 
2363.00, 
2364.00, 
2365.00, 
2366.00, 
2367.00, 
2368.00, 
2369.00, 
2370.00, 
2371.00, 
2372.00, 
2373.00, 
2374.00, 
2375.00, 
2376.00, 
2377.00, 
2378.00, 
2379.00, 
2380.00, 
2381.00, 
2382.00, 
2383.00, 
2384.00, 
2385.00, 
2386.00, 
2387.00, 
2388.00, 
2389.00, 
2390.00, 
2391.00, 
2392.00, 
2393.00, 
2394.00, 
2395.00, 
2396.00, 
2397.00, 
2398.00, 
2399.00, 
2400.00, 
2401.00, 
2402.00, 
2403.00, 
2404.00, 
2405.00, 
2406.00, 
2407.00, 
2408.00, 
2409.00, 
2410.00, 
2411.00, 
2412.00, 
2413.00, 
2414.00, 
2415.00, 
2416.00, 
2417.00, 
2418.00, 
2419.00, 
2420.00, 
2421.00, 
2422.00, 
2423.00, 
2424.00, 
2425.00, 
2426.00, 
2427.00, 
2428.00, 
2429.00, 
2430.00, 
2431.00, 
2432.00, 
2433.00, 
2434.00, 
2435.00, 
2436.00, 
2437.00, 
2438.00, 
2439.00, 
2440.00, 
2441.00, 
2442.00, 
2443.00, 
2444.00, 
2445.00, 
2446.00, 
2447.00, 
2448.00, 
2449.00, 
2450.00, 
2451.00, 
2452.00, 
2453.00, 
2454.00, 
2455.00, 
2456.00, 
2457.00, 
2458.00, 
2459.00, 
2460.00, 
2461.00, 
2462.00, 
2463.00, 
2464.00, 
2465.00, 
2466.00, 
2467.00, 
2468.00, 
2469.00, 
2470.00, 
2471.00, 
2472.00, 
2473.00, 
2474.00, 
2475.00, 
2476.00, 
2477.00, 
2478.00, 
2479.00, 
2480.00, 
2481.00, 
2482.00, 
2483.00, 
2484.00, 
2485.00, 
2486.00, 
2487.00, 
2488.00, 
2489.00, 
2490.00, 
2491.00, 
2492.00, 
2493.00, 
2494.00, 
2495.00, 
2496.00, 
2497.00, 
2498.00, 
2499.00, 
2500.00, 
2501.00, 
2502.00, 
2503.00, 
2504.00, 
2505.00, 
2506.00, 
2507.00, 
2508.00, 
2509.00, 
2510.00, 
2511.00, 
2512.00, 
2513.00, 
2514.00, 
2515.00, 
2516.00, 
2517.00, 
2518.00, 
2519.00, 
2520.00, 
2521.00, 
2522.00, 
2523.00, 
2524.00, 
2525.00, 
2526.00, 
2527.00, 
2528.00, 
2529.00, 
2530.00, 
2531.00, 
2532.00, 
2533.00, 
2534.00, 
2535.00, 
2536.00, 
2537.00, 
2538.00, 
2539.00, 
2540.00, 
2541.00, 
2542.00, 
2543.00, 
2544.00, 
2545.00, 
2546.00, 
2547.00, 
2548.00, 
2549.00, 
2550.00, 
2551.00, 
2552.00, 
2553.00, 
2554.00, 
2555.00, 
2556.00, 
2557.00, 
2558.00, 
2559.00, 
2560.00, 
2561.00, 
2562.00, 
2563.00, 
2564.00, 
2565.00, 
2566.00, 
2567.00, 
2568.00, 
2569.00, 
2570.00, 
2571.00, 
2572.00, 
2573.00, 
2574.00, 
2575.00, 
2576.00, 
2577.00, 
2578.00, 
2579.00, 
2580.00, 
2581.00, 
2582.00, 
2583.00, 
2584.00, 
2585.00, 
2586.00, 
2587.00, 
2588.00, 
2589.00, 
2590.00, 
2591.00, 
2592.00, 
2593.00, 
2594.00, 
2595.00, 
2596.00, 
2597.00, 
2598.00, 
2599.00, 
2600.00, 
