"2cP3 - RawData"
"Wavelength nm.","T%"
200.00,0.004
201.00,0.003
202.00,-0.002
203.00,0.002
204.00,0.001
205.00,0.002
206.00,0.001
207.00,0.001
208.00,0.001
209.00,-0.000
210.00,-0.002
211.00,0.003
212.00,0.001
213.00,-0.000
214.00,0.000
215.00,-0.001
216.00,-0.002
217.00,0.002
218.00,0.002
219.00,0.002
220.00,0.003
221.00,0.003
222.00,0.002
223.00,0.001
224.00,-0.001
225.00,0.002
226.00,0.002
227.00,0.001
228.00,0.002
229.00,0.002
230.00,0.002
231.00,0.001
232.00,0.001
233.00,0.002
234.00,-0.001
235.00,-0.001
236.00,0.001
237.00,-0.000
238.00,0.000
239.00,-0.001
240.00,0.000
241.00,-0.000
242.00,-0.001
243.00,0.001
244.00,0.001
245.00,0.000
246.00,0.001
247.00,0.001
248.00,-0.001
249.00,-0.001
250.00,0.000
251.00,0.001
252.00,-0.001
253.00,-0.000
254.00,-0.002
255.00,-0.001
256.00,-0.001
257.00,-0.001
258.00,0.000
259.00,-0.002
260.00,-0.002
261.00,-0.003
262.00,0.002
263.00,0.000
264.00,-0.001
265.00,0.001
266.00,-0.001
267.00,0.002
268.00,0.001
269.00,-0.000
270.00,-0.001
271.00,-0.000
272.00,0.000
273.00,-0.001
274.00,-0.000
275.00,0.000
276.00,0.001
277.00,-0.000
278.00,-0.000
279.00,0.001
280.00,0.000
281.00,0.000
282.00,0.001
283.00,0.000
284.00,-0.001
285.00,-0.000
286.00,-0.000
287.00,0.001
288.00,0.000
289.00,0.000
290.00,-0.001
291.00,-0.001
292.00,0.001
293.00,-0.000
294.00,0.000
295.00,0.001
296.00,0.000
297.00,0.001
298.00,0.001
299.00,0.003
300.00,0.003
301.00,0.004
302.00,0.006
303.00,0.008
304.00,0.011
305.00,0.019
306.00,0.030
307.00,0.046
308.00,0.071
309.00,0.109
310.00,0.154
311.00,0.202
312.00,0.286
313.00,0.384
314.00,0.512
315.00,0.672
316.00,0.864
317.00,1.078
318.00,1.322
319.00,1.647
320.00,1.989
321.00,2.383
322.00,2.823
323.00,3.336
324.00,3.868
325.00,4.397
326.00,4.960
327.00,5.590
328.00,6.246
329.00,6.931
330.00,7.632
331.00,8.315
332.00,9.067
333.00,9.745
334.00,10.554
335.00,11.325
336.00,12.025
337.00,12.810
338.00,13.564
339.00,14.177
340.00,14.963
341.00,15.635
342.00,16.290
343.00,16.897
344.00,17.474
345.00,18.074
346.00,18.579
347.00,19.108
348.00,19.588
349.00,20.045
350.00,20.531
351.00,20.931
352.00,21.298
353.00,21.668
354.00,22.005
355.00,22.389
356.00,22.680
357.00,22.952
358.00,23.202
359.00,23.476
360.00,23.736
361.00,23.859
362.00,24.064
363.00,24.329
364.00,24.489
365.00,24.612
366.00,24.748
367.00,24.858
368.00,24.938
369.00,25.017
370.00,25.162
371.00,25.169
372.00,25.189
373.00,25.213
374.00,25.208
375.00,25.209
376.00,25.183
377.00,25.183
378.00,25.120
379.00,25.094
380.00,25.040
381.00,25.111
382.00,25.100
383.00,25.122
384.00,25.060
385.00,25.239
386.00,25.271
387.00,25.309
388.00,25.373
389.00,25.386
390.00,25.442
391.00,25.465
392.00,25.495
393.00,25.573
394.00,25.582
395.00,25.597
396.00,25.603
397.00,25.669
398.00,25.699
399.00,25.664
400.00,25.696
401.00,25.690
402.00,25.694
403.00,25.699
404.00,25.765
405.00,25.673
406.00,25.687
407.00,25.674
408.00,25.625
409.00,25.572
410.00,25.553
411.00,25.561
412.00,25.533
413.00,25.518
414.00,25.477
415.00,25.541
416.00,25.572
417.00,25.572
418.00,25.631
419.00,25.622
420.00,25.667
421.00,25.719
422.00,25.779
423.00,25.766
424.00,25.788
425.00,25.794
426.00,25.882
427.00,25.904
428.00,25.966
429.00,25.984
430.00,26.017
431.00,26.065
432.00,26.099
433.00,26.155
434.00,26.205
435.00,26.266
436.00,26.281
437.00,26.353
438.00,26.454
439.00,26.493
440.00,26.549
441.00,26.632
442.00,26.699
443.00,26.680
444.00,26.876
445.00,26.940
446.00,27.012
447.00,27.125
448.00,27.227
449.00,27.299
450.00,27.368
451.00,27.435
452.00,27.545
453.00,27.658
454.00,27.763
455.00,27.843
456.00,27.960
457.00,28.071
458.00,28.138
459.00,28.237
460.00,28.349
461.00,28.451
462.00,28.565
463.00,28.701
464.00,28.794
465.00,28.883
466.00,29.026
467.00,29.150
468.00,29.146
469.00,29.392
470.00,29.459
471.00,29.544
472.00,29.660
473.00,29.760
474.00,29.854
475.00,29.987
476.00,30.041
477.00,30.168
478.00,30.305
479.00,30.421
480.00,30.557
481.00,30.694
482.00,30.774
483.00,30.886
484.00,31.010
485.00,31.220
486.00,31.327
487.00,31.459
488.00,31.594
489.00,31.780
490.00,31.920
491.00,32.024
492.00,32.215
493.00,32.295
494.00,32.303
495.00,32.416
496.00,32.535
497.00,32.649
498.00,32.774
499.00,32.938
500.00,33.041
501.00,33.119
502.00,33.302
503.00,33.331
504.00,33.458
505.00,33.614
506.00,33.715
507.00,33.819
508.00,33.909
509.00,33.999
510.00,34.162
511.00,34.288
512.00,34.352
513.00,34.516
514.00,34.623
515.00,34.718
516.00,34.926
517.00,34.913
518.00,35.012
519.00,35.102
520.00,35.194
521.00,35.259
522.00,35.342
523.00,35.438
524.00,35.513
525.00,35.640
526.00,35.735
527.00,35.853
528.00,35.925
529.00,36.024
530.00,36.116
531.00,36.279
532.00,36.317
533.00,36.457
534.00,36.528
535.00,36.620
536.00,36.697
537.00,36.772
538.00,36.893
539.00,36.898
540.00,36.987
541.00,37.044
542.00,37.144
543.00,37.193
544.00,37.274
545.00,37.309
546.00,37.382
547.00,37.488
548.00,37.583
549.00,37.618
550.00,37.731
551.00,37.839
552.00,37.894
553.00,37.911
554.00,38.059
555.00,38.079
556.00,38.131
557.00,38.197
558.00,38.249
559.00,38.369
560.00,38.446
561.00,38.493
562.00,38.538
563.00,38.549
564.00,38.653
565.00,38.660
566.00,38.749
567.00,38.857
568.00,38.768
569.00,38.807
570.00,38.859
571.00,38.955
572.00,38.962
573.00,39.003
574.00,39.066
575.00,39.096
576.00,39.109
577.00,39.170
578.00,39.282
579.00,39.341
580.00,39.395
581.00,39.553
582.00,39.579
583.00,39.619
584.00,39.738
585.00,39.801
586.00,39.808
587.00,39.903
588.00,39.939
589.00,39.952
590.00,40.002
591.00,40.015
592.00,40.090
593.00,40.093
594.00,40.121
595.00,40.177
596.00,40.219
597.00,40.251
598.00,40.376
599.00,40.376
600.00,40.394
601.00,40.481
602.00,40.538
603.00,40.474
604.00,40.540
605.00,40.670
606.00,40.802
607.00,40.778
608.00,40.877
609.00,40.863
610.00,40.769
611.00,40.900
612.00,40.876
613.00,40.937
614.00,40.865
615.00,40.964
616.00,41.157
617.00,41.216
618.00,41.293
619.00,41.348
620.00,41.388
621.00,41.425
622.00,41.484
623.00,41.562
624.00,41.595
625.00,41.675
626.00,41.729
627.00,41.793
628.00,41.795
629.00,41.875
630.00,41.930
631.00,41.966
632.00,42.029
633.00,42.092
634.00,42.138
635.00,42.252
636.00,42.290
637.00,42.367
638.00,42.458
639.00,42.544
640.00,42.494
641.00,42.527
642.00,42.614
643.00,42.647
644.00,42.750
645.00,42.785
646.00,42.874
647.00,42.964
648.00,43.029
649.00,43.168
650.00,43.100
651.00,43.268
652.00,43.314
653.00,43.368
654.00,43.438
655.00,43.456
656.00,43.538
657.00,43.724
658.00,43.787
659.00,43.865
660.00,43.849
661.00,43.903
662.00,44.053
663.00,44.105
664.00,44.294
665.00,44.301
666.00,44.291
667.00,44.444
668.00,44.477
669.00,44.575
670.00,44.632
671.00,44.630
672.00,44.666
673.00,44.856
674.00,44.936
675.00,44.958
676.00,45.039
677.00,45.153
678.00,45.182
679.00,45.139
680.00,45.191
681.00,45.357
682.00,45.470
683.00,45.430
684.00,45.662
685.00,45.814
686.00,45.617
687.00,45.682
688.00,45.870
689.00,45.879
690.00,45.990
691.00,46.074
692.00,46.085
693.00,45.978
694.00,46.081
695.00,46.244
696.00,46.213
697.00,46.272
698.00,46.433
699.00,46.631
700.00,46.696
701.00,46.655
702.00,46.807
703.00,46.885
704.00,46.945
705.00,46.910
706.00,47.035
707.00,46.985
708.00,46.993
709.00,47.317
710.00,47.224
711.00,47.122
712.00,47.180
713.00,47.287
714.00,47.333
715.00,47.421
716.00,47.437
717.00,47.515
718.00,47.598
719.00,47.597
720.00,47.659
721.00,51.878
722.00,51.898
723.00,51.986
724.00,51.864
725.00,51.911
726.00,51.904
727.00,51.954
728.00,51.930
729.00,51.911
730.00,51.975
731.00,51.995
732.00,52.029
733.00,52.036
734.00,52.018
735.00,52.070
736.00,52.067
737.00,52.120
738.00,52.146
739.00,52.145
740.00,52.082
741.00,52.118
742.00,52.088
743.00,52.137
744.00,52.090
745.00,52.191
746.00,52.076
747.00,52.106
748.00,52.080
749.00,52.163
750.00,52.108
751.00,52.061
752.00,52.089
753.00,52.094
754.00,51.984
755.00,52.029
756.00,52.055
757.00,52.088
758.00,52.068
759.00,52.062
760.00,52.032
761.00,51.991
762.00,52.023
763.00,52.136
764.00,51.999
765.00,52.029
766.00,52.112
767.00,52.151
768.00,52.148
769.00,52.118
770.00,52.149
771.00,52.139
772.00,52.125
773.00,52.061
774.00,52.144
775.00,52.217
776.00,52.082
777.00,52.085
778.00,52.028
779.00,52.093
780.00,52.101
781.00,52.086
782.00,52.068
783.00,52.079
784.00,52.079
785.00,52.023
786.00,52.043
787.00,52.045
788.00,51.981
789.00,52.010
790.00,52.006
791.00,51.958
792.00,51.962
793.00,51.899
794.00,51.924
795.00,51.851
796.00,51.840
797.00,51.785
798.00,51.888
799.00,51.821
800.00,51.807
801.00,51.768
802.00,51.780
803.00,51.693
804.00,51.633
805.00,51.706
806.00,51.688
807.00,51.723
808.00,51.652
809.00,51.621
810.00,51.653
811.00,51.571
812.00,51.602
813.00,51.567
814.00,51.569
815.00,51.628
816.00,51.527
817.00,51.451
818.00,51.448
819.00,51.490
820.00,51.428
821.00,51.451
822.00,51.405
823.00,51.491
824.00,51.443
825.00,51.331
826.00,51.431
827.00,51.414
828.00,51.274
829.00,51.359
830.00,51.312
831.00,53.868
832.00,53.830
833.00,53.812
834.00,53.786
835.00,53.787
836.00,53.766
837.00,53.722
838.00,53.718
839.00,53.664
840.00,53.641
841.00,53.652
842.00,53.602
843.00,53.600
844.00,53.626
845.00,53.549
846.00,53.568
847.00,53.570
848.00,53.512
849.00,53.432
850.00,53.430
851.00,53.361
852.00,53.371
853.00,53.305
854.00,53.308
855.00,53.274
856.00,53.305
857.00,53.248
858.00,53.245
859.00,53.211
860.00,53.207
861.00,53.184
862.00,53.138
863.00,53.100
864.00,53.081
865.00,53.078
866.00,53.168
867.00,53.087
868.00,53.029
869.00,53.053
870.00,52.973
871.00,53.035
872.00,52.990
873.00,53.003
874.00,52.983
875.00,52.931
876.00,52.952
877.00,53.115
878.00,52.905
879.00,52.866
880.00,52.910
881.00,52.767
882.00,52.855
883.00,52.839
884.00,52.779
885.00,52.782
886.00,52.762
887.00,52.751
888.00,52.728
889.00,52.730
890.00,52.710
891.00,52.677
892.00,52.651
893.00,52.632
894.00,52.643
895.00,52.577
896.00,52.560
897.00,52.545
898.00,52.533
899.00,52.486
900.00,52.506
901.00,52.503
902.00,52.508
903.00,52.463
904.00,52.451
905.00,52.436
906.00,52.409
907.00,52.386
908.00,52.343
909.00,52.327
910.00,52.304
911.00,52.315
912.00,52.305
913.00,52.245
914.00,52.231
915.00,52.211
916.00,52.185
917.00,52.158
918.00,52.152
919.00,52.098
920.00,52.083
921.00,52.052
922.00,52.082
923.00,52.050
924.00,52.038
925.00,52.011
926.00,52.182
927.00,51.994
928.00,51.982
929.00,51.962
930.00,51.916
931.00,51.921
932.00,51.976
933.00,51.886
934.00,51.861
935.00,51.837
936.00,51.829
937.00,51.789
938.00,51.783
939.00,51.756
940.00,51.732
941.00,51.701
942.00,51.706
943.00,51.690
944.00,51.616
945.00,51.650
946.00,51.776
947.00,51.627
948.00,51.589
949.00,51.574
950.00,51.552
951.00,51.536
952.00,51.502
953.00,51.477
954.00,51.451
955.00,51.416
956.00,51.412
957.00,51.372
958.00,51.382
959.00,51.331
960.00,51.323
961.00,51.304
962.00,51.299
963.00,51.244
964.00,51.237
965.00,51.230
966.00,51.204
967.00,51.215
968.00,51.180
969.00,51.217
970.00,51.187
971.00,51.210
972.00,51.183
973.00,51.205
974.00,51.223
975.00,51.196
976.00,51.222
977.00,51.198
978.00,51.221
979.00,51.189
980.00,51.222
981.00,51.203
982.00,51.192
983.00,51.186
984.00,51.168
985.00,51.183
986.00,51.151
987.00,51.158
988.00,51.144
989.00,51.136
990.00,51.128
991.00,51.109
992.00,51.117
993.00,51.070
994.00,51.056
995.00,51.055
996.00,51.037
997.00,51.036
998.00,50.999
999.00,51.031
1000.00,50.982
1001.00,50.990
1002.00,50.991
1003.00,50.956
1004.00,50.945
1005.00,50.912
1006.00,50.937
1007.00,50.904
1008.00,50.882
1009.00,50.855
1010.00,50.859
1011.00,50.823
1012.00,50.812
1013.00,50.830
1014.00,50.781
1015.00,50.798
1016.00,50.750
1017.00,50.755
1018.00,50.748
1019.00,50.715
1020.00,50.705
1021.00,50.695
1022.00,50.694
1023.00,50.657
1024.00,50.650
1025.00,50.634
1026.00,50.625
1027.00,50.600
1028.00,50.598
1029.00,50.591
1030.00,50.553
1031.00,50.553
1032.00,50.523
1033.00,50.526
1034.00,50.492
1035.00,50.463
1036.00,50.432
1037.00,50.410
1038.00,50.401
1039.00,50.365
1040.00,50.364
1041.00,50.319
1042.00,50.315
1043.00,50.290
1044.00,50.314
1045.00,50.298
1046.00,50.295
1047.00,50.310
1048.00,50.313
1049.00,50.321
1050.00,50.333
1051.00,50.367
1052.00,50.354
1053.00,50.370
1054.00,50.376
1055.00,50.381
1056.00,50.386
1057.00,50.396
1058.00,50.388
1059.00,50.379
1060.00,50.395
1061.00,50.387
1062.00,50.365
1063.00,50.380
1064.00,50.357
1065.00,50.353
1066.00,50.332
1067.00,50.320
1068.00,50.341
1069.00,50.307
1070.00,50.292
1071.00,50.275
1072.00,50.294
1073.00,50.270
1074.00,50.271
1075.00,50.234
1076.00,50.235
1077.00,50.221
1078.00,50.207
1079.00,50.201
1080.00,50.201
1081.00,50.188
1082.00,50.176
1083.00,50.164
1084.00,50.169
1085.00,50.157
1086.00,50.138
1087.00,50.149
1088.00,50.129
1089.00,50.118
1090.00,50.127
1091.00,50.109
1092.00,50.103
1093.00,50.078
1094.00,50.070
1095.00,50.054
1096.00,50.050
1097.00,50.026
1098.00,50.037
1099.00,50.029
1100.00,50.033
1101.00,50.002
1102.00,50.001
1103.00,49.993
1104.00,49.988
1105.00,49.961
1106.00,49.961
1107.00,49.936
1108.00,49.939
1109.00,49.931
1110.00,49.922
1111.00,49.910
1112.00,49.905
1113.00,49.886
1114.00,49.880
1115.00,49.881
1116.00,49.872
1117.00,49.853
1118.00,49.862
1119.00,49.854
1120.00,49.853
1121.00,49.836
1122.00,49.836
1123.00,49.826
1124.00,49.807
1125.00,49.795
1126.00,49.799
1127.00,49.786
1128.00,49.781
1129.00,49.779
1130.00,49.780
1131.00,49.758
1132.00,49.743
1133.00,49.740
1134.00,49.736
1135.00,49.711
1136.00,49.724
1137.00,49.716
1138.00,49.723
1139.00,49.723
1140.00,49.708
1141.00,49.694
1142.00,49.690
1143.00,49.700
1144.00,49.672
1145.00,49.678
1146.00,49.668
1147.00,49.655
1148.00,49.650
1149.00,49.661
1150.00,49.666
1151.00,49.666
1152.00,49.642
1153.00,49.642
1154.00,49.631
1155.00,49.629
1156.00,49.616
1157.00,49.616
1158.00,49.612
1159.00,49.620
1160.00,49.617
1161.00,49.623
1162.00,49.610
1163.00,49.606
1164.00,49.611
1165.00,49.604
1166.00,49.613
1167.00,49.609
1168.00,49.611
1169.00,49.605
1170.00,49.608
1171.00,49.586
1172.00,49.597
1173.00,49.597
1174.00,49.601
1175.00,49.595
1176.00,49.598
1177.00,49.581
1178.00,49.587
1179.00,49.592
1180.00,49.575
1181.00,49.584
1182.00,49.577
1183.00,49.570
1184.00,49.550
1185.00,49.578
1186.00,49.565
1187.00,49.563
1188.00,49.538
1189.00,49.553
1190.00,49.546
1191.00,49.539
1192.00,49.547
1193.00,49.529
1194.00,49.546
1195.00,49.525
1196.00,49.544
1197.00,49.547
1198.00,49.535
1199.00,49.527
1200.00,49.525
1201.00,49.533
1202.00,49.511
1203.00,49.510
1204.00,49.500
1205.00,49.529
1206.00,49.524
1207.00,49.512
1208.00,49.498
1209.00,49.497
1210.00,49.501
1211.00,49.495
1212.00,49.509
1213.00,49.475
1214.00,49.500
1215.00,49.473
1216.00,49.499
1217.00,49.495
1218.00,49.488
1219.00,49.518
1220.00,49.509
1221.00,49.510
1222.00,49.486
1223.00,49.505
1224.00,49.491
1225.00,49.477
1226.00,49.497
1227.00,49.490
1228.00,49.497
1229.00,49.487
1230.00,49.532
1231.00,49.512
1232.00,49.531
1233.00,49.529
1234.00,49.522
1235.00,49.517
1236.00,49.518
1237.00,49.529
1238.00,49.539
1239.00,49.543
1240.00,49.530
1241.00,49.542
1242.00,49.536
1243.00,49.544
1244.00,49.524
1245.00,49.551
1246.00,49.548
1247.00,49.552
1248.00,49.543
1249.00,49.567
1250.00,49.562
1251.00,49.567
1252.00,49.582
1253.00,49.554
1254.00,49.579
1255.00,49.571
1256.00,49.551
1257.00,49.543
1258.00,49.581
1259.00,49.572
1260.00,49.593
1261.00,49.593
1262.00,49.581
1263.00,49.593
1264.00,49.597
1265.00,49.593
1266.00,49.591
1267.00,49.606
1268.00,49.618
1269.00,49.596
1270.00,49.614
1271.00,49.629
1272.00,49.633
1273.00,49.631
1274.00,49.629
1275.00,49.626
1276.00,49.633
1277.00,49.632
1278.00,49.637
1279.00,49.644
1280.00,49.648
1281.00,49.661
1282.00,49.687
1283.00,49.661
1284.00,49.663
1285.00,49.652
1286.00,49.675
1287.00,49.672
1288.00,49.683
1289.00,49.680
1290.00,49.698
1291.00,49.702
1292.00,49.707
1293.00,49.707
1294.00,49.714
1295.00,49.718
1296.00,49.724
1297.00,49.724
1298.00,49.724
1299.00,49.713
1300.00,49.727
1301.00,49.736
1302.00,49.737
1303.00,49.754
1304.00,49.741
1305.00,49.763
1306.00,49.762
1307.00,49.775
1308.00,49.774
1309.00,49.782
1310.00,49.797
1311.00,49.780
1312.00,49.779
1313.00,49.772
1314.00,49.780
1315.00,49.804
1316.00,49.815
1317.00,49.831
1318.00,49.818
1319.00,49.821
1320.00,49.842
1321.00,49.991
1322.00,49.994
1323.00,49.962
1324.00,49.971
1325.00,49.950
1326.00,49.980
1327.00,49.970
1328.00,49.977
1329.00,49.969
1330.00,49.976
1331.00,49.976
1332.00,49.978
1333.00,49.973
1334.00,50.013
1335.00,50.028
1336.00,50.042
1337.00,50.074
1338.00,50.137
1339.00,50.184
1340.00,50.238
1341.00,50.283
1342.00,50.364
1343.00,50.418
1344.00,50.454
1345.00,50.531
1346.00,50.573
1347.00,50.581
1348.00,50.602
1349.00,50.632
1350.00,50.634
1351.00,50.650
1352.00,50.649
1353.00,50.698
1354.00,50.662
1355.00,50.619
1356.00,50.694
1357.00,50.631
1358.00,50.720
1359.00,50.736
1360.00,50.766
1361.00,50.667
1362.00,50.646
1363.00,50.758
1364.00,50.715
1365.00,50.692
1366.00,50.796
1367.00,50.682
1368.00,50.652
1369.00,50.714
1370.00,50.636
1371.00,50.663
1372.00,50.688
1373.00,50.660
1374.00,50.684
1375.00,50.659
1376.00,50.657
1377.00,50.648
1378.00,50.691
1379.00,50.669
1380.00,50.662
1381.00,50.676
1382.00,50.604
1383.00,50.642
1384.00,50.589
1385.00,50.558
1386.00,50.640
1387.00,50.643
1388.00,50.582
1389.00,50.602
1390.00,50.647
1391.00,50.621
1392.00,50.623
1393.00,50.670
1394.00,50.634
1395.00,50.569
1396.00,50.576
1397.00,50.644
1398.00,50.712
1399.00,50.637
1400.00,50.591
1401.00,50.644
1402.00,50.833
1403.00,50.797
1404.00,50.629
1405.00,50.703
1406.00,50.663
1407.00,50.713
1408.00,50.680
1409.00,50.669
1410.00,50.720
1411.00,50.704
1412.00,50.777
1413.00,50.715
1414.00,50.705
1415.00,50.711
1416.00,50.756
1417.00,50.822
1418.00,50.787
1419.00,50.729
1420.00,50.784
1421.00,50.821
1422.00,50.823
1423.00,50.811
1424.00,50.833
1425.00,50.836
1426.00,50.851
1427.00,50.866
1428.00,50.867
1429.00,50.887
1430.00,50.915
1431.00,50.912
1432.00,50.922
1433.00,50.932
1434.00,50.932
1435.00,50.983
1436.00,50.969
1437.00,50.969
1438.00,51.003
1439.00,51.041
1440.00,51.029
1441.00,51.046
1442.00,51.044
1443.00,51.070
1444.00,51.123
1445.00,51.082
1446.00,51.101
1447.00,51.137
1448.00,51.170
1449.00,51.174
1450.00,51.156
1451.00,51.174
1452.00,51.181
1453.00,51.199
1454.00,51.229
1455.00,51.246
1456.00,51.257
1457.00,51.273
1458.00,51.280
1459.00,51.317
1460.00,51.310
1461.00,51.338
1462.00,51.339
1463.00,51.358
1464.00,51.394
1465.00,51.390
1466.00,51.388
1467.00,51.407
1468.00,51.458
1469.00,51.459
1470.00,51.443
1471.00,51.474
1472.00,51.481
1473.00,51.490
1474.00,51.533
1475.00,51.524
1476.00,51.525
1477.00,51.520
1478.00,51.568
1479.00,51.565
1480.00,51.556
1481.00,51.568
1482.00,51.595
1483.00,51.602
1484.00,51.606
1485.00,51.627
1486.00,51.634
1487.00,51.648
1488.00,51.668
1489.00,51.666
1490.00,51.686
1491.00,51.695
1492.00,51.716
1493.00,51.716
1494.00,51.726
1495.00,51.725
1496.00,51.739
1497.00,51.741
1498.00,51.745
1499.00,51.776
1500.00,51.790
1501.00, 
1502.00, 
1503.00, 
1504.00, 
1505.00, 
1506.00, 
1507.00, 
1508.00, 
1509.00, 
1510.00, 
1511.00, 
1512.00, 
1513.00, 
1514.00, 
1515.00, 
1516.00, 
1517.00, 
1518.00, 
1519.00, 
1520.00, 
1521.00, 
1522.00, 
1523.00, 
1524.00, 
1525.00, 
1526.00, 
1527.00, 
1528.00, 
1529.00, 
1530.00, 
1531.00, 
1532.00, 
1533.00, 
1534.00, 
1535.00, 
1536.00, 
1537.00, 
1538.00, 
1539.00, 
1540.00, 
1541.00, 
1542.00, 
1543.00, 
1544.00, 
1545.00, 
1546.00, 
1547.00, 
1548.00, 
1549.00, 
1550.00, 
1551.00, 
1552.00, 
1553.00, 
1554.00, 
1555.00, 
1556.00, 
1557.00, 
1558.00, 
1559.00, 
1560.00, 
1561.00, 
1562.00, 
1563.00, 
1564.00, 
1565.00, 
1566.00, 
1567.00, 
1568.00, 
1569.00, 
1570.00, 
1571.00, 
1572.00, 
1573.00, 
1574.00, 
1575.00, 
1576.00, 
1577.00, 
1578.00, 
1579.00, 
1580.00, 
1581.00, 
1582.00, 
1583.00, 
1584.00, 
1585.00, 
1586.00, 
1587.00, 
1588.00, 
1589.00, 
1590.00, 
1591.00, 
1592.00, 
1593.00, 
1594.00, 
1595.00, 
1596.00, 
1597.00, 
1598.00, 
1599.00, 
1600.00, 
1601.00, 
1602.00, 
1603.00, 
1604.00, 
1605.00, 
1606.00, 
1607.00, 
1608.00, 
1609.00, 
1610.00, 
1611.00, 
1612.00, 
1613.00, 
1614.00, 
1615.00, 
1616.00, 
1617.00, 
1618.00, 
1619.00, 
1620.00, 
1621.00, 
1622.00, 
1623.00, 
1624.00, 
1625.00, 
1626.00, 
1627.00, 
1628.00, 
1629.00, 
1630.00, 
1631.00, 
1632.00, 
1633.00, 
1634.00, 
1635.00, 
1636.00, 
1637.00, 
1638.00, 
1639.00, 
1640.00, 
1641.00, 
1642.00, 
1643.00, 
1644.00, 
1645.00, 
1646.00, 
1647.00, 
1648.00, 
1649.00, 
1650.00, 
1651.00, 
1652.00, 
1653.00, 
1654.00, 
1655.00, 
1656.00, 
1657.00, 
1658.00, 
1659.00, 
1660.00, 
1661.00, 
1662.00, 
1663.00, 
1664.00, 
1665.00, 
1666.00, 
1667.00, 
1668.00, 
1669.00, 
1670.00, 
1671.00, 
1672.00, 
1673.00, 
1674.00, 
1675.00, 
1676.00, 
1677.00, 
1678.00, 
1679.00, 
1680.00, 
1681.00, 
1682.00, 
1683.00, 
1684.00, 
1685.00, 
1686.00, 
1687.00, 
1688.00, 
1689.00, 
1690.00, 
1691.00, 
1692.00, 
1693.00, 
1694.00, 
1695.00, 
1696.00, 
1697.00, 
1698.00, 
1699.00, 
1700.00, 
1701.00, 
1702.00, 
1703.00, 
1704.00, 
1705.00, 
1706.00, 
1707.00, 
1708.00, 
1709.00, 
1710.00, 
1711.00, 
1712.00, 
1713.00, 
1714.00, 
1715.00, 
1716.00, 
1717.00, 
1718.00, 
1719.00, 
1720.00, 
1721.00, 
1722.00, 
1723.00, 
1724.00, 
1725.00, 
1726.00, 
1727.00, 
1728.00, 
1729.00, 
1730.00, 
1731.00, 
1732.00, 
1733.00, 
1734.00, 
1735.00, 
1736.00, 
1737.00, 
1738.00, 
1739.00, 
1740.00, 
1741.00, 
1742.00, 
1743.00, 
1744.00, 
1745.00, 
1746.00, 
1747.00, 
1748.00, 
1749.00, 
1750.00, 
1751.00, 
1752.00, 
1753.00, 
1754.00, 
1755.00, 
1756.00, 
1757.00, 
1758.00, 
1759.00, 
1760.00, 
1761.00, 
1762.00, 
1763.00, 
1764.00, 
1765.00, 
1766.00, 
1767.00, 
1768.00, 
1769.00, 
1770.00, 
1771.00, 
1772.00, 
1773.00, 
1774.00, 
1775.00, 
1776.00, 
1777.00, 
1778.00, 
1779.00, 
1780.00, 
1781.00, 
1782.00, 
1783.00, 
1784.00, 
1785.00, 
1786.00, 
1787.00, 
1788.00, 
1789.00, 
1790.00, 
1791.00, 
1792.00, 
1793.00, 
1794.00, 
1795.00, 
1796.00, 
1797.00, 
1798.00, 
1799.00, 
1800.00, 
1801.00, 
1802.00, 
1803.00, 
1804.00, 
1805.00, 
1806.00, 
1807.00, 
1808.00, 
1809.00, 
1810.00, 
1811.00, 
1812.00, 
1813.00, 
1814.00, 
1815.00, 
1816.00, 
1817.00, 
1818.00, 
1819.00, 
1820.00, 
1821.00, 
1822.00, 
1823.00, 
1824.00, 
1825.00, 
1826.00, 
1827.00, 
1828.00, 
1829.00, 
1830.00, 
1831.00, 
1832.00, 
1833.00, 
1834.00, 
1835.00, 
1836.00, 
1837.00, 
1838.00, 
1839.00, 
1840.00, 
1841.00, 
1842.00, 
1843.00, 
1844.00, 
1845.00, 
1846.00, 
1847.00, 
1848.00, 
1849.00, 
1850.00, 
1851.00, 
1852.00, 
1853.00, 
1854.00, 
1855.00, 
1856.00, 
1857.00, 
1858.00, 
1859.00, 
1860.00, 
1861.00, 
1862.00, 
1863.00, 
1864.00, 
1865.00, 
1866.00, 
1867.00, 
1868.00, 
1869.00, 
1870.00, 
1871.00, 
1872.00, 
1873.00, 
1874.00, 
1875.00, 
1876.00, 
1877.00, 
1878.00, 
1879.00, 
1880.00, 
1881.00, 
1882.00, 
1883.00, 
1884.00, 
1885.00, 
1886.00, 
1887.00, 
1888.00, 
1889.00, 
1890.00, 
1891.00, 
1892.00, 
1893.00, 
1894.00, 
1895.00, 
1896.00, 
1897.00, 
1898.00, 
1899.00, 
1900.00, 
1901.00, 
1902.00, 
1903.00, 
1904.00, 
1905.00, 
1906.00, 
1907.00, 
1908.00, 
1909.00, 
1910.00, 
1911.00, 
1912.00, 
1913.00, 
1914.00, 
1915.00, 
1916.00, 
1917.00, 
1918.00, 
1919.00, 
1920.00, 
1921.00, 
1922.00, 
1923.00, 
1924.00, 
1925.00, 
1926.00, 
1927.00, 
1928.00, 
1929.00, 
1930.00, 
1931.00, 
1932.00, 
1933.00, 
1934.00, 
1935.00, 
1936.00, 
1937.00, 
1938.00, 
1939.00, 
1940.00, 
1941.00, 
1942.00, 
1943.00, 
1944.00, 
1945.00, 
1946.00, 
1947.00, 
1948.00, 
1949.00, 
1950.00, 
1951.00, 
1952.00, 
1953.00, 
1954.00, 
1955.00, 
1956.00, 
1957.00, 
1958.00, 
1959.00, 
1960.00, 
1961.00, 
1962.00, 
1963.00, 
1964.00, 
1965.00, 
1966.00, 
1967.00, 
1968.00, 
1969.00, 
1970.00, 
1971.00, 
1972.00, 
1973.00, 
1974.00, 
1975.00, 
1976.00, 
1977.00, 
1978.00, 
1979.00, 
1980.00, 
1981.00, 
1982.00, 
1983.00, 
1984.00, 
1985.00, 
1986.00, 
1987.00, 
1988.00, 
1989.00, 
1990.00, 
1991.00, 
1992.00, 
1993.00, 
1994.00, 
1995.00, 
1996.00, 
1997.00, 
1998.00, 
1999.00, 
2000.00, 
2001.00, 
2002.00, 
2003.00, 
2004.00, 
2005.00, 
2006.00, 
2007.00, 
2008.00, 
2009.00, 
2010.00, 
2011.00, 
2012.00, 
2013.00, 
2014.00, 
2015.00, 
2016.00, 
2017.00, 
2018.00, 
2019.00, 
2020.00, 
2021.00, 
2022.00, 
2023.00, 
2024.00, 
2025.00, 
2026.00, 
2027.00, 
2028.00, 
2029.00, 
2030.00, 
2031.00, 
2032.00, 
2033.00, 
2034.00, 
2035.00, 
2036.00, 
2037.00, 
2038.00, 
2039.00, 
2040.00, 
2041.00, 
2042.00, 
2043.00, 
2044.00, 
2045.00, 
2046.00, 
2047.00, 
2048.00, 
2049.00, 
2050.00, 
2051.00, 
2052.00, 
2053.00, 
2054.00, 
2055.00, 
2056.00, 
2057.00, 
2058.00, 
2059.00, 
2060.00, 
2061.00, 
2062.00, 
2063.00, 
2064.00, 
2065.00, 
2066.00, 
2067.00, 
2068.00, 
2069.00, 
2070.00, 
2071.00, 
2072.00, 
2073.00, 
2074.00, 
2075.00, 
2076.00, 
2077.00, 
2078.00, 
2079.00, 
2080.00, 
2081.00, 
2082.00, 
2083.00, 
2084.00, 
2085.00, 
2086.00, 
2087.00, 
2088.00, 
2089.00, 
2090.00, 
2091.00, 
2092.00, 
2093.00, 
2094.00, 
2095.00, 
2096.00, 
2097.00, 
2098.00, 
2099.00, 
2100.00, 
2101.00, 
2102.00, 
2103.00, 
2104.00, 
2105.00, 
2106.00, 
2107.00, 
2108.00, 
2109.00, 
2110.00, 
2111.00, 
2112.00, 
2113.00, 
2114.00, 
2115.00, 
2116.00, 
2117.00, 
2118.00, 
2119.00, 
2120.00, 
2121.00, 
2122.00, 
2123.00, 
2124.00, 
2125.00, 
2126.00, 
2127.00, 
2128.00, 
2129.00, 
2130.00, 
2131.00, 
2132.00, 
2133.00, 
2134.00, 
2135.00, 
2136.00, 
2137.00, 
2138.00, 
2139.00, 
2140.00, 
2141.00, 
2142.00, 
2143.00, 
2144.00, 
2145.00, 
2146.00, 
2147.00, 
2148.00, 
2149.00, 
2150.00, 
2151.00, 
2152.00, 
2153.00, 
2154.00, 
2155.00, 
2156.00, 
2157.00, 
2158.00, 
2159.00, 
2160.00, 
2161.00, 
2162.00, 
2163.00, 
2164.00, 
2165.00, 
2166.00, 
2167.00, 
2168.00, 
2169.00, 
2170.00, 
2171.00, 
2172.00, 
2173.00, 
2174.00, 
2175.00, 
2176.00, 
2177.00, 
2178.00, 
2179.00, 
2180.00, 
2181.00, 
2182.00, 
2183.00, 
2184.00, 
2185.00, 
2186.00, 
2187.00, 
2188.00, 
2189.00, 
2190.00, 
2191.00, 
2192.00, 
2193.00, 
2194.00, 
2195.00, 
2196.00, 
2197.00, 
2198.00, 
2199.00, 
2200.00, 
2201.00, 
2202.00, 
2203.00, 
2204.00, 
2205.00, 
2206.00, 
2207.00, 
2208.00, 
2209.00, 
2210.00, 
2211.00, 
2212.00, 
2213.00, 
2214.00, 
2215.00, 
2216.00, 
2217.00, 
2218.00, 
2219.00, 
2220.00, 
2221.00, 
2222.00, 
2223.00, 
2224.00, 
2225.00, 
2226.00, 
2227.00, 
2228.00, 
2229.00, 
2230.00, 
2231.00, 
2232.00, 
2233.00, 
2234.00, 
2235.00, 
2236.00, 
2237.00, 
2238.00, 
2239.00, 
2240.00, 
2241.00, 
2242.00, 
2243.00, 
2244.00, 
2245.00, 
2246.00, 
2247.00, 
2248.00, 
2249.00, 
2250.00, 
2251.00, 
2252.00, 
2253.00, 
2254.00, 
2255.00, 
2256.00, 
2257.00, 
2258.00, 
2259.00, 
2260.00, 
2261.00, 
2262.00, 
2263.00, 
2264.00, 
2265.00, 
2266.00, 
2267.00, 
2268.00, 
2269.00, 
2270.00, 
2271.00, 
2272.00, 
2273.00, 
2274.00, 
2275.00, 
2276.00, 
2277.00, 
2278.00, 
2279.00, 
2280.00, 
2281.00, 
2282.00, 
2283.00, 
2284.00, 
2285.00, 
2286.00, 
2287.00, 
2288.00, 
2289.00, 
2290.00, 
2291.00, 
2292.00, 
2293.00, 
2294.00, 
2295.00, 
2296.00, 
2297.00, 
2298.00, 
2299.00, 
2300.00, 
2301.00, 
2302.00, 
2303.00, 
2304.00, 
2305.00, 
2306.00, 
2307.00, 
2308.00, 
2309.00, 
2310.00, 
2311.00, 
2312.00, 
2313.00, 
2314.00, 
2315.00, 
2316.00, 
2317.00, 
2318.00, 
2319.00, 
2320.00, 
2321.00, 
2322.00, 
2323.00, 
2324.00, 
2325.00, 
2326.00, 
2327.00, 
2328.00, 
2329.00, 
2330.00, 
2331.00, 
2332.00, 
2333.00, 
2334.00, 
2335.00, 
2336.00, 
2337.00, 
2338.00, 
2339.00, 
2340.00, 
2341.00, 
2342.00, 
2343.00, 
2344.00, 
2345.00, 
2346.00, 
2347.00, 
2348.00, 
2349.00, 
2350.00, 
2351.00, 
2352.00, 
2353.00, 
2354.00, 
2355.00, 
2356.00, 
2357.00, 
2358.00, 
2359.00, 
2360.00, 
2361.00, 
2362.00, 
2363.00, 
2364.00, 
2365.00, 
2366.00, 
2367.00, 
2368.00, 
2369.00, 
2370.00, 
2371.00, 
2372.00, 
2373.00, 
2374.00, 
2375.00, 
2376.00, 
2377.00, 
2378.00, 
2379.00, 
2380.00, 
2381.00, 
2382.00, 
2383.00, 
2384.00, 
2385.00, 
2386.00, 
2387.00, 
2388.00, 
2389.00, 
2390.00, 
2391.00, 
2392.00, 
2393.00, 
2394.00, 
2395.00, 
2396.00, 
2397.00, 
2398.00, 
2399.00, 
2400.00, 
2401.00, 
2402.00, 
2403.00, 
2404.00, 
2405.00, 
2406.00, 
2407.00, 
2408.00, 
2409.00, 
2410.00, 
2411.00, 
2412.00, 
2413.00, 
2414.00, 
2415.00, 
2416.00, 
2417.00, 
2418.00, 
2419.00, 
2420.00, 
2421.00, 
2422.00, 
2423.00, 
2424.00, 
2425.00, 
2426.00, 
2427.00, 
2428.00, 
2429.00, 
2430.00, 
2431.00, 
2432.00, 
2433.00, 
2434.00, 
2435.00, 
2436.00, 
2437.00, 
2438.00, 
2439.00, 
2440.00, 
2441.00, 
2442.00, 
2443.00, 
2444.00, 
2445.00, 
2446.00, 
2447.00, 
2448.00, 
2449.00, 
2450.00, 
2451.00, 
2452.00, 
2453.00, 
2454.00, 
2455.00, 
2456.00, 
2457.00, 
2458.00, 
2459.00, 
2460.00, 
2461.00, 
2462.00, 
2463.00, 
2464.00, 
2465.00, 
2466.00, 
2467.00, 
2468.00, 
2469.00, 
2470.00, 
2471.00, 
2472.00, 
2473.00, 
2474.00, 
2475.00, 
2476.00, 
2477.00, 
2478.00, 
2479.00, 
2480.00, 
2481.00, 
2482.00, 
2483.00, 
2484.00, 
2485.00, 
2486.00, 
2487.00, 
2488.00, 
2489.00, 
2490.00, 
2491.00, 
2492.00, 
2493.00, 
2494.00, 
2495.00, 
2496.00, 
2497.00, 
2498.00, 
2499.00, 
2500.00, 
2501.00, 
2502.00, 
2503.00, 
2504.00, 
2505.00, 
2506.00, 
2507.00, 
2508.00, 
2509.00, 
2510.00, 
2511.00, 
2512.00, 
2513.00, 
2514.00, 
2515.00, 
2516.00, 
2517.00, 
2518.00, 
2519.00, 
2520.00, 
2521.00, 
2522.00, 
2523.00, 
2524.00, 
2525.00, 
2526.00, 
2527.00, 
2528.00, 
2529.00, 
2530.00, 
2531.00, 
2532.00, 
2533.00, 
2534.00, 
2535.00, 
2536.00, 
2537.00, 
2538.00, 
2539.00, 
2540.00, 
2541.00, 
2542.00, 
2543.00, 
2544.00, 
2545.00, 
2546.00, 
2547.00, 
2548.00, 
2549.00, 
2550.00, 
2551.00, 
2552.00, 
2553.00, 
2554.00, 
2555.00, 
2556.00, 
2557.00, 
2558.00, 
2559.00, 
2560.00, 
2561.00, 
2562.00, 
2563.00, 
2564.00, 
2565.00, 
2566.00, 
2567.00, 
2568.00, 
2569.00, 
2570.00, 
2571.00, 
2572.00, 
2573.00, 
2574.00, 
2575.00, 
2576.00, 
2577.00, 
2578.00, 
2579.00, 
2580.00, 
2581.00, 
2582.00, 
2583.00, 
2584.00, 
2585.00, 
2586.00, 
2587.00, 
2588.00, 
2589.00, 
2590.00, 
2591.00, 
2592.00, 
2593.00, 
2594.00, 
2595.00, 
2596.00, 
2597.00, 
2598.00, 
2599.00, 
2600.00, 
