"2cP5 - RawData"
"Wavelength nm.","T%"
200.00,0.004
201.00,0.003
202.00,0.003
203.00,0.002
204.00,0.002
205.00,0.002
206.00,0.000
207.00,-0.001
208.00,-0.001
209.00,0.001
210.00,0.003
211.00,0.001
212.00,0.002
213.00,-0.000
214.00,0.000
215.00,0.000
216.00,-0.002
217.00,-0.000
218.00,-0.001
219.00,0.003
220.00,0.003
221.00,0.000
222.00,-0.001
223.00,0.002
224.00,0.001
225.00,0.001
226.00,0.002
227.00,0.001
228.00,0.001
229.00,-0.000
230.00,-0.000
231.00,-0.000
232.00,-0.000
233.00,0.000
234.00,0.002
235.00,-0.001
236.00,0.001
237.00,0.001
238.00,0.001
239.00,0.000
240.00,0.000
241.00,0.000
242.00,0.001
243.00,-0.001
244.00,0.001
245.00,0.001
246.00,0.000
247.00,0.000
248.00,-0.001
249.00,-0.001
250.00,0.001
251.00,0.001
252.00,0.000
253.00,0.000
254.00,-0.000
255.00,-0.000
256.00,0.000
257.00,0.001
258.00,0.001
259.00,0.001
260.00,-0.000
261.00,0.001
262.00,0.001
263.00,-0.001
264.00,0.000
265.00,0.001
266.00,-0.000
267.00,0.000
268.00,0.001
269.00,0.000
270.00,-0.000
271.00,0.000
272.00,0.000
273.00,-0.001
274.00,-0.001
275.00,0.001
276.00,0.001
277.00,-0.001
278.00,-0.001
279.00,-0.002
280.00,-0.000
281.00,-0.000
282.00,0.001
283.00,0.000
284.00,-0.002
285.00,0.001
286.00,0.002
287.00,0.000
288.00,-0.000
289.00,0.001
290.00,-0.001
291.00,-0.001
292.00,-0.000
293.00,-0.000
294.00,-0.000
295.00,-0.000
296.00,0.001
297.00,0.001
298.00,0.001
299.00,0.001
300.00,0.000
301.00,0.003
302.00,0.006
303.00,0.008
304.00,0.009
305.00,0.014
306.00,0.023
307.00,0.034
308.00,0.056
309.00,0.088
310.00,0.119
311.00,0.159
312.00,0.217
313.00,0.290
314.00,0.390
315.00,0.504
316.00,0.649
317.00,0.821
318.00,1.005
319.00,1.232
320.00,1.497
321.00,1.794
322.00,2.111
323.00,2.499
324.00,2.911
325.00,3.301
326.00,3.725
327.00,4.214
328.00,4.676
329.00,5.206
330.00,5.702
331.00,6.221
332.00,6.760
333.00,7.341
334.00,7.881
335.00,8.451
336.00,8.975
337.00,9.540
338.00,10.076
339.00,10.550
340.00,11.069
341.00,11.587
342.00,12.053
343.00,12.483
344.00,12.882
345.00,13.348
346.00,13.719
347.00,14.081
348.00,14.432
349.00,14.749
350.00,15.049
351.00,15.344
352.00,15.584
353.00,15.828
354.00,16.066
355.00,16.312
356.00,16.498
357.00,16.688
358.00,16.854
359.00,17.021
360.00,17.217
361.00,17.295
362.00,17.435
363.00,17.568
364.00,17.632
365.00,17.705
366.00,17.802
367.00,17.816
368.00,17.867
369.00,17.902
370.00,17.961
371.00,17.968
372.00,17.921
373.00,17.926
374.00,17.949
375.00,17.933
376.00,17.862
377.00,17.830
378.00,17.791
379.00,17.716
380.00,17.687
381.00,17.677
382.00,17.654
383.00,17.656
384.00,17.642
385.00,17.689
386.00,17.670
387.00,17.722
388.00,17.763
389.00,17.751
390.00,17.751
391.00,17.786
392.00,17.775
393.00,17.785
394.00,17.792
395.00,17.793
396.00,17.782
397.00,17.808
398.00,17.809
399.00,17.804
400.00,17.762
401.00,17.778
402.00,17.743
403.00,17.773
404.00,17.828
405.00,17.727
406.00,17.732
407.00,17.715
408.00,17.715
409.00,17.663
410.00,17.637
411.00,17.655
412.00,17.619
413.00,17.641
414.00,17.637
415.00,17.611
416.00,17.649
417.00,17.650
418.00,17.700
419.00,17.735
420.00,17.805
421.00,17.849
422.00,17.846
423.00,17.890
424.00,17.914
425.00,17.937
426.00,17.996
427.00,18.036
428.00,18.103
429.00,18.142
430.00,18.174
431.00,18.214
432.00,18.276
433.00,18.344
434.00,18.383
435.00,18.448
436.00,18.518
437.00,18.577
438.00,18.651
439.00,18.703
440.00,18.788
441.00,18.903
442.00,18.964
443.00,19.029
444.00,19.142
445.00,19.184
446.00,19.307
447.00,19.427
448.00,19.530
449.00,19.610
450.00,19.700
451.00,19.798
452.00,19.901
453.00,20.033
454.00,20.152
455.00,20.244
456.00,20.373
457.00,20.477
458.00,20.600
459.00,20.680
460.00,20.846
461.00,20.940
462.00,21.090
463.00,21.227
464.00,21.364
465.00,21.506
466.00,21.666
467.00,21.774
468.00,21.894
469.00,21.984
470.00,22.105
471.00,22.200
472.00,22.363
473.00,22.456
474.00,22.598
475.00,22.715
476.00,22.825
477.00,22.986
478.00,23.089
479.00,23.274
480.00,23.442
481.00,23.566
482.00,23.697
483.00,23.828
484.00,23.993
485.00,24.143
486.00,24.312
487.00,24.485
488.00,24.638
489.00,24.808
490.00,24.966
491.00,25.089
492.00,25.308
493.00,25.438
494.00,25.489
495.00,25.627
496.00,25.767
497.00,25.890
498.00,26.045
499.00,26.196
500.00,26.344
501.00,26.457
502.00,26.626
503.00,26.750
504.00,26.837
505.00,26.984
506.00,27.081
507.00,27.218
508.00,27.362
509.00,27.522
510.00,27.630
511.00,27.697
512.00,27.898
513.00,28.097
514.00,28.224
515.00,28.402
516.00,28.509
517.00,28.516
518.00,28.679
519.00,28.734
520.00,28.802
521.00,28.949
522.00,29.048
523.00,29.098
524.00,29.205
525.00,29.333
526.00,29.443
527.00,29.502
528.00,29.577
529.00,29.761
530.00,29.932
531.00,30.039
532.00,30.101
533.00,30.223
534.00,30.306
535.00,30.431
536.00,30.522
537.00,30.587
538.00,30.649
539.00,30.708
540.00,30.794
541.00,30.874
542.00,30.974
543.00,31.024
544.00,31.048
545.00,31.136
546.00,31.225
547.00,31.363
548.00,31.467
549.00,31.500
550.00,31.600
551.00,31.706
552.00,31.755
553.00,31.803
554.00,31.911
555.00,31.940
556.00,31.992
557.00,32.054
558.00,32.120
559.00,32.236
560.00,32.295
561.00,32.388
562.00,32.432
563.00,32.437
564.00,32.548
565.00,32.551
566.00,32.574
567.00,32.738
568.00,32.649
569.00,32.704
570.00,32.804
571.00,32.856
572.00,32.866
573.00,32.864
574.00,32.934
575.00,32.935
576.00,32.971
577.00,33.022
578.00,33.120
579.00,33.208
580.00,33.213
581.00,33.379
582.00,33.469
583.00,33.449
584.00,33.556
585.00,33.622
586.00,33.646
587.00,33.765
588.00,33.788
589.00,33.751
590.00,33.731
591.00,33.861
592.00,33.901
593.00,33.955
594.00,34.053
595.00,34.132
596.00,34.191
597.00,34.263
598.00,34.329
599.00,34.319
600.00,34.361
601.00,34.424
602.00,34.410
603.00,34.458
604.00,34.510
605.00,34.605
606.00,34.613
607.00,34.669
608.00,34.856
609.00,34.893
610.00,34.810
611.00,34.874
612.00,34.867
613.00,34.997
614.00,35.035
615.00,35.054
616.00,35.148
617.00,35.203
618.00,35.259
619.00,35.324
620.00,35.363
621.00,35.448
622.00,35.547
623.00,35.608
624.00,35.664
625.00,35.752
626.00,35.816
627.00,35.879
628.00,35.890
629.00,35.953
630.00,36.006
631.00,36.095
632.00,36.079
633.00,36.316
634.00,36.437
635.00,36.521
636.00,36.600
637.00,36.629
638.00,36.663
639.00,36.846
640.00,36.894
641.00,36.923
642.00,37.040
643.00,37.100
644.00,37.169
645.00,37.289
646.00,37.424
647.00,37.498
648.00,37.597
649.00,37.609
650.00,37.668
651.00,37.901
652.00,37.961
653.00,37.988
654.00,38.063
655.00,38.305
656.00,38.534
657.00,38.463
658.00,38.553
659.00,38.698
660.00,38.658
661.00,38.843
662.00,38.936
663.00,39.030
664.00,39.306
665.00,39.429
666.00,39.385
667.00,39.521
668.00,39.601
669.00,39.842
670.00,40.028
671.00,39.948
672.00,40.088
673.00,40.229
674.00,40.197
675.00,40.353
676.00,40.564
677.00,40.742
678.00,40.660
679.00,41.137
680.00,40.973
681.00,41.172
682.00,41.241
683.00,41.266
684.00,41.443
685.00,41.551
686.00,41.508
687.00,41.689
688.00,41.851
689.00,41.824
690.00,42.129
691.00,42.306
692.00,42.173
693.00,42.168
694.00,42.392
695.00,42.603
696.00,42.723
697.00,42.685
698.00,42.781
699.00,43.068
700.00,43.196
701.00,43.140
702.00,43.353
703.00,43.624
704.00,43.657
705.00,43.574
706.00,43.639
707.00,43.660
708.00,43.887
709.00,44.430
710.00,44.149
711.00,44.124
712.00,44.303
713.00,44.459
714.00,44.508
715.00,44.582
716.00,44.572
717.00,44.798
718.00,45.033
719.00,44.939
720.00,45.068
721.00,49.431
722.00,49.480
723.00,49.618
724.00,49.596
725.00,49.673
726.00,49.655
727.00,49.724
728.00,49.814
729.00,49.841
730.00,49.969
731.00,50.012
732.00,50.049
733.00,50.121
734.00,50.099
735.00,50.140
736.00,50.223
737.00,50.367
738.00,50.377
739.00,50.418
740.00,50.427
741.00,50.492
742.00,50.554
743.00,50.602
744.00,50.582
745.00,50.639
746.00,50.709
747.00,50.663
748.00,50.693
749.00,50.760
750.00,50.817
751.00,50.768
752.00,50.826
753.00,50.861
754.00,50.812
755.00,50.909
756.00,50.980
757.00,50.972
758.00,50.985
759.00,50.979
760.00,51.070
761.00,51.062
762.00,51.109
763.00,51.172
764.00,51.120
765.00,51.171
766.00,51.255
767.00,51.231
768.00,51.380
769.00,51.279
770.00,51.417
771.00,51.368
772.00,51.464
773.00,51.374
774.00,51.522
775.00,51.511
776.00,51.410
777.00,51.502
778.00,51.452
779.00,51.492
780.00,51.538
781.00,51.663
782.00,51.610
783.00,51.654
784.00,51.590
785.00,51.533
786.00,51.577
787.00,51.620
788.00,51.615
789.00,51.623
790.00,51.633
791.00,51.643
792.00,51.569
793.00,51.591
794.00,51.554
795.00,51.655
796.00,51.637
797.00,51.471
798.00,51.689
799.00,51.605
800.00,51.596
801.00,51.643
802.00,51.619
803.00,51.573
804.00,51.542
805.00,51.654
806.00,51.597
807.00,51.646
808.00,51.567
809.00,51.513
810.00,51.555
811.00,51.529
812.00,51.558
813.00,51.492
814.00,51.524
815.00,51.559
816.00,51.526
817.00,51.470
818.00,51.509
819.00,51.465
820.00,51.423
821.00,51.450
822.00,51.436
823.00,51.556
824.00,51.545
825.00,51.191
826.00,51.397
827.00,51.476
828.00,51.416
829.00,51.447
830.00,51.413
831.00,53.595
832.00,53.605
833.00,53.547
834.00,53.559
835.00,53.549
836.00,53.528
837.00,53.480
838.00,53.454
839.00,53.489
840.00,53.447
841.00,53.453
842.00,53.423
843.00,53.423
844.00,53.423
845.00,53.371
846.00,53.391
847.00,53.387
848.00,53.348
849.00,53.299
850.00,53.321
851.00,53.214
852.00,53.279
853.00,53.155
854.00,53.193
855.00,53.145
856.00,53.166
857.00,53.129
858.00,53.091
859.00,53.081
860.00,53.108
861.00,53.100
862.00,53.032
863.00,53.050
864.00,53.002
865.00,53.014
866.00,53.089
867.00,53.062
868.00,52.977
869.00,53.005
870.00,52.972
871.00,52.983
872.00,52.981
873.00,52.986
874.00,52.972
875.00,52.924
876.00,52.989
877.00,52.956
878.00,52.911
879.00,52.803
880.00,53.045
881.00,52.782
882.00,52.872
883.00,52.871
884.00,52.824
885.00,52.813
886.00,52.812
887.00,52.780
888.00,52.766
889.00,52.745
890.00,52.724
891.00,52.722
892.00,52.717
893.00,52.656
894.00,52.732
895.00,52.642
896.00,52.635
897.00,52.595
898.00,52.588
899.00,52.565
900.00,52.561
901.00,52.558
902.00,52.590
903.00,52.524
904.00,52.543
905.00,52.519
906.00,52.510
907.00,52.496
908.00,52.439
909.00,52.434
910.00,52.409
911.00,52.417
912.00,52.396
913.00,52.327
914.00,52.322
915.00,52.327
916.00,52.296
917.00,52.313
918.00,52.269
919.00,52.231
920.00,52.211
921.00,52.205
922.00,52.213
923.00,52.174
924.00,52.139
925.00,52.156
926.00,52.124
927.00,52.121
928.00,52.098
929.00,52.081
930.00,52.051
931.00,52.070
932.00,52.008
933.00,52.039
934.00,52.060
935.00,51.976
936.00,51.960
937.00,51.947
938.00,51.945
939.00,51.922
940.00,51.895
941.00,51.888
942.00,51.865
943.00,51.842
944.00,51.821
945.00,51.806
946.00,51.786
947.00,51.777
948.00,51.744
949.00,51.691
950.00,51.769
951.00,51.691
952.00,51.674
953.00,51.643
954.00,51.623
955.00,51.567
956.00,51.584
957.00,51.536
958.00,51.560
959.00,51.483
960.00,51.484
961.00,51.501
962.00,51.484
963.00,51.422
964.00,51.421
965.00,51.417
966.00,51.383
967.00,51.408
968.00,51.380
969.00,51.421
970.00,51.397
971.00,51.413
972.00,51.382
973.00,51.400
974.00,51.425
975.00,51.401
976.00,51.391
977.00,51.389
978.00,51.419
979.00,51.364
980.00,51.402
981.00,51.390
982.00,51.364
983.00,51.378
984.00,51.348
985.00,51.360
986.00,51.323
987.00,51.345
988.00,51.330
989.00,51.315
990.00,51.308
991.00,51.298
992.00,51.323
993.00,51.266
994.00,51.254
995.00,51.300
996.00,51.260
997.00,51.244
998.00,51.207
999.00,51.235
1000.00,51.194
1001.00,51.192
1002.00,51.190
1003.00,51.171
1004.00,51.148
1005.00,51.106
1006.00,51.140
1007.00,51.103
1008.00,51.092
1009.00,51.069
1010.00,51.075
1011.00,51.051
1012.00,51.040
1013.00,51.050
1014.00,51.010
1015.00,51.021
1016.00,50.979
1017.00,50.987
1018.00,50.978
1019.00,50.938
1020.00,50.921
1021.00,50.901
1022.00,50.905
1023.00,50.844
1024.00,50.866
1025.00,50.846
1026.00,50.824
1027.00,50.798
1028.00,50.786
1029.00,50.785
1030.00,50.759
1031.00,50.756
1032.00,50.721
1033.00,50.731
1034.00,50.697
1035.00,50.664
1036.00,50.642
1037.00,50.617
1038.00,50.605
1039.00,50.572
1040.00,50.590
1041.00,50.567
1042.00,50.541
1043.00,50.525
1044.00,50.550
1045.00,50.532
1046.00,50.519
1047.00,50.539
1048.00,50.549
1049.00,50.564
1050.00,50.555
1051.00,50.602
1052.00,50.595
1053.00,50.589
1054.00,50.595
1055.00,50.620
1056.00,50.638
1057.00,50.623
1058.00,50.615
1059.00,50.606
1060.00,50.613
1061.00,50.591
1062.00,50.582
1063.00,50.586
1064.00,50.573
1065.00,50.563
1066.00,50.557
1067.00,50.545
1068.00,50.558
1069.00,50.521
1070.00,50.507
1071.00,50.503
1072.00,50.515
1073.00,50.505
1074.00,50.508
1075.00,50.464
1076.00,50.478
1077.00,50.460
1078.00,50.430
1079.00,50.429
1080.00,50.428
1081.00,50.426
1082.00,50.417
1083.00,50.409
1084.00,50.404
1085.00,50.414
1086.00,50.393
1087.00,50.391
1088.00,50.367
1089.00,50.357
1090.00,50.364
1091.00,50.371
1092.00,50.350
1093.00,50.337
1094.00,50.322
1095.00,50.300
1096.00,50.291
1097.00,50.275
1098.00,50.268
1099.00,50.263
1100.00,50.253
1101.00,50.247
1102.00,50.228
1103.00,50.227
1104.00,50.222
1105.00,50.213
1106.00,50.211
1107.00,50.207
1108.00,50.188
1109.00,50.182
1110.00,50.172
1111.00,50.165
1112.00,50.155
1113.00,50.152
1114.00,50.138
1115.00,50.142
1116.00,50.116
1117.00,50.103
1118.00,50.113
1119.00,50.110
1120.00,50.106
1121.00,50.102
1122.00,50.079
1123.00,50.086
1124.00,50.062
1125.00,50.064
1126.00,50.052
1127.00,50.045
1128.00,50.024
1129.00,50.020
1130.00,49.999
1131.00,49.989
1132.00,50.004
1133.00,49.946
1134.00,49.978
1135.00,49.978
1136.00,49.967
1137.00,49.977
1138.00,49.960
1139.00,49.972
1140.00,49.951
1141.00,49.944
1142.00,49.937
1143.00,49.958
1144.00,49.917
1145.00,49.923
1146.00,49.924
1147.00,49.931
1148.00,49.925
1149.00,49.917
1150.00,49.926
1151.00,49.926
1152.00,49.901
1153.00,49.906
1154.00,49.898
1155.00,49.881
1156.00,49.877
1157.00,49.883
1158.00,49.873
1159.00,49.867
1160.00,49.866
1161.00,49.881
1162.00,49.870
1163.00,49.863
1164.00,49.865
1165.00,49.864
1166.00,49.875
1167.00,49.870
1168.00,49.886
1169.00,49.869
1170.00,49.865
1171.00,49.855
1172.00,49.860
1173.00,49.864
1174.00,49.855
1175.00,49.849
1176.00,49.864
1177.00,49.836
1178.00,49.836
1179.00,49.836
1180.00,49.823
1181.00,49.849
1182.00,49.826
1183.00,49.810
1184.00,49.815
1185.00,49.826
1186.00,49.822
1187.00,49.831
1188.00,49.815
1189.00,49.811
1190.00,49.798
1191.00,49.812
1192.00,49.815
1193.00,49.803
1194.00,49.819
1195.00,49.796
1196.00,49.812
1197.00,49.803
1198.00,49.801
1199.00,49.788
1200.00,49.797
1201.00,49.809
1202.00,49.786
1203.00,49.789
1204.00,49.769
1205.00,49.788
1206.00,49.794
1207.00,49.770
1208.00,49.758
1209.00,49.777
1210.00,49.776
1211.00,49.761
1212.00,49.791
1213.00,49.772
1214.00,49.796
1215.00,49.760
1216.00,49.758
1217.00,49.784
1218.00,49.769
1219.00,49.794
1220.00,49.790
1221.00,49.776
1222.00,49.779
1223.00,49.780
1224.00,49.763
1225.00,49.773
1226.00,49.755
1227.00,49.753
1228.00,49.776
1229.00,49.768
1230.00,49.807
1231.00,49.796
1232.00,49.799
1233.00,49.804
1234.00,49.801
1235.00,49.791
1236.00,49.779
1237.00,49.786
1238.00,49.795
1239.00,49.823
1240.00,49.789
1241.00,49.804
1242.00,49.826
1243.00,49.826
1244.00,49.803
1245.00,49.824
1246.00,49.833
1247.00,49.819
1248.00,49.811
1249.00,49.827
1250.00,49.838
1251.00,49.824
1252.00,49.819
1253.00,49.829
1254.00,49.869
1255.00,49.826
1256.00,49.819
1257.00,49.811
1258.00,49.854
1259.00,49.844
1260.00,49.866
1261.00,49.875
1262.00,49.859
1263.00,49.859
1264.00,49.860
1265.00,49.857
1266.00,49.862
1267.00,49.880
1268.00,49.880
1269.00,49.879
1270.00,49.896
1271.00,49.902
1272.00,49.918
1273.00,49.917
1274.00,49.912
1275.00,49.929
1276.00,49.920
1277.00,49.921
1278.00,49.930
1279.00,49.926
1280.00,49.920
1281.00,49.927
1282.00,49.946
1283.00,49.946
1284.00,49.934
1285.00,49.913
1286.00,49.946
1287.00,49.930
1288.00,49.932
1289.00,49.927
1290.00,49.953
1291.00,49.953
1292.00,49.949
1293.00,49.960
1294.00,49.981
1295.00,49.982
1296.00,49.974
1297.00,50.003
1298.00,50.007
1299.00,50.000
1300.00,50.023
1301.00,50.004
1302.00,50.020
1303.00,50.022
1304.00,50.008
1305.00,50.030
1306.00,50.030
1307.00,50.040
1308.00,50.054
1309.00,50.059
1310.00,50.060
1311.00,50.049
1312.00,50.050
1313.00,50.057
1314.00,50.070
1315.00,50.087
1316.00,50.086
1317.00,50.103
1318.00,50.106
1319.00,50.118
1320.00,50.120
1321.00,50.270
1322.00,50.268
1323.00,50.245
1324.00,50.236
1325.00,50.243
1326.00,50.232
1327.00,50.267
1328.00,50.308
1329.00,50.183
1330.00,50.251
1331.00,50.246
1332.00,50.235
1333.00,50.254
1334.00,50.262
1335.00,50.297
1336.00,50.306
1337.00,50.343
1338.00,50.395
1339.00,50.443
1340.00,50.507
1341.00,50.574
1342.00,50.643
1343.00,50.681
1344.00,50.735
1345.00,50.802
1346.00,50.835
1347.00,50.843
1348.00,50.865
1349.00,50.882
1350.00,50.881
1351.00,50.887
1352.00,50.884
1353.00,50.941
1354.00,50.921
1355.00,50.857
1356.00,50.949
1357.00,50.948
1358.00,50.975
1359.00,51.005
1360.00,50.981
1361.00,50.888
1362.00,50.919
1363.00,50.978
1364.00,51.028
1365.00,50.948
1366.00,51.017
1367.00,50.926
1368.00,50.933
1369.00,50.970
1370.00,50.921
1371.00,50.973
1372.00,50.983
1373.00,50.955
1374.00,50.959
1375.00,50.940
1376.00,50.908
1377.00,50.941
1378.00,50.963
1379.00,50.958
1380.00,50.912
1381.00,51.018
1382.00,50.913
1383.00,50.933
1384.00,50.868
1385.00,50.851
1386.00,50.936
1387.00,50.926
1388.00,50.860
1389.00,50.902
1390.00,50.970
1391.00,50.914
1392.00,50.896
1393.00,50.894
1394.00,50.927
1395.00,50.886
1396.00,50.844
1397.00,50.857
1398.00,50.932
1399.00,50.904
1400.00,50.824
1401.00,50.874
1402.00,50.939
1403.00,50.895
1404.00,50.891
1405.00,50.992
1406.00,50.958
1407.00,50.964
1408.00,50.983
1409.00,50.946
1410.00,50.985
1411.00,50.967
1412.00,51.005
1413.00,51.007
1414.00,50.963
1415.00,50.985
1416.00,51.024
1417.00,51.047
1418.00,51.056
1419.00,51.018
1420.00,51.058
1421.00,51.093
1422.00,51.096
1423.00,51.093
1424.00,51.108
1425.00,51.113
1426.00,51.123
1427.00,51.148
1428.00,51.111
1429.00,51.149
1430.00,51.161
1431.00,51.181
1432.00,51.204
1433.00,51.206
1434.00,51.211
1435.00,51.271
1436.00,51.249
1437.00,51.246
1438.00,51.276
1439.00,51.295
1440.00,51.305
1441.00,51.311
1442.00,51.307
1443.00,51.348
1444.00,51.402
1445.00,51.364
1446.00,51.384
1447.00,51.397
1448.00,51.448
1449.00,51.442
1450.00,51.449
1451.00,51.459
1452.00,51.474
1453.00,51.476
1454.00,51.516
1455.00,51.529
1456.00,51.553
1457.00,51.561
1458.00,51.577
1459.00,51.595
1460.00,51.606
1461.00,51.594
1462.00,51.639
1463.00,51.626
1464.00,51.644
1465.00,51.666
1466.00,51.671
1467.00,51.672
1468.00,51.718
1469.00,51.700
1470.00,51.705
1471.00,51.732
1472.00,51.728
1473.00,51.761
1474.00,51.791
1475.00,51.793
1476.00,51.826
1477.00,51.790
1478.00,51.815
1479.00,51.847
1480.00,51.825
1481.00,51.837
1482.00,51.866
1483.00,51.873
1484.00,51.888
1485.00,51.907
1486.00,51.908
1487.00,51.936
1488.00,51.960
1489.00,51.943
1490.00,51.974
1491.00,51.971
1492.00,51.992
1493.00,51.977
1494.00,52.002
1495.00,52.013
1496.00,52.026
1497.00,52.013
1498.00,52.044
1499.00,52.052
1500.00,52.064
1501.00, 
1502.00, 
1503.00, 
1504.00, 
1505.00, 
1506.00, 
1507.00, 
1508.00, 
1509.00, 
1510.00, 
1511.00, 
1512.00, 
1513.00, 
1514.00, 
1515.00, 
1516.00, 
1517.00, 
1518.00, 
1519.00, 
1520.00, 
1521.00, 
1522.00, 
1523.00, 
1524.00, 
1525.00, 
1526.00, 
1527.00, 
1528.00, 
1529.00, 
1530.00, 
1531.00, 
1532.00, 
1533.00, 
1534.00, 
1535.00, 
1536.00, 
1537.00, 
1538.00, 
1539.00, 
1540.00, 
1541.00, 
1542.00, 
1543.00, 
1544.00, 
1545.00, 
1546.00, 
1547.00, 
1548.00, 
1549.00, 
1550.00, 
1551.00, 
1552.00, 
1553.00, 
1554.00, 
1555.00, 
1556.00, 
1557.00, 
1558.00, 
1559.00, 
1560.00, 
1561.00, 
1562.00, 
1563.00, 
1564.00, 
1565.00, 
1566.00, 
1567.00, 
1568.00, 
1569.00, 
1570.00, 
1571.00, 
1572.00, 
1573.00, 
1574.00, 
1575.00, 
1576.00, 
1577.00, 
1578.00, 
1579.00, 
1580.00, 
1581.00, 
1582.00, 
1583.00, 
1584.00, 
1585.00, 
1586.00, 
1587.00, 
1588.00, 
1589.00, 
1590.00, 
1591.00, 
1592.00, 
1593.00, 
1594.00, 
1595.00, 
1596.00, 
1597.00, 
1598.00, 
1599.00, 
1600.00, 
1601.00, 
1602.00, 
1603.00, 
1604.00, 
1605.00, 
1606.00, 
1607.00, 
1608.00, 
1609.00, 
1610.00, 
1611.00, 
1612.00, 
1613.00, 
1614.00, 
1615.00, 
1616.00, 
1617.00, 
1618.00, 
1619.00, 
1620.00, 
1621.00, 
1622.00, 
1623.00, 
1624.00, 
1625.00, 
1626.00, 
1627.00, 
1628.00, 
1629.00, 
1630.00, 
1631.00, 
1632.00, 
1633.00, 
1634.00, 
1635.00, 
1636.00, 
1637.00, 
1638.00, 
1639.00, 
1640.00, 
1641.00, 
1642.00, 
1643.00, 
1644.00, 
1645.00, 
1646.00, 
1647.00, 
1648.00, 
1649.00, 
1650.00, 
1651.00, 
1652.00, 
1653.00, 
1654.00, 
1655.00, 
1656.00, 
1657.00, 
1658.00, 
1659.00, 
1660.00, 
1661.00, 
1662.00, 
1663.00, 
1664.00, 
1665.00, 
1666.00, 
1667.00, 
1668.00, 
1669.00, 
1670.00, 
1671.00, 
1672.00, 
1673.00, 
1674.00, 
1675.00, 
1676.00, 
1677.00, 
1678.00, 
1679.00, 
1680.00, 
1681.00, 
1682.00, 
1683.00, 
1684.00, 
1685.00, 
1686.00, 
1687.00, 
1688.00, 
1689.00, 
1690.00, 
1691.00, 
1692.00, 
1693.00, 
1694.00, 
1695.00, 
1696.00, 
1697.00, 
1698.00, 
1699.00, 
1700.00, 
1701.00, 
1702.00, 
1703.00, 
1704.00, 
1705.00, 
1706.00, 
1707.00, 
1708.00, 
1709.00, 
1710.00, 
1711.00, 
1712.00, 
1713.00, 
1714.00, 
1715.00, 
1716.00, 
1717.00, 
1718.00, 
1719.00, 
1720.00, 
1721.00, 
1722.00, 
1723.00, 
1724.00, 
1725.00, 
1726.00, 
1727.00, 
1728.00, 
1729.00, 
1730.00, 
1731.00, 
1732.00, 
1733.00, 
1734.00, 
1735.00, 
1736.00, 
1737.00, 
1738.00, 
1739.00, 
1740.00, 
1741.00, 
1742.00, 
1743.00, 
1744.00, 
1745.00, 
1746.00, 
1747.00, 
1748.00, 
1749.00, 
1750.00, 
1751.00, 
1752.00, 
1753.00, 
1754.00, 
1755.00, 
1756.00, 
1757.00, 
1758.00, 
1759.00, 
1760.00, 
1761.00, 
1762.00, 
1763.00, 
1764.00, 
1765.00, 
1766.00, 
1767.00, 
1768.00, 
1769.00, 
1770.00, 
1771.00, 
1772.00, 
1773.00, 
1774.00, 
1775.00, 
1776.00, 
1777.00, 
1778.00, 
1779.00, 
1780.00, 
1781.00, 
1782.00, 
1783.00, 
1784.00, 
1785.00, 
1786.00, 
1787.00, 
1788.00, 
1789.00, 
1790.00, 
1791.00, 
1792.00, 
1793.00, 
1794.00, 
1795.00, 
1796.00, 
1797.00, 
1798.00, 
1799.00, 
1800.00, 
1801.00, 
1802.00, 
1803.00, 
1804.00, 
1805.00, 
1806.00, 
1807.00, 
1808.00, 
1809.00, 
1810.00, 
1811.00, 
1812.00, 
1813.00, 
1814.00, 
1815.00, 
1816.00, 
1817.00, 
1818.00, 
1819.00, 
1820.00, 
1821.00, 
1822.00, 
1823.00, 
1824.00, 
1825.00, 
1826.00, 
1827.00, 
1828.00, 
1829.00, 
1830.00, 
1831.00, 
1832.00, 
1833.00, 
1834.00, 
1835.00, 
1836.00, 
1837.00, 
1838.00, 
1839.00, 
1840.00, 
1841.00, 
1842.00, 
1843.00, 
1844.00, 
1845.00, 
1846.00, 
1847.00, 
1848.00, 
1849.00, 
1850.00, 
1851.00, 
1852.00, 
1853.00, 
1854.00, 
1855.00, 
1856.00, 
1857.00, 
1858.00, 
1859.00, 
1860.00, 
1861.00, 
1862.00, 
1863.00, 
1864.00, 
1865.00, 
1866.00, 
1867.00, 
1868.00, 
1869.00, 
1870.00, 
1871.00, 
1872.00, 
1873.00, 
1874.00, 
1875.00, 
1876.00, 
1877.00, 
1878.00, 
1879.00, 
1880.00, 
1881.00, 
1882.00, 
1883.00, 
1884.00, 
1885.00, 
1886.00, 
1887.00, 
1888.00, 
1889.00, 
1890.00, 
1891.00, 
1892.00, 
1893.00, 
1894.00, 
1895.00, 
1896.00, 
1897.00, 
1898.00, 
1899.00, 
1900.00, 
1901.00, 
1902.00, 
1903.00, 
1904.00, 
1905.00, 
1906.00, 
1907.00, 
1908.00, 
1909.00, 
1910.00, 
1911.00, 
1912.00, 
1913.00, 
1914.00, 
1915.00, 
1916.00, 
1917.00, 
1918.00, 
1919.00, 
1920.00, 
1921.00, 
1922.00, 
1923.00, 
1924.00, 
1925.00, 
1926.00, 
1927.00, 
1928.00, 
1929.00, 
1930.00, 
1931.00, 
1932.00, 
1933.00, 
1934.00, 
1935.00, 
1936.00, 
1937.00, 
1938.00, 
1939.00, 
1940.00, 
1941.00, 
1942.00, 
1943.00, 
1944.00, 
1945.00, 
1946.00, 
1947.00, 
1948.00, 
1949.00, 
1950.00, 
1951.00, 
1952.00, 
1953.00, 
1954.00, 
1955.00, 
1956.00, 
1957.00, 
1958.00, 
1959.00, 
1960.00, 
1961.00, 
1962.00, 
1963.00, 
1964.00, 
1965.00, 
1966.00, 
1967.00, 
1968.00, 
1969.00, 
1970.00, 
1971.00, 
1972.00, 
1973.00, 
1974.00, 
1975.00, 
1976.00, 
1977.00, 
1978.00, 
1979.00, 
1980.00, 
1981.00, 
1982.00, 
1983.00, 
1984.00, 
1985.00, 
1986.00, 
1987.00, 
1988.00, 
1989.00, 
1990.00, 
1991.00, 
1992.00, 
1993.00, 
1994.00, 
1995.00, 
1996.00, 
1997.00, 
1998.00, 
1999.00, 
2000.00, 
2001.00, 
2002.00, 
2003.00, 
2004.00, 
2005.00, 
2006.00, 
2007.00, 
2008.00, 
2009.00, 
2010.00, 
2011.00, 
2012.00, 
2013.00, 
2014.00, 
2015.00, 
2016.00, 
2017.00, 
2018.00, 
2019.00, 
2020.00, 
2021.00, 
2022.00, 
2023.00, 
2024.00, 
2025.00, 
2026.00, 
2027.00, 
2028.00, 
2029.00, 
2030.00, 
2031.00, 
2032.00, 
2033.00, 
2034.00, 
2035.00, 
2036.00, 
2037.00, 
2038.00, 
2039.00, 
2040.00, 
2041.00, 
2042.00, 
2043.00, 
2044.00, 
2045.00, 
2046.00, 
2047.00, 
2048.00, 
2049.00, 
2050.00, 
2051.00, 
2052.00, 
2053.00, 
2054.00, 
2055.00, 
2056.00, 
2057.00, 
2058.00, 
2059.00, 
2060.00, 
2061.00, 
2062.00, 
2063.00, 
2064.00, 
2065.00, 
2066.00, 
2067.00, 
2068.00, 
2069.00, 
2070.00, 
2071.00, 
2072.00, 
2073.00, 
2074.00, 
2075.00, 
2076.00, 
2077.00, 
2078.00, 
2079.00, 
2080.00, 
2081.00, 
2082.00, 
2083.00, 
2084.00, 
2085.00, 
2086.00, 
2087.00, 
2088.00, 
2089.00, 
2090.00, 
2091.00, 
2092.00, 
2093.00, 
2094.00, 
2095.00, 
2096.00, 
2097.00, 
2098.00, 
2099.00, 
2100.00, 
2101.00, 
2102.00, 
2103.00, 
2104.00, 
2105.00, 
2106.00, 
2107.00, 
2108.00, 
2109.00, 
2110.00, 
2111.00, 
2112.00, 
2113.00, 
2114.00, 
2115.00, 
2116.00, 
2117.00, 
2118.00, 
2119.00, 
2120.00, 
2121.00, 
2122.00, 
2123.00, 
2124.00, 
2125.00, 
2126.00, 
2127.00, 
2128.00, 
2129.00, 
2130.00, 
2131.00, 
2132.00, 
2133.00, 
2134.00, 
2135.00, 
2136.00, 
2137.00, 
2138.00, 
2139.00, 
2140.00, 
2141.00, 
2142.00, 
2143.00, 
2144.00, 
2145.00, 
2146.00, 
2147.00, 
2148.00, 
2149.00, 
2150.00, 
2151.00, 
2152.00, 
2153.00, 
2154.00, 
2155.00, 
2156.00, 
2157.00, 
2158.00, 
2159.00, 
2160.00, 
2161.00, 
2162.00, 
2163.00, 
2164.00, 
2165.00, 
2166.00, 
2167.00, 
2168.00, 
2169.00, 
2170.00, 
2171.00, 
2172.00, 
2173.00, 
2174.00, 
2175.00, 
2176.00, 
2177.00, 
2178.00, 
2179.00, 
2180.00, 
2181.00, 
2182.00, 
2183.00, 
2184.00, 
2185.00, 
2186.00, 
2187.00, 
2188.00, 
2189.00, 
2190.00, 
2191.00, 
2192.00, 
2193.00, 
2194.00, 
2195.00, 
2196.00, 
2197.00, 
2198.00, 
2199.00, 
2200.00, 
2201.00, 
2202.00, 
2203.00, 
2204.00, 
2205.00, 
2206.00, 
2207.00, 
2208.00, 
2209.00, 
2210.00, 
2211.00, 
2212.00, 
2213.00, 
2214.00, 
2215.00, 
2216.00, 
2217.00, 
2218.00, 
2219.00, 
2220.00, 
2221.00, 
2222.00, 
2223.00, 
2224.00, 
2225.00, 
2226.00, 
2227.00, 
2228.00, 
2229.00, 
2230.00, 
2231.00, 
2232.00, 
2233.00, 
2234.00, 
2235.00, 
2236.00, 
2237.00, 
2238.00, 
2239.00, 
2240.00, 
2241.00, 
2242.00, 
2243.00, 
2244.00, 
2245.00, 
2246.00, 
2247.00, 
2248.00, 
2249.00, 
2250.00, 
2251.00, 
2252.00, 
2253.00, 
2254.00, 
2255.00, 
2256.00, 
2257.00, 
2258.00, 
2259.00, 
2260.00, 
2261.00, 
2262.00, 
2263.00, 
2264.00, 
2265.00, 
2266.00, 
2267.00, 
2268.00, 
2269.00, 
2270.00, 
2271.00, 
2272.00, 
2273.00, 
2274.00, 
2275.00, 
2276.00, 
2277.00, 
2278.00, 
2279.00, 
2280.00, 
2281.00, 
2282.00, 
2283.00, 
2284.00, 
2285.00, 
2286.00, 
2287.00, 
2288.00, 
2289.00, 
2290.00, 
2291.00, 
2292.00, 
2293.00, 
2294.00, 
2295.00, 
2296.00, 
2297.00, 
2298.00, 
2299.00, 
2300.00, 
2301.00, 
2302.00, 
2303.00, 
2304.00, 
2305.00, 
2306.00, 
2307.00, 
2308.00, 
2309.00, 
2310.00, 
2311.00, 
2312.00, 
2313.00, 
2314.00, 
2315.00, 
2316.00, 
2317.00, 
2318.00, 
2319.00, 
2320.00, 
2321.00, 
2322.00, 
2323.00, 
2324.00, 
2325.00, 
2326.00, 
2327.00, 
2328.00, 
2329.00, 
2330.00, 
2331.00, 
2332.00, 
2333.00, 
2334.00, 
2335.00, 
2336.00, 
2337.00, 
2338.00, 
2339.00, 
2340.00, 
2341.00, 
2342.00, 
2343.00, 
2344.00, 
2345.00, 
2346.00, 
2347.00, 
2348.00, 
2349.00, 
2350.00, 
2351.00, 
2352.00, 
2353.00, 
2354.00, 
2355.00, 
2356.00, 
2357.00, 
2358.00, 
2359.00, 
2360.00, 
2361.00, 
2362.00, 
2363.00, 
2364.00, 
2365.00, 
2366.00, 
2367.00, 
2368.00, 
2369.00, 
2370.00, 
2371.00, 
2372.00, 
2373.00, 
2374.00, 
2375.00, 
2376.00, 
2377.00, 
2378.00, 
2379.00, 
2380.00, 
2381.00, 
2382.00, 
2383.00, 
2384.00, 
2385.00, 
2386.00, 
2387.00, 
2388.00, 
2389.00, 
2390.00, 
2391.00, 
2392.00, 
2393.00, 
2394.00, 
2395.00, 
2396.00, 
2397.00, 
2398.00, 
2399.00, 
2400.00, 
2401.00, 
2402.00, 
2403.00, 
2404.00, 
2405.00, 
2406.00, 
2407.00, 
2408.00, 
2409.00, 
2410.00, 
2411.00, 
2412.00, 
2413.00, 
2414.00, 
2415.00, 
2416.00, 
2417.00, 
2418.00, 
2419.00, 
2420.00, 
2421.00, 
2422.00, 
2423.00, 
2424.00, 
2425.00, 
2426.00, 
2427.00, 
2428.00, 
2429.00, 
2430.00, 
2431.00, 
2432.00, 
2433.00, 
2434.00, 
2435.00, 
2436.00, 
2437.00, 
2438.00, 
2439.00, 
2440.00, 
2441.00, 
2442.00, 
2443.00, 
2444.00, 
2445.00, 
2446.00, 
2447.00, 
2448.00, 
2449.00, 
2450.00, 
2451.00, 
2452.00, 
2453.00, 
2454.00, 
2455.00, 
2456.00, 
2457.00, 
2458.00, 
2459.00, 
2460.00, 
2461.00, 
2462.00, 
2463.00, 
2464.00, 
2465.00, 
2466.00, 
2467.00, 
2468.00, 
2469.00, 
2470.00, 
2471.00, 
2472.00, 
2473.00, 
2474.00, 
2475.00, 
2476.00, 
2477.00, 
2478.00, 
2479.00, 
2480.00, 
2481.00, 
2482.00, 
2483.00, 
2484.00, 
2485.00, 
2486.00, 
2487.00, 
2488.00, 
2489.00, 
2490.00, 
2491.00, 
2492.00, 
2493.00, 
2494.00, 
2495.00, 
2496.00, 
2497.00, 
2498.00, 
2499.00, 
2500.00, 
2501.00, 
2502.00, 
2503.00, 
2504.00, 
2505.00, 
2506.00, 
2507.00, 
2508.00, 
2509.00, 
2510.00, 
2511.00, 
2512.00, 
2513.00, 
2514.00, 
2515.00, 
2516.00, 
2517.00, 
2518.00, 
2519.00, 
2520.00, 
2521.00, 
2522.00, 
2523.00, 
2524.00, 
2525.00, 
2526.00, 
2527.00, 
2528.00, 
2529.00, 
2530.00, 
2531.00, 
2532.00, 
2533.00, 
2534.00, 
2535.00, 
2536.00, 
2537.00, 
2538.00, 
2539.00, 
2540.00, 
2541.00, 
2542.00, 
2543.00, 
2544.00, 
2545.00, 
2546.00, 
2547.00, 
2548.00, 
2549.00, 
2550.00, 
2551.00, 
2552.00, 
2553.00, 
2554.00, 
2555.00, 
2556.00, 
2557.00, 
2558.00, 
2559.00, 
2560.00, 
2561.00, 
2562.00, 
2563.00, 
2564.00, 
2565.00, 
2566.00, 
2567.00, 
2568.00, 
2569.00, 
2570.00, 
2571.00, 
2572.00, 
2573.00, 
2574.00, 
2575.00, 
2576.00, 
2577.00, 
2578.00, 
2579.00, 
2580.00, 
2581.00, 
2582.00, 
2583.00, 
2584.00, 
2585.00, 
2586.00, 
2587.00, 
2588.00, 
2589.00, 
2590.00, 
2591.00, 
2592.00, 
2593.00, 
2594.00, 
2595.00, 
2596.00, 
2597.00, 
2598.00, 
2599.00, 
2600.00, 
