"1cP1 - RawData"
"Wavelength nm.","T%"
200.00,0.003
201.00,0.002
202.00,0.004
203.00,0.003
204.00,0.001
205.00,0.004
206.00,-0.000
207.00,-0.002
208.00,-0.001
209.00,-0.000
210.00,-0.002
211.00,0.001
212.00,0.004
213.00,-0.003
214.00,0.000
215.00,0.000
216.00,0.002
217.00,-0.001
218.00,0.003
219.00,0.001
220.00,-0.001
221.00,0.000
222.00,0.002
223.00,-0.002
224.00,0.001
225.00,-0.001
226.00,-0.000
227.00,0.001
228.00,0.000
229.00,-0.000
230.00,0.001
231.00,0.004
232.00,-0.001
233.00,0.000
234.00,-0.001
235.00,-0.001
236.00,0.000
237.00,0.001
238.00,0.000
239.00,0.001
240.00,-0.001
241.00,0.001
242.00,0.002
243.00,0.001
244.00,0.002
245.00,-0.001
246.00,-0.000
247.00,-0.001
248.00,-0.000
249.00,0.002
250.00,0.001
251.00,-0.001
252.00,0.000
253.00,-0.001
254.00,-0.000
255.00,0.001
256.00,0.002
257.00,0.001
258.00,-0.002
259.00,0.001
260.00,0.002
261.00,0.002
262.00,-0.001
263.00,0.000
264.00,0.002
265.00,-0.002
266.00,0.000
267.00,-0.002
268.00,-0.001
269.00,0.000
270.00,0.002
271.00,-0.001
272.00,0.001
273.00,-0.001
274.00,-0.001
275.00,0.001
276.00,0.001
277.00,0.000
278.00,0.001
279.00,0.000
280.00,-0.000
281.00,0.001
282.00,0.001
283.00,0.002
284.00,0.001
285.00,-0.002
286.00,-0.001
287.00,0.001
288.00,0.001
289.00,-0.001
290.00,0.001
291.00,-0.002
292.00,-0.001
293.00,-0.001
294.00,0.000
295.00,0.000
296.00,-0.001
297.00,0.001
298.00,0.000
299.00,-0.001
300.00,0.000
301.00,0.002
302.00,-0.000
303.00,-0.000
304.00,0.000
305.00,-0.000
306.00,0.001
307.00,0.003
308.00,0.006
309.00,0.011
310.00,0.018
311.00,0.026
312.00,0.043
313.00,0.062
314.00,0.100
315.00,0.140
316.00,0.199
317.00,0.286
318.00,0.391
319.00,0.535
320.00,0.708
321.00,0.912
322.00,1.166
323.00,1.488
324.00,1.829
325.00,2.202
326.00,2.620
327.00,3.140
328.00,3.655
329.00,4.209
330.00,4.821
331.00,5.448
332.00,6.132
333.00,6.848
334.00,7.553
335.00,8.324
336.00,9.047
337.00,9.853
338.00,10.614
339.00,11.348
340.00,12.089
341.00,12.829
342.00,13.549
343.00,14.221
344.00,14.842
345.00,15.542
346.00,16.120
347.00,16.649
348.00,17.253
349.00,17.750
350.00,18.268
351.00,18.723
352.00,19.144
353.00,19.555
354.00,19.968
355.00,20.304
356.00,20.616
357.00,20.914
358.00,21.232
359.00,21.544
360.00,21.802
361.00,21.997
362.00,22.204
363.00,22.455
364.00,22.542
365.00,22.693
366.00,22.851
367.00,22.953
368.00,23.015
369.00,23.069
370.00,23.176
371.00,23.190
372.00,23.161
373.00,23.163
374.00,23.151
375.00,23.143
376.00,23.022
377.00,22.963
378.00,22.878
379.00,22.769
380.00,22.767
381.00,22.744
382.00,22.764
383.00,22.818
384.00,22.855
385.00,22.940
386.00,22.959
387.00,23.069
388.00,23.176
389.00,23.183
390.00,23.304
391.00,23.327
392.00,23.375
393.00,23.369
394.00,23.434
395.00,23.478
396.00,23.478
397.00,23.516
398.00,23.505
399.00,23.524
400.00,23.513
401.00,23.520
402.00,23.500
403.00,23.501
404.00,23.519
405.00,23.471
406.00,23.469
407.00,23.428
408.00,23.437
409.00,23.366
410.00,23.292
411.00,23.308
412.00,23.219
413.00,23.269
414.00,23.263
415.00,23.216
416.00,23.278
417.00,23.264
418.00,23.268
419.00,23.381
420.00,23.398
421.00,23.435
422.00,23.453
423.00,23.476
424.00,23.552
425.00,23.579
426.00,23.510
427.00,23.602
428.00,23.620
429.00,23.654
430.00,23.698
431.00,23.787
432.00,23.805
433.00,23.843
434.00,23.908
435.00,23.978
436.00,23.998
437.00,24.049
438.00,24.155
439.00,24.199
440.00,24.251
441.00,24.333
442.00,24.403
443.00,24.458
444.00,24.580
445.00,24.660
446.00,24.714
447.00,24.822
448.00,24.940
449.00,25.017
450.00,25.080
451.00,25.207
452.00,25.259
453.00,25.431
454.00,25.506
455.00,25.605
456.00,25.771
457.00,25.862
458.00,25.941
459.00,26.068
460.00,26.204
461.00,26.347
462.00,26.417
463.00,26.572
464.00,26.707
465.00,26.806
466.00,26.954
467.00,27.105
468.00,27.150
469.00,27.247
470.00,27.347
471.00,27.398
472.00,27.549
473.00,27.616
474.00,27.744
475.00,27.853
476.00,27.973
477.00,28.073
478.00,28.209
479.00,28.368
480.00,28.490
481.00,28.603
482.00,28.758
483.00,28.873
484.00,29.057
485.00,29.165
486.00,29.328
487.00,29.473
488.00,29.571
489.00,29.759
490.00,29.896
491.00,30.026
492.00,30.243
493.00,30.375
494.00,30.328
495.00,30.522
496.00,30.672
497.00,30.756
498.00,30.872
499.00,31.048
500.00,31.155
501.00,31.258
502.00,31.388
503.00,31.517
504.00,31.573
505.00,31.717
506.00,31.842
507.00,31.919
508.00,32.084
509.00,32.227
510.00,32.298
511.00,32.405
512.00,32.576
513.00,32.718
514.00,32.808
515.00,32.955
516.00,33.033
517.00,33.170
518.00,33.323
519.00,33.312
520.00,33.317
521.00,33.502
522.00,33.629
523.00,33.644
524.00,33.750
525.00,33.888
526.00,33.972
527.00,34.007
528.00,34.141
529.00,34.274
530.00,34.406
531.00,34.541
532.00,34.596
533.00,34.735
534.00,34.812
535.00,34.894
536.00,34.970
537.00,35.062
538.00,35.134
539.00,35.264
540.00,35.251
541.00,35.287
542.00,35.363
543.00,35.394
544.00,35.511
545.00,35.552
546.00,35.609
547.00,35.730
548.00,35.797
549.00,35.855
550.00,35.972
551.00,36.053
552.00,36.071
553.00,36.164
554.00,36.277
555.00,36.312
556.00,36.394
557.00,36.418
558.00,36.472
559.00,36.562
560.00,36.621
561.00,36.657
562.00,36.715
563.00,36.827
564.00,36.842
565.00,36.855
566.00,36.838
567.00,36.906
568.00,36.895
569.00,36.991
570.00,37.076
571.00,37.075
572.00,37.121
573.00,37.095
574.00,37.125
575.00,37.178
576.00,37.171
577.00,37.261
578.00,37.368
579.00,37.437
580.00,37.506
581.00,37.631
582.00,37.683
583.00,37.694
584.00,37.792
585.00,37.845
586.00,37.937
587.00,38.063
588.00,38.025
589.00,38.002
590.00,37.967
591.00,37.974
592.00,37.986
593.00,37.975
594.00,38.104
595.00,38.234
596.00,38.211
597.00,38.252
598.00,38.502
599.00,38.444
600.00,38.539
601.00,38.538
602.00,38.500
603.00,38.612
604.00,38.645
605.00,38.715
606.00,38.743
607.00,38.783
608.00,38.902
609.00,38.972
610.00,38.840
611.00,38.918
612.00,38.947
613.00,39.027
614.00,39.055
615.00,39.167
616.00,39.289
617.00,39.196
618.00,39.271
619.00,39.357
620.00,39.314
621.00,39.394
622.00,39.478
623.00,39.574
624.00,39.614
625.00,39.632
626.00,39.678
627.00,39.756
628.00,39.747
629.00,39.777
630.00,39.839
631.00,39.945
632.00,40.009
633.00,40.110
634.00,40.191
635.00,40.192
636.00,40.303
637.00,40.334
638.00,40.316
639.00,40.453
640.00,40.514
641.00,40.477
642.00,40.576
643.00,40.646
644.00,40.722
645.00,40.778
646.00,40.945
647.00,41.025
648.00,41.030
649.00,40.977
650.00,41.114
651.00,41.333
652.00,41.336
653.00,41.254
654.00,41.371
655.00,41.572
656.00,41.805
657.00,41.695
658.00,41.671
659.00,41.715
660.00,41.849
661.00,41.857
662.00,41.927
663.00,42.089
664.00,42.301
665.00,42.514
666.00,42.431
667.00,42.517
668.00,42.527
669.00,42.723
670.00,42.922
671.00,42.875
672.00,42.982
673.00,42.968
674.00,42.991
675.00,43.101
676.00,43.283
677.00,43.407
678.00,43.164
679.00,43.482
680.00,43.468
681.00,43.668
682.00,43.648
683.00,43.490
684.00,43.610
685.00,43.955
686.00,44.088
687.00,43.992
688.00,44.061
689.00,44.032
690.00,44.357
691.00,44.578
692.00,44.356
693.00,44.388
694.00,44.575
695.00,44.683
696.00,44.716
697.00,44.725
698.00,44.707
699.00,45.103
700.00,45.112
701.00,45.077
702.00,45.243
703.00,45.324
704.00,45.335
705.00,45.275
706.00,45.466
707.00,45.462
708.00,45.381
709.00,45.698
710.00,46.045
711.00,45.651
712.00,45.687
713.00,45.851
714.00,45.972
715.00,45.937
716.00,45.834
717.00,46.044
718.00,46.244
719.00,46.172
720.00,46.191
721.00,50.733
722.00,50.734
723.00,50.748
724.00,50.793
725.00,50.789
726.00,50.806
727.00,50.867
728.00,50.857
729.00,50.850
730.00,50.941
731.00,50.909
732.00,50.923
733.00,51.014
734.00,50.956
735.00,51.050
736.00,51.015
737.00,51.063
738.00,51.098
739.00,51.180
740.00,51.149
741.00,51.129
742.00,51.189
743.00,51.196
744.00,51.206
745.00,51.218
746.00,51.182
747.00,51.204
748.00,51.144
749.00,51.148
750.00,51.184
751.00,51.109
752.00,51.066
753.00,51.155
754.00,51.170
755.00,51.122
756.00,51.173
757.00,51.223
758.00,51.191
759.00,51.184
760.00,51.202
761.00,51.199
762.00,51.224
763.00,51.238
764.00,51.158
765.00,51.225
766.00,51.128
767.00,51.189
768.00,51.227
769.00,51.195
770.00,51.292
771.00,51.100
772.00,51.301
773.00,51.259
774.00,51.274
775.00,51.298
776.00,51.259
777.00,51.227
778.00,51.191
779.00,51.349
780.00,51.126
781.00,51.193
782.00,51.257
783.00,51.132
784.00,51.249
785.00,51.146
786.00,51.253
787.00,51.191
788.00,51.219
789.00,51.163
790.00,51.022
791.00,51.230
792.00,51.163
793.00,51.134
794.00,51.141
795.00,51.097
796.00,51.053
797.00,50.987
798.00,51.017
799.00,51.027
800.00,50.951
801.00,51.003
802.00,51.030
803.00,51.012
804.00,50.856
805.00,50.934
806.00,50.861
807.00,50.900
808.00,50.827
809.00,50.856
810.00,50.776
811.00,50.874
812.00,50.865
813.00,50.724
814.00,50.765
815.00,50.716
816.00,50.723
817.00,50.745
818.00,50.618
819.00,50.686
820.00,50.643
821.00,50.642
822.00,50.657
823.00,50.589
824.00,50.664
825.00,50.571
826.00,50.550
827.00,50.658
828.00,50.592
829.00,50.431
830.00,50.583
831.00,52.874
832.00,52.856
833.00,52.801
834.00,52.802
835.00,52.741
836.00,52.743
837.00,52.723
838.00,52.708
839.00,52.688
840.00,52.662
841.00,52.657
842.00,52.596
843.00,52.618
844.00,52.590
845.00,52.533
846.00,52.526
847.00,52.505
848.00,52.491
849.00,52.412
850.00,52.417
851.00,52.337
852.00,52.372
853.00,52.312
854.00,52.300
855.00,52.207
856.00,52.261
857.00,52.234
858.00,52.139
859.00,52.146
860.00,52.159
861.00,52.173
862.00,52.064
863.00,52.136
864.00,52.044
865.00,52.089
866.00,52.044
867.00,52.068
868.00,52.047
869.00,52.006
870.00,52.032
871.00,51.993
872.00,52.012
873.00,51.973
874.00,52.015
875.00,51.923
876.00,52.022
877.00,51.918
878.00,51.947
879.00,51.874
880.00,51.895
881.00,51.879
882.00,51.894
883.00,51.821
884.00,51.813
885.00,51.768
886.00,51.742
887.00,51.767
888.00,51.721
889.00,51.684
890.00,51.679
891.00,51.635
892.00,51.654
893.00,51.602
894.00,51.604
895.00,51.589
896.00,51.562
897.00,51.523
898.00,51.519
899.00,51.533
900.00,51.495
901.00,51.460
902.00,51.502
903.00,51.474
904.00,51.432
905.00,51.404
906.00,51.412
907.00,51.381
908.00,51.325
909.00,51.325
910.00,51.364
911.00,51.288
912.00,51.279
913.00,51.223
914.00,51.204
915.00,51.185
916.00,51.181
917.00,51.140
918.00,51.156
919.00,51.130
920.00,51.078
921.00,51.098
922.00,51.067
923.00,51.047
924.00,51.001
925.00,51.013
926.00,50.947
927.00,51.010
928.00,50.954
929.00,50.978
930.00,50.934
931.00,50.934
932.00,50.897
933.00,50.905
934.00,50.855
935.00,50.837
936.00,50.792
937.00,50.797
938.00,50.757
939.00,50.757
940.00,50.727
941.00,50.724
942.00,50.700
943.00,50.676
944.00,50.639
945.00,50.660
946.00,50.651
947.00,50.612
948.00,50.597
949.00,50.593
950.00,50.560
951.00,50.536
952.00,50.511
953.00,50.466
954.00,50.442
955.00,50.392
956.00,50.402
957.00,50.344
958.00,50.378
959.00,50.267
960.00,50.329
961.00,50.310
962.00,50.321
963.00,50.283
964.00,50.274
965.00,50.265
966.00,50.243
967.00,50.255
968.00,50.210
969.00,50.234
970.00,50.207
971.00,50.235
972.00,50.194
973.00,50.223
974.00,50.261
975.00,50.220
976.00,50.237
977.00,50.216
978.00,50.261
979.00,50.213
980.00,50.223
981.00,50.220
982.00,50.175
983.00,50.187
984.00,50.161
985.00,50.194
986.00,50.141
987.00,50.160
988.00,50.142
989.00,50.155
990.00,50.134
991.00,50.110
992.00,50.146
993.00,50.096
994.00,50.079
995.00,50.064
996.00,50.066
997.00,50.040
998.00,50.016
999.00,50.039
1000.00,49.992
1001.00,49.998
1002.00,49.969
1003.00,49.981
1004.00,49.954
1005.00,49.933
1006.00,49.946
1007.00,49.929
1008.00,49.927
1009.00,49.906
1010.00,49.904
1011.00,49.893
1012.00,49.858
1013.00,49.852
1014.00,49.833
1015.00,49.836
1016.00,49.793
1017.00,49.799
1018.00,49.827
1019.00,49.744
1020.00,49.760
1021.00,49.739
1022.00,49.744
1023.00,49.686
1024.00,49.691
1025.00,49.667
1026.00,49.645
1027.00,49.626
1028.00,49.631
1029.00,49.623
1030.00,49.574
1031.00,49.593
1032.00,49.541
1033.00,49.553
1034.00,49.521
1035.00,49.475
1036.00,49.464
1037.00,49.450
1038.00,49.445
1039.00,49.420
1040.00,49.426
1041.00,49.384
1042.00,49.379
1043.00,49.354
1044.00,49.380
1045.00,49.355
1046.00,49.339
1047.00,49.376
1048.00,49.371
1049.00,49.375
1050.00,49.375
1051.00,49.424
1052.00,49.411
1053.00,49.428
1054.00,49.430
1055.00,49.465
1056.00,49.466
1057.00,49.455
1058.00,49.441
1059.00,49.438
1060.00,49.450
1061.00,49.433
1062.00,49.415
1063.00,49.424
1064.00,49.456
1065.00,49.406
1066.00,49.410
1067.00,49.404
1068.00,49.424
1069.00,49.383
1070.00,49.376
1071.00,49.357
1072.00,49.366
1073.00,49.343
1074.00,49.336
1075.00,49.339
1076.00,49.349
1077.00,49.325
1078.00,49.316
1079.00,49.326
1080.00,49.299
1081.00,49.281
1082.00,49.269
1083.00,49.262
1084.00,49.257
1085.00,49.275
1086.00,49.267
1087.00,49.272
1088.00,49.260
1089.00,49.247
1090.00,49.232
1091.00,49.231
1092.00,49.219
1093.00,49.200
1094.00,49.187
1095.00,49.162
1096.00,49.139
1097.00,49.153
1098.00,49.141
1099.00,49.152
1100.00,49.128
1101.00,49.117
1102.00,49.101
1103.00,49.112
1104.00,49.106
1105.00,49.098
1106.00,49.075
1107.00,49.070
1108.00,49.057
1109.00,49.058
1110.00,49.050
1111.00,49.047
1112.00,49.029
1113.00,49.028
1114.00,49.018
1115.00,49.025
1116.00,49.012
1117.00,48.999
1118.00,48.992
1119.00,48.991
1120.00,48.983
1121.00,48.976
1122.00,48.950
1123.00,48.949
1124.00,48.945
1125.00,48.942
1126.00,48.940
1127.00,48.954
1128.00,48.932
1129.00,48.919
1130.00,48.917
1131.00,48.917
1132.00,48.920
1133.00,48.909
1134.00,48.894
1135.00,48.869
1136.00,48.875
1137.00,48.876
1138.00,48.871
1139.00,48.899
1140.00,48.883
1141.00,48.862
1142.00,48.842
1143.00,48.876
1144.00,48.844
1145.00,48.839
1146.00,48.835
1147.00,48.825
1148.00,48.832
1149.00,48.847
1150.00,48.842
1151.00,48.842
1152.00,48.853
1153.00,48.854
1154.00,48.837
1155.00,48.844
1156.00,48.801
1157.00,48.820
1158.00,48.810
1159.00,48.795
1160.00,48.797
1161.00,48.806
1162.00,48.800
1163.00,48.795
1164.00,48.797
1165.00,48.807
1166.00,48.803
1167.00,48.778
1168.00,48.806
1169.00,48.798
1170.00,48.800
1171.00,48.791
1172.00,48.783
1173.00,48.775
1174.00,48.791
1175.00,48.786
1176.00,48.800
1177.00,48.786
1178.00,48.793
1179.00,48.812
1180.00,48.785
1181.00,48.800
1182.00,48.787
1183.00,48.786
1184.00,48.766
1185.00,48.774
1186.00,48.762
1187.00,48.765
1188.00,48.769
1189.00,48.761
1190.00,48.774
1191.00,48.769
1192.00,48.782
1193.00,48.764
1194.00,48.781
1195.00,48.759
1196.00,48.791
1197.00,48.786
1198.00,48.779
1199.00,48.770
1200.00,48.776
1201.00,48.798
1202.00,48.776
1203.00,48.771
1204.00,48.769
1205.00,48.795
1206.00,48.772
1207.00,48.781
1208.00,48.773
1209.00,48.784
1210.00,48.782
1211.00,48.767
1212.00,48.799
1213.00,48.765
1214.00,48.801
1215.00,48.768
1216.00,48.775
1217.00,48.785
1218.00,48.778
1219.00,48.792
1220.00,48.764
1221.00,48.803
1222.00,48.772
1223.00,48.808
1224.00,48.792
1225.00,48.783
1226.00,48.814
1227.00,48.789
1228.00,48.797
1229.00,48.810
1230.00,48.821
1231.00,48.819
1232.00,48.858
1233.00,48.830
1234.00,48.832
1235.00,48.832
1236.00,48.828
1237.00,48.857
1238.00,48.845
1239.00,48.860
1240.00,48.847
1241.00,48.857
1242.00,48.876
1243.00,48.870
1244.00,48.846
1245.00,48.884
1246.00,48.886
1247.00,48.887
1248.00,48.870
1249.00,48.887
1250.00,48.896
1251.00,48.884
1252.00,48.906
1253.00,48.886
1254.00,48.925
1255.00,48.904
1256.00,48.894
1257.00,48.901
1258.00,48.930
1259.00,48.929
1260.00,48.953
1261.00,48.945
1262.00,48.951
1263.00,48.922
1264.00,48.950
1265.00,48.954
1266.00,48.947
1267.00,48.959
1268.00,48.964
1269.00,48.962
1270.00,48.980
1271.00,48.978
1272.00,48.983
1273.00,49.006
1274.00,48.998
1275.00,49.016
1276.00,49.001
1277.00,49.006
1278.00,49.019
1279.00,49.022
1280.00,49.014
1281.00,49.026
1282.00,49.039
1283.00,49.015
1284.00,49.037
1285.00,49.043
1286.00,49.064
1287.00,49.052
1288.00,49.065
1289.00,49.062
1290.00,49.089
1291.00,49.080
1292.00,49.098
1293.00,49.097
1294.00,49.107
1295.00,49.114
1296.00,49.127
1297.00,49.137
1298.00,49.168
1299.00,49.134
1300.00,49.150
1301.00,49.134
1302.00,49.165
1303.00,49.182
1304.00,49.156
1305.00,49.185
1306.00,49.190
1307.00,49.199
1308.00,49.186
1309.00,49.194
1310.00,49.186
1311.00,49.173
1312.00,49.198
1313.00,49.219
1314.00,49.232
1315.00,49.247
1316.00,49.237
1317.00,49.281
1318.00,49.272
1319.00,49.278
1320.00,49.284
1321.00,49.484
1322.00,49.452
1323.00,49.448
1324.00,49.435
1325.00,49.419
1326.00,49.447
1327.00,49.415
1328.00,49.430
1329.00,49.421
1330.00,49.432
1331.00,49.434
1332.00,49.423
1333.00,49.528
1334.00,49.454
1335.00,49.509
1336.00,49.556
1337.00,49.529
1338.00,49.601
1339.00,49.660
1340.00,49.724
1341.00,49.776
1342.00,49.851
1343.00,49.892
1344.00,49.942
1345.00,50.018
1346.00,50.043
1347.00,50.072
1348.00,50.088
1349.00,50.123
1350.00,50.140
1351.00,50.154
1352.00,50.154
1353.00,50.158
1354.00,50.175
1355.00,50.112
1356.00,50.211
1357.00,50.191
1358.00,50.206
1359.00,50.237
1360.00,50.228
1361.00,50.239
1362.00,50.188
1363.00,50.311
1364.00,50.272
1365.00,50.215
1366.00,50.298
1367.00,50.218
1368.00,50.203
1369.00,50.242
1370.00,50.223
1371.00,50.162
1372.00,50.215
1373.00,50.227
1374.00,50.234
1375.00,50.213
1376.00,50.204
1377.00,50.211
1378.00,50.309
1379.00,50.229
1380.00,50.270
1381.00,50.210
1382.00,50.117
1383.00,50.237
1384.00,50.206
1385.00,50.293
1386.00,50.233
1387.00,50.195
1388.00,50.188
1389.00,50.282
1390.00,50.261
1391.00,50.210
1392.00,50.182
1393.00,50.168
1394.00,50.181
1395.00,50.231
1396.00,50.077
1397.00,50.252
1398.00,49.634
1399.00,50.155
1400.00,50.172
1401.00,50.193
1402.00,50.224
1403.00,50.206
1404.00,50.233
1405.00,50.251
1406.00,50.268
1407.00,50.255
1408.00,50.290
1409.00,50.228
1410.00,50.300
1411.00,50.326
1412.00,50.432
1413.00,50.263
1414.00,50.288
1415.00,50.313
1416.00,50.354
1417.00,50.367
1418.00,50.331
1419.00,50.383
1420.00,50.400
1421.00,50.430
1422.00,50.432
1423.00,50.452
1424.00,50.460
1425.00,50.491
1426.00,50.482
1427.00,50.502
1428.00,50.515
1429.00,50.527
1430.00,50.538
1431.00,50.568
1432.00,50.578
1433.00,50.591
1434.00,50.593
1435.00,50.674
1436.00,50.669
1437.00,50.643
1438.00,50.670
1439.00,50.696
1440.00,50.710
1441.00,50.719
1442.00,50.725
1443.00,50.753
1444.00,50.813
1445.00,50.734
1446.00,50.795
1447.00,50.826
1448.00,50.872
1449.00,50.874
1450.00,50.881
1451.00,50.889
1452.00,50.931
1453.00,50.934
1454.00,50.954
1455.00,50.976
1456.00,50.983
1457.00,50.971
1458.00,50.998
1459.00,51.016
1460.00,51.034
1461.00,51.029
1462.00,51.078
1463.00,51.080
1464.00,51.109
1465.00,51.115
1466.00,51.128
1467.00,51.151
1468.00,51.216
1469.00,51.179
1470.00,51.207
1471.00,51.231
1472.00,51.243
1473.00,51.265
1474.00,51.285
1475.00,51.301
1476.00,51.313
1477.00,51.304
1478.00,51.331
1479.00,51.346
1480.00,51.349
1481.00,51.347
1482.00,51.384
1483.00,51.398
1484.00,51.416
1485.00,51.421
1486.00,51.431
1487.00,51.447
1488.00,51.478
1489.00,51.477
1490.00,51.505
1491.00,51.506
1492.00,51.539
1493.00,51.512
1494.00,51.569
1495.00,51.545
1496.00,51.574
1497.00,51.573
1498.00,51.582
1499.00,51.593
1500.00,51.616
1501.00, 
1502.00, 
1503.00, 
1504.00, 
1505.00, 
1506.00, 
1507.00, 
1508.00, 
1509.00, 
1510.00, 
1511.00, 
1512.00, 
1513.00, 
1514.00, 
1515.00, 
1516.00, 
1517.00, 
1518.00, 
1519.00, 
1520.00, 
1521.00, 
1522.00, 
1523.00, 
1524.00, 
1525.00, 
1526.00, 
1527.00, 
1528.00, 
1529.00, 
1530.00, 
1531.00, 
1532.00, 
1533.00, 
1534.00, 
1535.00, 
1536.00, 
1537.00, 
1538.00, 
1539.00, 
1540.00, 
1541.00, 
1542.00, 
1543.00, 
1544.00, 
1545.00, 
1546.00, 
1547.00, 
1548.00, 
1549.00, 
1550.00, 
1551.00, 
1552.00, 
1553.00, 
1554.00, 
1555.00, 
1556.00, 
1557.00, 
1558.00, 
1559.00, 
1560.00, 
1561.00, 
1562.00, 
1563.00, 
1564.00, 
1565.00, 
1566.00, 
1567.00, 
1568.00, 
1569.00, 
1570.00, 
1571.00, 
1572.00, 
1573.00, 
1574.00, 
1575.00, 
1576.00, 
1577.00, 
1578.00, 
1579.00, 
1580.00, 
1581.00, 
1582.00, 
1583.00, 
1584.00, 
1585.00, 
1586.00, 
1587.00, 
1588.00, 
1589.00, 
1590.00, 
1591.00, 
1592.00, 
1593.00, 
1594.00, 
1595.00, 
1596.00, 
1597.00, 
1598.00, 
1599.00, 
1600.00, 
1601.00, 
1602.00, 
1603.00, 
1604.00, 
1605.00, 
1606.00, 
1607.00, 
1608.00, 
1609.00, 
1610.00, 
1611.00, 
1612.00, 
1613.00, 
1614.00, 
1615.00, 
1616.00, 
1617.00, 
1618.00, 
1619.00, 
1620.00, 
1621.00, 
1622.00, 
1623.00, 
1624.00, 
1625.00, 
1626.00, 
1627.00, 
1628.00, 
1629.00, 
1630.00, 
1631.00, 
1632.00, 
1633.00, 
1634.00, 
1635.00, 
1636.00, 
1637.00, 
1638.00, 
1639.00, 
1640.00, 
1641.00, 
1642.00, 
1643.00, 
1644.00, 
1645.00, 
1646.00, 
1647.00, 
1648.00, 
1649.00, 
1650.00, 
1651.00, 
1652.00, 
1653.00, 
1654.00, 
1655.00, 
1656.00, 
1657.00, 
1658.00, 
1659.00, 
1660.00, 
1661.00, 
1662.00, 
1663.00, 
1664.00, 
1665.00, 
1666.00, 
1667.00, 
1668.00, 
1669.00, 
1670.00, 
1671.00, 
1672.00, 
1673.00, 
1674.00, 
1675.00, 
1676.00, 
1677.00, 
1678.00, 
1679.00, 
1680.00, 
1681.00, 
1682.00, 
1683.00, 
1684.00, 
1685.00, 
1686.00, 
1687.00, 
1688.00, 
1689.00, 
1690.00, 
1691.00, 
1692.00, 
1693.00, 
1694.00, 
1695.00, 
1696.00, 
1697.00, 
1698.00, 
1699.00, 
1700.00, 
1701.00, 
1702.00, 
1703.00, 
1704.00, 
1705.00, 
1706.00, 
1707.00, 
1708.00, 
1709.00, 
1710.00, 
1711.00, 
1712.00, 
1713.00, 
1714.00, 
1715.00, 
1716.00, 
1717.00, 
1718.00, 
1719.00, 
1720.00, 
1721.00, 
1722.00, 
1723.00, 
1724.00, 
1725.00, 
1726.00, 
1727.00, 
1728.00, 
1729.00, 
1730.00, 
1731.00, 
1732.00, 
1733.00, 
1734.00, 
1735.00, 
1736.00, 
1737.00, 
1738.00, 
1739.00, 
1740.00, 
1741.00, 
1742.00, 
1743.00, 
1744.00, 
1745.00, 
1746.00, 
1747.00, 
1748.00, 
1749.00, 
1750.00, 
1751.00, 
1752.00, 
1753.00, 
1754.00, 
1755.00, 
1756.00, 
1757.00, 
1758.00, 
1759.00, 
1760.00, 
1761.00, 
1762.00, 
1763.00, 
1764.00, 
1765.00, 
1766.00, 
1767.00, 
1768.00, 
1769.00, 
1770.00, 
1771.00, 
1772.00, 
1773.00, 
1774.00, 
1775.00, 
1776.00, 
1777.00, 
1778.00, 
1779.00, 
1780.00, 
1781.00, 
1782.00, 
1783.00, 
1784.00, 
1785.00, 
1786.00, 
1787.00, 
1788.00, 
1789.00, 
1790.00, 
1791.00, 
1792.00, 
1793.00, 
1794.00, 
1795.00, 
1796.00, 
1797.00, 
1798.00, 
1799.00, 
1800.00, 
1801.00, 
1802.00, 
1803.00, 
1804.00, 
1805.00, 
1806.00, 
1807.00, 
1808.00, 
1809.00, 
1810.00, 
1811.00, 
1812.00, 
1813.00, 
1814.00, 
1815.00, 
1816.00, 
1817.00, 
1818.00, 
1819.00, 
1820.00, 
1821.00, 
1822.00, 
1823.00, 
1824.00, 
1825.00, 
1826.00, 
1827.00, 
1828.00, 
1829.00, 
1830.00, 
1831.00, 
1832.00, 
1833.00, 
1834.00, 
1835.00, 
1836.00, 
1837.00, 
1838.00, 
1839.00, 
1840.00, 
1841.00, 
1842.00, 
1843.00, 
1844.00, 
1845.00, 
1846.00, 
1847.00, 
1848.00, 
1849.00, 
1850.00, 
1851.00, 
1852.00, 
1853.00, 
1854.00, 
1855.00, 
1856.00, 
1857.00, 
1858.00, 
1859.00, 
1860.00, 
1861.00, 
1862.00, 
1863.00, 
1864.00, 
1865.00, 
1866.00, 
1867.00, 
1868.00, 
1869.00, 
1870.00, 
1871.00, 
1872.00, 
1873.00, 
1874.00, 
1875.00, 
1876.00, 
1877.00, 
1878.00, 
1879.00, 
1880.00, 
1881.00, 
1882.00, 
1883.00, 
1884.00, 
1885.00, 
1886.00, 
1887.00, 
1888.00, 
1889.00, 
1890.00, 
1891.00, 
1892.00, 
1893.00, 
1894.00, 
1895.00, 
1896.00, 
1897.00, 
1898.00, 
1899.00, 
1900.00, 
1901.00, 
1902.00, 
1903.00, 
1904.00, 
1905.00, 
1906.00, 
1907.00, 
1908.00, 
1909.00, 
1910.00, 
1911.00, 
1912.00, 
1913.00, 
1914.00, 
1915.00, 
1916.00, 
1917.00, 
1918.00, 
1919.00, 
1920.00, 
1921.00, 
1922.00, 
1923.00, 
1924.00, 
1925.00, 
1926.00, 
1927.00, 
1928.00, 
1929.00, 
1930.00, 
1931.00, 
1932.00, 
1933.00, 
1934.00, 
1935.00, 
1936.00, 
1937.00, 
1938.00, 
1939.00, 
1940.00, 
1941.00, 
1942.00, 
1943.00, 
1944.00, 
1945.00, 
1946.00, 
1947.00, 
1948.00, 
1949.00, 
1950.00, 
1951.00, 
1952.00, 
1953.00, 
1954.00, 
1955.00, 
1956.00, 
1957.00, 
1958.00, 
1959.00, 
1960.00, 
1961.00, 
1962.00, 
1963.00, 
1964.00, 
1965.00, 
1966.00, 
1967.00, 
1968.00, 
1969.00, 
1970.00, 
1971.00, 
1972.00, 
1973.00, 
1974.00, 
1975.00, 
1976.00, 
1977.00, 
1978.00, 
1979.00, 
1980.00, 
1981.00, 
1982.00, 
1983.00, 
1984.00, 
1985.00, 
1986.00, 
1987.00, 
1988.00, 
1989.00, 
1990.00, 
1991.00, 
1992.00, 
1993.00, 
1994.00, 
1995.00, 
1996.00, 
1997.00, 
1998.00, 
1999.00, 
2000.00, 
2001.00, 
2002.00, 
2003.00, 
2004.00, 
2005.00, 
2006.00, 
2007.00, 
2008.00, 
2009.00, 
2010.00, 
2011.00, 
2012.00, 
2013.00, 
2014.00, 
2015.00, 
2016.00, 
2017.00, 
2018.00, 
2019.00, 
2020.00, 
2021.00, 
2022.00, 
2023.00, 
2024.00, 
2025.00, 
2026.00, 
2027.00, 
2028.00, 
2029.00, 
2030.00, 
2031.00, 
2032.00, 
2033.00, 
2034.00, 
2035.00, 
2036.00, 
2037.00, 
2038.00, 
2039.00, 
2040.00, 
2041.00, 
2042.00, 
2043.00, 
2044.00, 
2045.00, 
2046.00, 
2047.00, 
2048.00, 
2049.00, 
2050.00, 
2051.00, 
2052.00, 
2053.00, 
2054.00, 
2055.00, 
2056.00, 
2057.00, 
2058.00, 
2059.00, 
2060.00, 
2061.00, 
2062.00, 
2063.00, 
2064.00, 
2065.00, 
2066.00, 
2067.00, 
2068.00, 
2069.00, 
2070.00, 
2071.00, 
2072.00, 
2073.00, 
2074.00, 
2075.00, 
2076.00, 
2077.00, 
2078.00, 
2079.00, 
2080.00, 
2081.00, 
2082.00, 
2083.00, 
2084.00, 
2085.00, 
2086.00, 
2087.00, 
2088.00, 
2089.00, 
2090.00, 
2091.00, 
2092.00, 
2093.00, 
2094.00, 
2095.00, 
2096.00, 
2097.00, 
2098.00, 
2099.00, 
2100.00, 
2101.00, 
2102.00, 
2103.00, 
2104.00, 
2105.00, 
2106.00, 
2107.00, 
2108.00, 
2109.00, 
2110.00, 
2111.00, 
2112.00, 
2113.00, 
2114.00, 
2115.00, 
2116.00, 
2117.00, 
2118.00, 
2119.00, 
2120.00, 
2121.00, 
2122.00, 
2123.00, 
2124.00, 
2125.00, 
2126.00, 
2127.00, 
2128.00, 
2129.00, 
2130.00, 
2131.00, 
2132.00, 
2133.00, 
2134.00, 
2135.00, 
2136.00, 
2137.00, 
2138.00, 
2139.00, 
2140.00, 
2141.00, 
2142.00, 
2143.00, 
2144.00, 
2145.00, 
2146.00, 
2147.00, 
2148.00, 
2149.00, 
2150.00, 
2151.00, 
2152.00, 
2153.00, 
2154.00, 
2155.00, 
2156.00, 
2157.00, 
2158.00, 
2159.00, 
2160.00, 
2161.00, 
2162.00, 
2163.00, 
2164.00, 
2165.00, 
2166.00, 
2167.00, 
2168.00, 
2169.00, 
2170.00, 
2171.00, 
2172.00, 
2173.00, 
2174.00, 
2175.00, 
2176.00, 
2177.00, 
2178.00, 
2179.00, 
2180.00, 
2181.00, 
2182.00, 
2183.00, 
2184.00, 
2185.00, 
2186.00, 
2187.00, 
2188.00, 
2189.00, 
2190.00, 
2191.00, 
2192.00, 
2193.00, 
2194.00, 
2195.00, 
2196.00, 
2197.00, 
2198.00, 
2199.00, 
2200.00, 
2201.00, 
2202.00, 
2203.00, 
2204.00, 
2205.00, 
2206.00, 
2207.00, 
2208.00, 
2209.00, 
2210.00, 
2211.00, 
2212.00, 
2213.00, 
2214.00, 
2215.00, 
2216.00, 
2217.00, 
2218.00, 
2219.00, 
2220.00, 
2221.00, 
2222.00, 
2223.00, 
2224.00, 
2225.00, 
2226.00, 
2227.00, 
2228.00, 
2229.00, 
2230.00, 
2231.00, 
2232.00, 
2233.00, 
2234.00, 
2235.00, 
2236.00, 
2237.00, 
2238.00, 
2239.00, 
2240.00, 
2241.00, 
2242.00, 
2243.00, 
2244.00, 
2245.00, 
2246.00, 
2247.00, 
2248.00, 
2249.00, 
2250.00, 
2251.00, 
2252.00, 
2253.00, 
2254.00, 
2255.00, 
2256.00, 
2257.00, 
2258.00, 
2259.00, 
2260.00, 
2261.00, 
2262.00, 
2263.00, 
2264.00, 
2265.00, 
2266.00, 
2267.00, 
2268.00, 
2269.00, 
2270.00, 
2271.00, 
2272.00, 
2273.00, 
2274.00, 
2275.00, 
2276.00, 
2277.00, 
2278.00, 
2279.00, 
2280.00, 
2281.00, 
2282.00, 
2283.00, 
2284.00, 
2285.00, 
2286.00, 
2287.00, 
2288.00, 
2289.00, 
2290.00, 
2291.00, 
2292.00, 
2293.00, 
2294.00, 
2295.00, 
2296.00, 
2297.00, 
2298.00, 
2299.00, 
2300.00, 
2301.00, 
2302.00, 
2303.00, 
2304.00, 
2305.00, 
2306.00, 
2307.00, 
2308.00, 
2309.00, 
2310.00, 
2311.00, 
2312.00, 
2313.00, 
2314.00, 
2315.00, 
2316.00, 
2317.00, 
2318.00, 
2319.00, 
2320.00, 
2321.00, 
2322.00, 
2323.00, 
2324.00, 
2325.00, 
2326.00, 
2327.00, 
2328.00, 
2329.00, 
2330.00, 
2331.00, 
2332.00, 
2333.00, 
2334.00, 
2335.00, 
2336.00, 
2337.00, 
2338.00, 
2339.00, 
2340.00, 
2341.00, 
2342.00, 
2343.00, 
2344.00, 
2345.00, 
2346.00, 
2347.00, 
2348.00, 
2349.00, 
2350.00, 
2351.00, 
2352.00, 
2353.00, 
2354.00, 
2355.00, 
2356.00, 
2357.00, 
2358.00, 
2359.00, 
2360.00, 
2361.00, 
2362.00, 
2363.00, 
2364.00, 
2365.00, 
2366.00, 
2367.00, 
2368.00, 
2369.00, 
2370.00, 
2371.00, 
2372.00, 
2373.00, 
2374.00, 
2375.00, 
2376.00, 
2377.00, 
2378.00, 
2379.00, 
2380.00, 
2381.00, 
2382.00, 
2383.00, 
2384.00, 
2385.00, 
2386.00, 
2387.00, 
2388.00, 
2389.00, 
2390.00, 
2391.00, 
2392.00, 
2393.00, 
2394.00, 
2395.00, 
2396.00, 
2397.00, 
2398.00, 
2399.00, 
2400.00, 
2401.00, 
2402.00, 
2403.00, 
2404.00, 
2405.00, 
2406.00, 
2407.00, 
2408.00, 
2409.00, 
2410.00, 
2411.00, 
2412.00, 
2413.00, 
2414.00, 
2415.00, 
2416.00, 
2417.00, 
2418.00, 
2419.00, 
2420.00, 
2421.00, 
2422.00, 
2423.00, 
2424.00, 
2425.00, 
2426.00, 
2427.00, 
2428.00, 
2429.00, 
2430.00, 
2431.00, 
2432.00, 
2433.00, 
2434.00, 
2435.00, 
2436.00, 
2437.00, 
2438.00, 
2439.00, 
2440.00, 
2441.00, 
2442.00, 
2443.00, 
2444.00, 
2445.00, 
2446.00, 
2447.00, 
2448.00, 
2449.00, 
2450.00, 
2451.00, 
2452.00, 
2453.00, 
2454.00, 
2455.00, 
2456.00, 
2457.00, 
2458.00, 
2459.00, 
2460.00, 
2461.00, 
2462.00, 
2463.00, 
2464.00, 
2465.00, 
2466.00, 
2467.00, 
2468.00, 
2469.00, 
2470.00, 
2471.00, 
2472.00, 
2473.00, 
2474.00, 
2475.00, 
2476.00, 
2477.00, 
2478.00, 
2479.00, 
2480.00, 
2481.00, 
2482.00, 
2483.00, 
2484.00, 
2485.00, 
2486.00, 
2487.00, 
2488.00, 
2489.00, 
2490.00, 
2491.00, 
2492.00, 
2493.00, 
2494.00, 
2495.00, 
2496.00, 
2497.00, 
2498.00, 
2499.00, 
2500.00, 
2501.00, 
2502.00, 
2503.00, 
2504.00, 
2505.00, 
2506.00, 
2507.00, 
2508.00, 
2509.00, 
2510.00, 
2511.00, 
2512.00, 
2513.00, 
2514.00, 
2515.00, 
2516.00, 
2517.00, 
2518.00, 
2519.00, 
2520.00, 
2521.00, 
2522.00, 
2523.00, 
2524.00, 
2525.00, 
2526.00, 
2527.00, 
2528.00, 
2529.00, 
2530.00, 
2531.00, 
2532.00, 
2533.00, 
2534.00, 
2535.00, 
2536.00, 
2537.00, 
2538.00, 
2539.00, 
2540.00, 
2541.00, 
2542.00, 
2543.00, 
2544.00, 
2545.00, 
2546.00, 
2547.00, 
2548.00, 
2549.00, 
2550.00, 
2551.00, 
2552.00, 
2553.00, 
2554.00, 
2555.00, 
2556.00, 
2557.00, 
2558.00, 
2559.00, 
2560.00, 
2561.00, 
2562.00, 
2563.00, 
2564.00, 
2565.00, 
2566.00, 
2567.00, 
2568.00, 
2569.00, 
2570.00, 
2571.00, 
2572.00, 
2573.00, 
2574.00, 
2575.00, 
2576.00, 
2577.00, 
2578.00, 
2579.00, 
2580.00, 
2581.00, 
2582.00, 
2583.00, 
2584.00, 
2585.00, 
2586.00, 
2587.00, 
2588.00, 
2589.00, 
2590.00, 
2591.00, 
2592.00, 
2593.00, 
2594.00, 
2595.00, 
2596.00, 
2597.00, 
2598.00, 
2599.00, 
2600.00, 
