"1cP2 - RawData"
"Wavelength nm.","T%"
200.00,-0.001
201.00,0.001
202.00,0.001
203.00,0.002
204.00,-0.001
205.00,0.001
206.00,0.002
207.00,0.002
208.00,0.001
209.00,-0.000
210.00,-0.001
211.00,-0.000
212.00,0.000
213.00,-0.000
214.00,-0.000
215.00,-0.001
216.00,0.001
217.00,0.002
218.00,-0.001
219.00,0.002
220.00,0.001
221.00,0.001
222.00,-0.001
223.00,-0.002
224.00,-0.001
225.00,-0.001
226.00,-0.001
227.00,0.002
228.00,-0.002
229.00,-0.001
230.00,0.002
231.00,0.002
232.00,-0.001
233.00,0.001
234.00,0.000
235.00,0.001
236.00,-0.001
237.00,0.001
238.00,0.001
239.00,-0.001
240.00,0.001
241.00,0.001
242.00,0.000
243.00,0.001
244.00,0.000
245.00,-0.001
246.00,-0.000
247.00,0.002
248.00,0.002
249.00,-0.001
250.00,0.001
251.00,-0.002
252.00,-0.000
253.00,0.002
254.00,-0.000
255.00,0.001
256.00,0.000
257.00,-0.001
258.00,-0.001
259.00,0.000
260.00,0.001
261.00,0.001
262.00,0.001
263.00,0.002
264.00,0.000
265.00,-0.000
266.00,0.000
267.00,-0.001
268.00,-0.001
269.00,-0.000
270.00,-0.000
271.00,-0.000
272.00,0.001
273.00,0.002
274.00,-0.001
275.00,0.000
276.00,0.001
277.00,-0.000
278.00,-0.000
279.00,-0.001
280.00,0.001
281.00,-0.000
282.00,-0.001
283.00,0.001
284.00,-0.002
285.00,-0.001
286.00,0.001
287.00,-0.002
288.00,0.002
289.00,0.000
290.00,-0.000
291.00,-0.000
292.00,0.001
293.00,0.001
294.00,0.000
295.00,0.000
296.00,0.001
297.00,0.002
298.00,0.001
299.00,0.001
300.00,-0.000
301.00,0.001
302.00,0.000
303.00,0.001
304.00,0.001
305.00,0.001
306.00,0.001
307.00,0.003
308.00,0.009
309.00,0.017
310.00,0.028
311.00,0.044
312.00,0.063
313.00,0.099
314.00,0.146
315.00,0.218
316.00,0.316
317.00,0.455
318.00,0.616
319.00,0.833
320.00,1.111
321.00,1.433
322.00,1.830
323.00,2.332
324.00,2.883
325.00,3.493
326.00,4.150
327.00,4.974
328.00,5.809
329.00,6.672
330.00,7.693
331.00,8.708
332.00,9.801
333.00,10.941
334.00,12.068
335.00,13.320
336.00,14.540
337.00,15.795
338.00,17.038
339.00,18.244
340.00,19.516
341.00,20.719
342.00,21.861
343.00,22.978
344.00,24.071
345.00,25.258
346.00,26.197
347.00,27.122
348.00,28.102
349.00,28.888
350.00,29.817
351.00,30.560
352.00,31.320
353.00,31.941
354.00,32.700
355.00,33.381
356.00,33.978
357.00,34.490
358.00,35.025
359.00,35.657
360.00,36.124
361.00,36.442
362.00,36.864
363.00,37.316
364.00,37.525
365.00,37.798
366.00,38.116
367.00,38.348
368.00,38.564
369.00,38.745
370.00,38.935
371.00,39.060
372.00,39.067
373.00,39.151
374.00,39.194
375.00,39.156
376.00,39.061
377.00,39.039
378.00,38.903
379.00,38.769
380.00,38.813
381.00,38.916
382.00,38.967
383.00,39.127
384.00,39.227
385.00,39.410
386.00,39.530
387.00,39.773
388.00,40.050
389.00,40.068
390.00,40.249
391.00,40.162
392.00,40.411
393.00,40.491
394.00,40.702
395.00,40.888
396.00,40.908
397.00,40.979
398.00,40.987
399.00,41.055
400.00,41.126
401.00,41.122
402.00,41.164
403.00,41.199
404.00,41.226
405.00,41.205
406.00,41.235
407.00,41.020
408.00,41.132
409.00,40.968
410.00,40.972
411.00,40.988
412.00,40.896
413.00,40.942
414.00,40.890
415.00,40.772
416.00,40.956
417.00,40.828
418.00,40.884
419.00,41.065
420.00,41.092
421.00,41.108
422.00,41.074
423.00,41.103
424.00,41.202
425.00,41.230
426.00,41.070
427.00,41.162
428.00,41.157
429.00,41.163
430.00,41.192
431.00,41.248
432.00,41.286
433.00,41.274
434.00,41.365
435.00,41.386
436.00,41.371
437.00,41.409
438.00,41.456
439.00,41.484
440.00,41.518
441.00,41.536
442.00,41.608
443.00,41.609
444.00,41.735
445.00,41.771
446.00,41.852
447.00,41.889
448.00,41.969
449.00,42.055
450.00,42.116
451.00,42.157
452.00,42.223
453.00,42.348
454.00,42.291
455.00,42.419
456.00,42.561
457.00,42.605
458.00,42.560
459.00,42.695
460.00,42.740
461.00,42.926
462.00,42.916
463.00,43.025
464.00,43.133
465.00,43.213
466.00,43.301
467.00,43.418
468.00,43.376
469.00,43.429
470.00,43.471
471.00,43.463
472.00,43.556
473.00,43.526
474.00,43.597
475.00,43.630
476.00,43.654
477.00,43.710
478.00,43.757
479.00,43.917
480.00,44.008
481.00,44.008
482.00,44.118
483.00,44.166
484.00,44.371
485.00,44.385
486.00,44.546
487.00,44.627
488.00,44.563
489.00,44.808
490.00,44.858
491.00,44.979
492.00,45.154
493.00,45.229
494.00,45.080
495.00,45.224
496.00,45.272
497.00,45.337
498.00,45.379
499.00,45.521
500.00,45.599
501.00,45.581
502.00,45.672
503.00,45.748
504.00,45.687
505.00,45.773
506.00,45.866
507.00,45.919
508.00,45.958
509.00,46.075
510.00,46.116
511.00,46.122
512.00,46.292
513.00,46.480
514.00,46.366
515.00,46.448
516.00,46.563
517.00,46.509
518.00,46.771
519.00,46.718
520.00,46.711
521.00,46.775
522.00,46.910
523.00,46.809
524.00,46.906
525.00,46.970
526.00,47.012
527.00,47.045
528.00,47.106
529.00,47.243
530.00,47.351
531.00,47.456
532.00,47.439
533.00,47.547
534.00,47.544
535.00,47.623
536.00,47.674
537.00,47.737
538.00,47.746
539.00,47.845
540.00,47.787
541.00,47.789
542.00,47.794
543.00,47.809
544.00,47.906
545.00,47.911
546.00,47.918
547.00,48.090
548.00,48.127
549.00,48.124
550.00,48.211
551.00,48.271
552.00,48.260
553.00,48.257
554.00,48.345
555.00,48.373
556.00,48.438
557.00,48.389
558.00,48.372
559.00,48.390
560.00,48.613
561.00,48.534
562.00,48.655
563.00,48.660
564.00,48.640
565.00,48.658
566.00,48.638
567.00,48.657
568.00,48.680
569.00,48.690
570.00,48.752
571.00,48.726
572.00,48.724
573.00,48.652
574.00,48.718
575.00,48.704
576.00,48.653
577.00,48.729
578.00,48.831
579.00,48.864
580.00,48.898
581.00,49.037
582.00,49.062
583.00,49.075
584.00,49.182
585.00,49.159
586.00,49.259
587.00,49.428
588.00,49.241
589.00,49.161
590.00,49.262
591.00,49.307
592.00,49.205
593.00,49.182
594.00,49.258
595.00,49.326
596.00,49.400
597.00,49.474
598.00,49.533
599.00,49.437
600.00,49.474
601.00,49.493
602.00,49.389
603.00,49.474
604.00,49.490
605.00,49.521
606.00,49.567
607.00,49.571
608.00,49.659
609.00,49.752
610.00,49.525
611.00,49.513
612.00,49.598
613.00,49.645
614.00,49.604
615.00,49.624
616.00,49.785
617.00,49.675
618.00,49.701
619.00,49.747
620.00,49.725
621.00,49.645
622.00,49.733
623.00,49.866
624.00,49.760
625.00,49.743
626.00,49.731
627.00,49.728
628.00,49.783
629.00,49.738
630.00,49.682
631.00,49.675
632.00,49.799
633.00,49.883
634.00,49.903
635.00,49.936
636.00,49.958
637.00,49.965
638.00,49.932
639.00,50.019
640.00,49.968
641.00,49.904
642.00,49.948
643.00,50.022
644.00,49.985
645.00,49.993
646.00,50.142
647.00,50.184
648.00,50.098
649.00,49.981
650.00,50.020
651.00,50.190
652.00,50.146
653.00,50.034
654.00,50.084
655.00,50.212
656.00,50.452
657.00,50.116
658.00,50.149
659.00,50.327
660.00,49.684
661.00,50.214
662.00,50.214
663.00,50.314
664.00,50.455
665.00,50.636
666.00,50.468
667.00,50.486
668.00,50.378
669.00,50.589
670.00,50.748
671.00,50.471
672.00,50.664
673.00,50.511
674.00,50.447
675.00,50.532
676.00,50.704
677.00,50.762
678.00,50.548
679.00,50.643
680.00,50.679
681.00,50.677
682.00,50.612
683.00,50.480
684.00,50.670
685.00,50.667
686.00,50.524
687.00,50.654
688.00,50.632
689.00,50.491
690.00,50.740
691.00,50.947
692.00,50.599
693.00,50.565
694.00,50.768
695.00,50.771
696.00,50.643
697.00,50.595
698.00,50.505
699.00,50.873
700.00,50.826
701.00,50.535
702.00,50.698
703.00,50.893
704.00,50.902
705.00,50.678
706.00,50.796
707.00,50.712
708.00,50.564
709.00,50.840
710.00,51.276
711.00,50.725
712.00,50.720
713.00,50.800
714.00,50.740
715.00,50.710
716.00,50.575
717.00,50.822
718.00,50.832
719.00,50.661
720.00,50.734
721.00,55.536
722.00,55.424
723.00,55.445
724.00,55.389
725.00,55.289
726.00,55.286
727.00,55.248
728.00,55.144
729.00,55.164
730.00,55.110
731.00,55.006
732.00,55.007
733.00,55.062
734.00,54.946
735.00,54.909
736.00,54.899
737.00,54.886
738.00,54.836
739.00,54.791
740.00,54.786
741.00,54.809
742.00,54.739
743.00,54.618
744.00,54.595
745.00,54.592
746.00,54.538
747.00,54.490
748.00,54.407
749.00,54.373
750.00,54.367
751.00,54.201
752.00,54.223
753.00,54.153
754.00,54.127
755.00,54.019
756.00,53.975
757.00,54.033
758.00,53.978
759.00,53.945
760.00,53.896
761.00,53.880
762.00,53.865
763.00,53.831
764.00,53.739
765.00,53.718
766.00,53.677
767.00,53.703
768.00,53.617
769.00,53.546
770.00,53.649
771.00,53.559
772.00,53.569
773.00,53.478
774.00,53.523
775.00,53.447
776.00,53.410
777.00,53.437
778.00,53.299
779.00,53.366
780.00,53.276
781.00,53.232
782.00,53.243
783.00,53.201
784.00,53.176
785.00,53.113
786.00,53.154
787.00,53.054
788.00,53.094
789.00,52.964
790.00,52.911
791.00,52.962
792.00,52.907
793.00,52.857
794.00,52.777
795.00,52.827
796.00,52.730
797.00,52.596
798.00,52.656
799.00,52.592
800.00,52.523
801.00,52.538
802.00,52.527
803.00,52.458
804.00,52.321
805.00,52.395
806.00,52.318
807.00,52.370
808.00,52.261
809.00,52.241
810.00,52.161
811.00,52.194
812.00,52.199
813.00,52.048
814.00,52.086
815.00,52.107
816.00,52.051
817.00,52.016
818.00,51.912
819.00,51.938
820.00,51.791
821.00,51.818
822.00,51.839
823.00,51.790
824.00,51.770
825.00,51.675
826.00,51.699
827.00,51.722
828.00,51.718
829.00,51.571
830.00,51.600
831.00,54.028
832.00,54.089
833.00,53.948
834.00,53.941
835.00,53.849
836.00,53.888
837.00,53.786
838.00,53.784
839.00,53.765
840.00,53.715
841.00,53.709
842.00,53.659
843.00,53.663
844.00,53.605
845.00,53.576
846.00,53.561
847.00,53.517
848.00,53.509
849.00,53.407
850.00,53.390
851.00,53.317
852.00,53.349
853.00,53.231
854.00,53.200
855.00,53.157
856.00,53.176
857.00,53.069
858.00,53.069
859.00,53.031
860.00,53.032
861.00,53.043
862.00,52.983
863.00,53.006
864.00,52.901
865.00,52.941
866.00,52.898
867.00,52.900
868.00,52.863
869.00,52.842
870.00,52.849
871.00,52.809
872.00,52.826
873.00,52.800
874.00,52.798
875.00,52.723
876.00,52.806
877.00,52.713
878.00,52.724
879.00,52.668
880.00,52.661
881.00,52.614
882.00,52.633
883.00,52.580
884.00,52.538
885.00,52.512
886.00,52.502
887.00,52.487
888.00,52.428
889.00,52.535
890.00,52.420
891.00,52.379
892.00,52.389
893.00,52.338
894.00,52.303
895.00,52.293
896.00,52.263
897.00,52.206
898.00,52.192
899.00,52.229
900.00,52.159
901.00,52.205
902.00,52.169
903.00,52.115
904.00,52.105
905.00,52.073
906.00,52.069
907.00,52.031
908.00,51.985
909.00,51.994
910.00,51.955
911.00,51.940
912.00,51.929
913.00,51.873
914.00,51.851
915.00,51.846
916.00,51.825
917.00,51.781
918.00,51.782
919.00,51.771
920.00,51.711
921.00,51.721
922.00,51.699
923.00,51.664
924.00,51.601
925.00,51.640
926.00,51.632
927.00,51.580
928.00,51.490
929.00,51.634
930.00,51.516
931.00,51.519
932.00,51.467
933.00,51.474
934.00,51.428
935.00,51.421
936.00,51.366
937.00,51.370
938.00,51.355
939.00,51.334
940.00,51.307
941.00,51.304
942.00,51.275
943.00,51.255
944.00,51.290
945.00,51.220
946.00,51.218
947.00,51.160
948.00,51.147
949.00,51.111
950.00,51.106
951.00,51.075
952.00,51.064
953.00,51.015
954.00,51.001
955.00,50.937
956.00,50.939
957.00,50.894
958.00,50.931
959.00,50.826
960.00,50.871
961.00,50.848
962.00,50.868
963.00,50.822
964.00,50.808
965.00,50.807
966.00,50.780
967.00,50.777
968.00,50.723
969.00,50.766
970.00,50.725
971.00,50.741
972.00,50.693
973.00,50.727
974.00,50.751
975.00,50.714
976.00,50.745
977.00,50.711
978.00,50.756
979.00,50.716
980.00,50.726
981.00,50.726
982.00,50.681
983.00,50.712
984.00,50.687
985.00,50.720
986.00,50.664
987.00,50.675
988.00,50.654
989.00,50.665
990.00,50.634
991.00,50.608
992.00,50.637
993.00,50.571
994.00,50.562
995.00,50.566
996.00,50.553
997.00,50.537
998.00,50.513
999.00,50.539
1000.00,50.473
1001.00,50.467
1002.00,50.468
1003.00,50.480
1004.00,50.435
1005.00,50.429
1006.00,50.441
1007.00,50.407
1008.00,50.398
1009.00,50.381
1010.00,50.378
1011.00,50.365
1012.00,50.332
1013.00,50.324
1014.00,50.292
1015.00,50.296
1016.00,50.262
1017.00,50.255
1018.00,50.244
1019.00,50.201
1020.00,50.233
1021.00,50.190
1022.00,50.188
1023.00,50.146
1024.00,50.148
1025.00,50.143
1026.00,50.125
1027.00,50.089
1028.00,50.086
1029.00,50.083
1030.00,50.040
1031.00,50.047
1032.00,50.002
1033.00,50.018
1034.00,49.978
1035.00,49.940
1036.00,49.925
1037.00,49.909
1038.00,49.902
1039.00,49.879
1040.00,49.875
1041.00,49.827
1042.00,49.824
1043.00,49.810
1044.00,49.852
1045.00,49.814
1046.00,49.791
1047.00,49.824
1048.00,49.827
1049.00,49.836
1050.00,49.832
1051.00,49.885
1052.00,49.863
1053.00,49.874
1054.00,49.880
1055.00,49.912
1056.00,49.919
1057.00,49.916
1058.00,49.902
1059.00,49.905
1060.00,49.915
1061.00,49.885
1062.00,49.873
1063.00,49.886
1064.00,49.896
1065.00,49.871
1066.00,49.866
1067.00,49.862
1068.00,49.886
1069.00,49.836
1070.00,49.831
1071.00,49.816
1072.00,49.832
1073.00,49.798
1074.00,49.785
1075.00,49.776
1076.00,49.764
1077.00,49.742
1078.00,49.720
1079.00,49.728
1080.00,49.745
1081.00,49.735
1082.00,49.718
1083.00,49.713
1084.00,49.696
1085.00,49.698
1086.00,49.682
1087.00,49.677
1088.00,49.666
1089.00,49.675
1090.00,49.665
1091.00,49.676
1092.00,49.648
1093.00,49.638
1094.00,49.623
1095.00,49.629
1096.00,49.623
1097.00,49.632
1098.00,49.614
1099.00,49.609
1100.00,49.590
1101.00,49.582
1102.00,49.559
1103.00,49.573
1104.00,49.556
1105.00,49.555
1106.00,49.541
1107.00,49.540
1108.00,49.527
1109.00,49.517
1110.00,49.509
1111.00,49.504
1112.00,49.479
1113.00,49.477
1114.00,49.469
1115.00,49.467
1116.00,49.448
1117.00,49.441
1118.00,49.436
1119.00,49.441
1120.00,49.429
1121.00,49.430
1122.00,49.404
1123.00,49.401
1124.00,49.391
1125.00,49.380
1126.00,49.371
1127.00,49.379
1128.00,49.375
1129.00,49.362
1130.00,49.357
1131.00,49.373
1132.00,49.377
1133.00,49.369
1134.00,49.341
1135.00,49.336
1136.00,49.331
1137.00,49.329
1138.00,49.314
1139.00,49.325
1140.00,49.310
1141.00,49.318
1142.00,49.297
1143.00,49.326
1144.00,49.287
1145.00,49.289
1146.00,49.284
1147.00,49.270
1148.00,49.271
1149.00,49.298
1150.00,49.296
1151.00,49.300
1152.00,49.274
1153.00,49.286
1154.00,49.275
1155.00,49.288
1156.00,49.269
1157.00,49.281
1158.00,49.265
1159.00,49.261
1160.00,49.263
1161.00,49.272
1162.00,49.264
1163.00,49.244
1164.00,49.262
1165.00,49.283
1166.00,49.294
1167.00,49.276
1168.00,49.288
1169.00,49.269
1170.00,49.262
1171.00,49.246
1172.00,49.250
1173.00,49.234
1174.00,49.241
1175.00,49.235
1176.00,49.252
1177.00,49.232
1178.00,49.243
1179.00,49.264
1180.00,49.239
1181.00,49.265
1182.00,49.253
1183.00,49.242
1184.00,49.230
1185.00,49.245
1186.00,49.231
1187.00,49.242
1188.00,49.241
1189.00,49.224
1190.00,49.232
1191.00,49.222
1192.00,49.242
1193.00,49.226
1194.00,49.237
1195.00,49.203
1196.00,49.241
1197.00,49.246
1198.00,49.223
1199.00,49.222
1200.00,49.248
1201.00,49.267
1202.00,49.230
1203.00,49.227
1204.00,49.230
1205.00,49.247
1206.00,49.236
1207.00,49.247
1208.00,49.239
1209.00,49.242
1210.00,49.248
1211.00,49.248
1212.00,49.265
1213.00,49.224
1214.00,49.253
1215.00,49.237
1216.00,49.256
1217.00,49.246
1218.00,49.230
1219.00,49.242
1220.00,49.221
1221.00,49.265
1222.00,49.236
1223.00,49.251
1224.00,49.240
1225.00,49.229
1226.00,49.253
1227.00,49.243
1228.00,49.266
1229.00,49.257
1230.00,49.288
1231.00,49.272
1232.00,49.299
1233.00,49.297
1234.00,49.306
1235.00,49.300
1236.00,49.288
1237.00,49.306
1238.00,49.299
1239.00,49.316
1240.00,49.300
1241.00,49.315
1242.00,49.321
1243.00,49.331
1244.00,49.318
1245.00,49.355
1246.00,49.362
1247.00,49.348
1248.00,49.342
1249.00,49.351
1250.00,49.353
1251.00,49.343
1252.00,49.365
1253.00,49.344
1254.00,49.372
1255.00,49.366
1256.00,49.361
1257.00,49.362
1258.00,49.392
1259.00,49.398
1260.00,49.403
1261.00,49.413
1262.00,49.438
1263.00,49.400
1264.00,49.412
1265.00,49.411
1266.00,49.409
1267.00,49.440
1268.00,49.435
1269.00,49.438
1270.00,49.463
1271.00,49.460
1272.00,49.464
1273.00,49.477
1274.00,49.480
1275.00,49.491
1276.00,49.475
1277.00,49.491
1278.00,49.496
1279.00,49.501
1280.00,49.505
1281.00,49.520
1282.00,49.528
1283.00,49.512
1284.00,49.530
1285.00,49.513
1286.00,49.546
1287.00,49.543
1288.00,49.549
1289.00,49.537
1290.00,49.567
1291.00,49.559
1292.00,49.553
1293.00,49.560
1294.00,49.580
1295.00,49.589
1296.00,49.599
1297.00,49.610
1298.00,49.638
1299.00,49.610
1300.00,49.638
1301.00,49.624
1302.00,49.652
1303.00,49.657
1304.00,49.642
1305.00,49.659
1306.00,49.674
1307.00,49.681
1308.00,49.687
1309.00,49.687
1310.00,49.666
1311.00,49.661
1312.00,49.675
1313.00,49.699
1314.00,49.715
1315.00,49.731
1316.00,49.724
1317.00,49.765
1318.00,49.760
1319.00,49.777
1320.00,49.779
1321.00,49.928
1322.00,49.918
1323.00,49.910
1324.00,49.906
1325.00,49.905
1326.00,49.945
1327.00,49.895
1328.00,49.917
1329.00,49.918
1330.00,49.949
1331.00,49.894
1332.00,49.914
1333.00,50.027
1334.00,49.964
1335.00,49.988
1336.00,50.016
1337.00,50.054
1338.00,50.102
1339.00,50.153
1340.00,50.216
1341.00,50.269
1342.00,50.347
1343.00,50.393
1344.00,50.435
1345.00,50.497
1346.00,50.517
1347.00,50.550
1348.00,50.556
1349.00,50.617
1350.00,50.610
1351.00,50.659
1352.00,50.648
1353.00,50.669
1354.00,50.660
1355.00,50.609
1356.00,50.710
1357.00,50.695
1358.00,50.697
1359.00,50.674
1360.00,50.681
1361.00,50.695
1362.00,50.639
1363.00,50.735
1364.00,50.824
1365.00,50.727
1366.00,50.973
1367.00,50.896
1368.00,50.703
1369.00,50.730
1370.00,50.711
1371.00,50.667
1372.00,50.699
1373.00,50.727
1374.00,50.718
1375.00,50.715
1376.00,50.716
1377.00,50.683
1378.00,50.714
1379.00,50.724
1380.00,50.862
1381.00,50.843
1382.00,50.664
1383.00,50.714
1384.00,50.664
1385.00,50.803
1386.00,50.728
1387.00,50.640
1388.00,50.635
1389.00,50.733
1390.00,50.751
1391.00,50.647
1392.00,50.666
1393.00,50.661
1394.00,50.684
1395.00,50.653
1396.00,50.624
1397.00,50.699
1398.00,50.720
1399.00,50.678
1400.00,50.619
1401.00,50.708
1402.00,50.769
1403.00,50.673
1404.00,50.731
1405.00,50.754
1406.00,50.800
1407.00,50.780
1408.00,50.820
1409.00,50.747
1410.00,50.814
1411.00,50.855
1412.00,50.883
1413.00,50.699
1414.00,50.764
1415.00,50.845
1416.00,50.868
1417.00,50.878
1418.00,50.836
1419.00,50.892
1420.00,50.909
1421.00,50.922
1422.00,50.926
1423.00,50.954
1424.00,50.944
1425.00,50.956
1426.00,50.975
1427.00,51.023
1428.00,50.995
1429.00,51.044
1430.00,51.033
1431.00,51.042
1432.00,51.054
1433.00,51.088
1434.00,51.093
1435.00,51.184
1436.00,51.163
1437.00,51.143
1438.00,51.172
1439.00,51.210
1440.00,51.208
1441.00,51.224
1442.00,51.243
1443.00,51.262
1444.00,51.306
1445.00,51.238
1446.00,51.320
1447.00,51.343
1448.00,51.407
1449.00,51.390
1450.00,51.388
1451.00,51.398
1452.00,51.427
1453.00,51.430
1454.00,51.438
1455.00,51.479
1456.00,51.481
1457.00,51.466
1458.00,51.504
1459.00,51.516
1460.00,51.556
1461.00,51.541
1462.00,51.592
1463.00,51.587
1464.00,51.620
1465.00,51.636
1466.00,51.646
1467.00,51.667
1468.00,51.713
1469.00,51.685
1470.00,51.716
1471.00,51.735
1472.00,51.744
1473.00,51.749
1474.00,51.795
1475.00,51.817
1476.00,51.811
1477.00,51.788
1478.00,51.823
1479.00,51.855
1480.00,51.847
1481.00,51.853
1482.00,51.880
1483.00,51.889
1484.00,51.912
1485.00,51.920
1486.00,51.937
1487.00,51.962
1488.00,51.993
1489.00,51.978
1490.00,52.010
1491.00,52.013
1492.00,52.024
1493.00,52.024
1494.00,52.063
1495.00,52.050
1496.00,52.081
1497.00,52.082
1498.00,52.088
1499.00,52.103
1500.00,52.116
1501.00, 
1502.00, 
1503.00, 
1504.00, 
1505.00, 
1506.00, 
1507.00, 
1508.00, 
1509.00, 
1510.00, 
1511.00, 
1512.00, 
1513.00, 
1514.00, 
1515.00, 
1516.00, 
1517.00, 
1518.00, 
1519.00, 
1520.00, 
1521.00, 
1522.00, 
1523.00, 
1524.00, 
1525.00, 
1526.00, 
1527.00, 
1528.00, 
1529.00, 
1530.00, 
1531.00, 
1532.00, 
1533.00, 
1534.00, 
1535.00, 
1536.00, 
1537.00, 
1538.00, 
1539.00, 
1540.00, 
1541.00, 
1542.00, 
1543.00, 
1544.00, 
1545.00, 
1546.00, 
1547.00, 
1548.00, 
1549.00, 
1550.00, 
1551.00, 
1552.00, 
1553.00, 
1554.00, 
1555.00, 
1556.00, 
1557.00, 
1558.00, 
1559.00, 
1560.00, 
1561.00, 
1562.00, 
1563.00, 
1564.00, 
1565.00, 
1566.00, 
1567.00, 
1568.00, 
1569.00, 
1570.00, 
1571.00, 
1572.00, 
1573.00, 
1574.00, 
1575.00, 
1576.00, 
1577.00, 
1578.00, 
1579.00, 
1580.00, 
1581.00, 
1582.00, 
1583.00, 
1584.00, 
1585.00, 
1586.00, 
1587.00, 
1588.00, 
1589.00, 
1590.00, 
1591.00, 
1592.00, 
1593.00, 
1594.00, 
1595.00, 
1596.00, 
1597.00, 
1598.00, 
1599.00, 
1600.00, 
1601.00, 
1602.00, 
1603.00, 
1604.00, 
1605.00, 
1606.00, 
1607.00, 
1608.00, 
1609.00, 
1610.00, 
1611.00, 
1612.00, 
1613.00, 
1614.00, 
1615.00, 
1616.00, 
1617.00, 
1618.00, 
1619.00, 
1620.00, 
1621.00, 
1622.00, 
1623.00, 
1624.00, 
1625.00, 
1626.00, 
1627.00, 
1628.00, 
1629.00, 
1630.00, 
1631.00, 
1632.00, 
1633.00, 
1634.00, 
1635.00, 
1636.00, 
1637.00, 
1638.00, 
1639.00, 
1640.00, 
1641.00, 
1642.00, 
1643.00, 
1644.00, 
1645.00, 
1646.00, 
1647.00, 
1648.00, 
1649.00, 
1650.00, 
1651.00, 
1652.00, 
1653.00, 
1654.00, 
1655.00, 
1656.00, 
1657.00, 
1658.00, 
1659.00, 
1660.00, 
1661.00, 
1662.00, 
1663.00, 
1664.00, 
1665.00, 
1666.00, 
1667.00, 
1668.00, 
1669.00, 
1670.00, 
1671.00, 
1672.00, 
1673.00, 
1674.00, 
1675.00, 
1676.00, 
1677.00, 
1678.00, 
1679.00, 
1680.00, 
1681.00, 
1682.00, 
1683.00, 
1684.00, 
1685.00, 
1686.00, 
1687.00, 
1688.00, 
1689.00, 
1690.00, 
1691.00, 
1692.00, 
1693.00, 
1694.00, 
1695.00, 
1696.00, 
1697.00, 
1698.00, 
1699.00, 
1700.00, 
1701.00, 
1702.00, 
1703.00, 
1704.00, 
1705.00, 
1706.00, 
1707.00, 
1708.00, 
1709.00, 
1710.00, 
1711.00, 
1712.00, 
1713.00, 
1714.00, 
1715.00, 
1716.00, 
1717.00, 
1718.00, 
1719.00, 
1720.00, 
1721.00, 
1722.00, 
1723.00, 
1724.00, 
1725.00, 
1726.00, 
1727.00, 
1728.00, 
1729.00, 
1730.00, 
1731.00, 
1732.00, 
1733.00, 
1734.00, 
1735.00, 
1736.00, 
1737.00, 
1738.00, 
1739.00, 
1740.00, 
1741.00, 
1742.00, 
1743.00, 
1744.00, 
1745.00, 
1746.00, 
1747.00, 
1748.00, 
1749.00, 
1750.00, 
1751.00, 
1752.00, 
1753.00, 
1754.00, 
1755.00, 
1756.00, 
1757.00, 
1758.00, 
1759.00, 
1760.00, 
1761.00, 
1762.00, 
1763.00, 
1764.00, 
1765.00, 
1766.00, 
1767.00, 
1768.00, 
1769.00, 
1770.00, 
1771.00, 
1772.00, 
1773.00, 
1774.00, 
1775.00, 
1776.00, 
1777.00, 
1778.00, 
1779.00, 
1780.00, 
1781.00, 
1782.00, 
1783.00, 
1784.00, 
1785.00, 
1786.00, 
1787.00, 
1788.00, 
1789.00, 
1790.00, 
1791.00, 
1792.00, 
1793.00, 
1794.00, 
1795.00, 
1796.00, 
1797.00, 
1798.00, 
1799.00, 
1800.00, 
1801.00, 
1802.00, 
1803.00, 
1804.00, 
1805.00, 
1806.00, 
1807.00, 
1808.00, 
1809.00, 
1810.00, 
1811.00, 
1812.00, 
1813.00, 
1814.00, 
1815.00, 
1816.00, 
1817.00, 
1818.00, 
1819.00, 
1820.00, 
1821.00, 
1822.00, 
1823.00, 
1824.00, 
1825.00, 
1826.00, 
1827.00, 
1828.00, 
1829.00, 
1830.00, 
1831.00, 
1832.00, 
1833.00, 
1834.00, 
1835.00, 
1836.00, 
1837.00, 
1838.00, 
1839.00, 
1840.00, 
1841.00, 
1842.00, 
1843.00, 
1844.00, 
1845.00, 
1846.00, 
1847.00, 
1848.00, 
1849.00, 
1850.00, 
1851.00, 
1852.00, 
1853.00, 
1854.00, 
1855.00, 
1856.00, 
1857.00, 
1858.00, 
1859.00, 
1860.00, 
1861.00, 
1862.00, 
1863.00, 
1864.00, 
1865.00, 
1866.00, 
1867.00, 
1868.00, 
1869.00, 
1870.00, 
1871.00, 
1872.00, 
1873.00, 
1874.00, 
1875.00, 
1876.00, 
1877.00, 
1878.00, 
1879.00, 
1880.00, 
1881.00, 
1882.00, 
1883.00, 
1884.00, 
1885.00, 
1886.00, 
1887.00, 
1888.00, 
1889.00, 
1890.00, 
1891.00, 
1892.00, 
1893.00, 
1894.00, 
1895.00, 
1896.00, 
1897.00, 
1898.00, 
1899.00, 
1900.00, 
1901.00, 
1902.00, 
1903.00, 
1904.00, 
1905.00, 
1906.00, 
1907.00, 
1908.00, 
1909.00, 
1910.00, 
1911.00, 
1912.00, 
1913.00, 
1914.00, 
1915.00, 
1916.00, 
1917.00, 
1918.00, 
1919.00, 
1920.00, 
1921.00, 
1922.00, 
1923.00, 
1924.00, 
1925.00, 
1926.00, 
1927.00, 
1928.00, 
1929.00, 
1930.00, 
1931.00, 
1932.00, 
1933.00, 
1934.00, 
1935.00, 
1936.00, 
1937.00, 
1938.00, 
1939.00, 
1940.00, 
1941.00, 
1942.00, 
1943.00, 
1944.00, 
1945.00, 
1946.00, 
1947.00, 
1948.00, 
1949.00, 
1950.00, 
1951.00, 
1952.00, 
1953.00, 
1954.00, 
1955.00, 
1956.00, 
1957.00, 
1958.00, 
1959.00, 
1960.00, 
1961.00, 
1962.00, 
1963.00, 
1964.00, 
1965.00, 
1966.00, 
1967.00, 
1968.00, 
1969.00, 
1970.00, 
1971.00, 
1972.00, 
1973.00, 
1974.00, 
1975.00, 
1976.00, 
1977.00, 
1978.00, 
1979.00, 
1980.00, 
1981.00, 
1982.00, 
1983.00, 
1984.00, 
1985.00, 
1986.00, 
1987.00, 
1988.00, 
1989.00, 
1990.00, 
1991.00, 
1992.00, 
1993.00, 
1994.00, 
1995.00, 
1996.00, 
1997.00, 
1998.00, 
1999.00, 
2000.00, 
2001.00, 
2002.00, 
2003.00, 
2004.00, 
2005.00, 
2006.00, 
2007.00, 
2008.00, 
2009.00, 
2010.00, 
2011.00, 
2012.00, 
2013.00, 
2014.00, 
2015.00, 
2016.00, 
2017.00, 
2018.00, 
2019.00, 
2020.00, 
2021.00, 
2022.00, 
2023.00, 
2024.00, 
2025.00, 
2026.00, 
2027.00, 
2028.00, 
2029.00, 
2030.00, 
2031.00, 
2032.00, 
2033.00, 
2034.00, 
2035.00, 
2036.00, 
2037.00, 
2038.00, 
2039.00, 
2040.00, 
2041.00, 
2042.00, 
2043.00, 
2044.00, 
2045.00, 
2046.00, 
2047.00, 
2048.00, 
2049.00, 
2050.00, 
2051.00, 
2052.00, 
2053.00, 
2054.00, 
2055.00, 
2056.00, 
2057.00, 
2058.00, 
2059.00, 
2060.00, 
2061.00, 
2062.00, 
2063.00, 
2064.00, 
2065.00, 
2066.00, 
2067.00, 
2068.00, 
2069.00, 
2070.00, 
2071.00, 
2072.00, 
2073.00, 
2074.00, 
2075.00, 
2076.00, 
2077.00, 
2078.00, 
2079.00, 
2080.00, 
2081.00, 
2082.00, 
2083.00, 
2084.00, 
2085.00, 
2086.00, 
2087.00, 
2088.00, 
2089.00, 
2090.00, 
2091.00, 
2092.00, 
2093.00, 
2094.00, 
2095.00, 
2096.00, 
2097.00, 
2098.00, 
2099.00, 
2100.00, 
2101.00, 
2102.00, 
2103.00, 
2104.00, 
2105.00, 
2106.00, 
2107.00, 
2108.00, 
2109.00, 
2110.00, 
2111.00, 
2112.00, 
2113.00, 
2114.00, 
2115.00, 
2116.00, 
2117.00, 
2118.00, 
2119.00, 
2120.00, 
2121.00, 
2122.00, 
2123.00, 
2124.00, 
2125.00, 
2126.00, 
2127.00, 
2128.00, 
2129.00, 
2130.00, 
2131.00, 
2132.00, 
2133.00, 
2134.00, 
2135.00, 
2136.00, 
2137.00, 
2138.00, 
2139.00, 
2140.00, 
2141.00, 
2142.00, 
2143.00, 
2144.00, 
2145.00, 
2146.00, 
2147.00, 
2148.00, 
2149.00, 
2150.00, 
2151.00, 
2152.00, 
2153.00, 
2154.00, 
2155.00, 
2156.00, 
2157.00, 
2158.00, 
2159.00, 
2160.00, 
2161.00, 
2162.00, 
2163.00, 
2164.00, 
2165.00, 
2166.00, 
2167.00, 
2168.00, 
2169.00, 
2170.00, 
2171.00, 
2172.00, 
2173.00, 
2174.00, 
2175.00, 
2176.00, 
2177.00, 
2178.00, 
2179.00, 
2180.00, 
2181.00, 
2182.00, 
2183.00, 
2184.00, 
2185.00, 
2186.00, 
2187.00, 
2188.00, 
2189.00, 
2190.00, 
2191.00, 
2192.00, 
2193.00, 
2194.00, 
2195.00, 
2196.00, 
2197.00, 
2198.00, 
2199.00, 
2200.00, 
2201.00, 
2202.00, 
2203.00, 
2204.00, 
2205.00, 
2206.00, 
2207.00, 
2208.00, 
2209.00, 
2210.00, 
2211.00, 
2212.00, 
2213.00, 
2214.00, 
2215.00, 
2216.00, 
2217.00, 
2218.00, 
2219.00, 
2220.00, 
2221.00, 
2222.00, 
2223.00, 
2224.00, 
2225.00, 
2226.00, 
2227.00, 
2228.00, 
2229.00, 
2230.00, 
2231.00, 
2232.00, 
2233.00, 
2234.00, 
2235.00, 
2236.00, 
2237.00, 
2238.00, 
2239.00, 
2240.00, 
2241.00, 
2242.00, 
2243.00, 
2244.00, 
2245.00, 
2246.00, 
2247.00, 
2248.00, 
2249.00, 
2250.00, 
2251.00, 
2252.00, 
2253.00, 
2254.00, 
2255.00, 
2256.00, 
2257.00, 
2258.00, 
2259.00, 
2260.00, 
2261.00, 
2262.00, 
2263.00, 
2264.00, 
2265.00, 
2266.00, 
2267.00, 
2268.00, 
2269.00, 
2270.00, 
2271.00, 
2272.00, 
2273.00, 
2274.00, 
2275.00, 
2276.00, 
2277.00, 
2278.00, 
2279.00, 
2280.00, 
2281.00, 
2282.00, 
2283.00, 
2284.00, 
2285.00, 
2286.00, 
2287.00, 
2288.00, 
2289.00, 
2290.00, 
2291.00, 
2292.00, 
2293.00, 
2294.00, 
2295.00, 
2296.00, 
2297.00, 
2298.00, 
2299.00, 
2300.00, 
2301.00, 
2302.00, 
2303.00, 
2304.00, 
2305.00, 
2306.00, 
2307.00, 
2308.00, 
2309.00, 
2310.00, 
2311.00, 
2312.00, 
2313.00, 
2314.00, 
2315.00, 
2316.00, 
2317.00, 
2318.00, 
2319.00, 
2320.00, 
2321.00, 
2322.00, 
2323.00, 
2324.00, 
2325.00, 
2326.00, 
2327.00, 
2328.00, 
2329.00, 
2330.00, 
2331.00, 
2332.00, 
2333.00, 
2334.00, 
2335.00, 
2336.00, 
2337.00, 
2338.00, 
2339.00, 
2340.00, 
2341.00, 
2342.00, 
2343.00, 
2344.00, 
2345.00, 
2346.00, 
2347.00, 
2348.00, 
2349.00, 
2350.00, 
2351.00, 
2352.00, 
2353.00, 
2354.00, 
2355.00, 
2356.00, 
2357.00, 
2358.00, 
2359.00, 
2360.00, 
2361.00, 
2362.00, 
2363.00, 
2364.00, 
2365.00, 
2366.00, 
2367.00, 
2368.00, 
2369.00, 
2370.00, 
2371.00, 
2372.00, 
2373.00, 
2374.00, 
2375.00, 
2376.00, 
2377.00, 
2378.00, 
2379.00, 
2380.00, 
2381.00, 
2382.00, 
2383.00, 
2384.00, 
2385.00, 
2386.00, 
2387.00, 
2388.00, 
2389.00, 
2390.00, 
2391.00, 
2392.00, 
2393.00, 
2394.00, 
2395.00, 
2396.00, 
2397.00, 
2398.00, 
2399.00, 
2400.00, 
2401.00, 
2402.00, 
2403.00, 
2404.00, 
2405.00, 
2406.00, 
2407.00, 
2408.00, 
2409.00, 
2410.00, 
2411.00, 
2412.00, 
2413.00, 
2414.00, 
2415.00, 
2416.00, 
2417.00, 
2418.00, 
2419.00, 
2420.00, 
2421.00, 
2422.00, 
2423.00, 
2424.00, 
2425.00, 
2426.00, 
2427.00, 
2428.00, 
2429.00, 
2430.00, 
2431.00, 
2432.00, 
2433.00, 
2434.00, 
2435.00, 
2436.00, 
2437.00, 
2438.00, 
2439.00, 
2440.00, 
2441.00, 
2442.00, 
2443.00, 
2444.00, 
2445.00, 
2446.00, 
2447.00, 
2448.00, 
2449.00, 
2450.00, 
2451.00, 
2452.00, 
2453.00, 
2454.00, 
2455.00, 
2456.00, 
2457.00, 
2458.00, 
2459.00, 
2460.00, 
2461.00, 
2462.00, 
2463.00, 
2464.00, 
2465.00, 
2466.00, 
2467.00, 
2468.00, 
2469.00, 
2470.00, 
2471.00, 
2472.00, 
2473.00, 
2474.00, 
2475.00, 
2476.00, 
2477.00, 
2478.00, 
2479.00, 
2480.00, 
2481.00, 
2482.00, 
2483.00, 
2484.00, 
2485.00, 
2486.00, 
2487.00, 
2488.00, 
2489.00, 
2490.00, 
2491.00, 
2492.00, 
2493.00, 
2494.00, 
2495.00, 
2496.00, 
2497.00, 
2498.00, 
2499.00, 
2500.00, 
2501.00, 
2502.00, 
2503.00, 
2504.00, 
2505.00, 
2506.00, 
2507.00, 
2508.00, 
2509.00, 
2510.00, 
2511.00, 
2512.00, 
2513.00, 
2514.00, 
2515.00, 
2516.00, 
2517.00, 
2518.00, 
2519.00, 
2520.00, 
2521.00, 
2522.00, 
2523.00, 
2524.00, 
2525.00, 
2526.00, 
2527.00, 
2528.00, 
2529.00, 
2530.00, 
2531.00, 
2532.00, 
2533.00, 
2534.00, 
2535.00, 
2536.00, 
2537.00, 
2538.00, 
2539.00, 
2540.00, 
2541.00, 
2542.00, 
2543.00, 
2544.00, 
2545.00, 
2546.00, 
2547.00, 
2548.00, 
2549.00, 
2550.00, 
2551.00, 
2552.00, 
2553.00, 
2554.00, 
2555.00, 
2556.00, 
2557.00, 
2558.00, 
2559.00, 
2560.00, 
2561.00, 
2562.00, 
2563.00, 
2564.00, 
2565.00, 
2566.00, 
2567.00, 
2568.00, 
2569.00, 
2570.00, 
2571.00, 
2572.00, 
2573.00, 
2574.00, 
2575.00, 
2576.00, 
2577.00, 
2578.00, 
2579.00, 
2580.00, 
2581.00, 
2582.00, 
2583.00, 
2584.00, 
2585.00, 
2586.00, 
2587.00, 
2588.00, 
2589.00, 
2590.00, 
2591.00, 
2592.00, 
2593.00, 
2594.00, 
2595.00, 
2596.00, 
2597.00, 
2598.00, 
2599.00, 
2600.00, 
