"1cP4 - RawData"
"Wavelength nm.","T%"
200.00,-0.000
201.00,0.001
202.00,0.003
203.00,0.000
204.00,0.001
205.00,0.001
206.00,0.001
207.00,0.000
208.00,0.004
209.00,-0.000
210.00,0.002
211.00,0.002
212.00,0.002
213.00,0.001
214.00,0.001
215.00,-0.001
216.00,-0.000
217.00,0.000
218.00,0.003
219.00,-0.004
220.00,0.001
221.00,-0.000
222.00,-0.001
223.00,0.001
224.00,-0.001
225.00,-0.001
226.00,0.002
227.00,-0.001
228.00,-0.000
229.00,0.001
230.00,0.000
231.00,0.001
232.00,0.001
233.00,0.001
234.00,0.001
235.00,0.002
236.00,0.001
237.00,-0.001
238.00,-0.001
239.00,0.001
240.00,-0.000
241.00,-0.001
242.00,0.002
243.00,-0.000
244.00,0.001
245.00,0.003
246.00,0.002
247.00,0.000
248.00,0.001
249.00,-0.000
250.00,-0.003
251.00,0.000
252.00,0.002
253.00,0.001
254.00,-0.001
255.00,0.000
256.00,-0.000
257.00,0.000
258.00,0.000
259.00,0.002
260.00,-0.003
261.00,0.000
262.00,0.001
263.00,-0.001
264.00,0.000
265.00,-0.001
266.00,-0.001
267.00,0.001
268.00,0.001
269.00,-0.000
270.00,0.001
271.00,-0.001
272.00,-0.000
273.00,0.002
274.00,0.001
275.00,0.001
276.00,0.000
277.00,0.001
278.00,-0.000
279.00,0.001
280.00,0.000
281.00,0.001
282.00,-0.000
283.00,0.001
284.00,0.001
285.00,-0.001
286.00,0.001
287.00,0.000
288.00,0.002
289.00,-0.002
290.00,0.001
291.00,-0.001
292.00,-0.000
293.00,0.001
294.00,-0.000
295.00,0.000
296.00,0.000
297.00,0.002
298.00,-0.000
299.00,-0.000
300.00,-0.000
301.00,0.001
302.00,0.001
303.00,0.001
304.00,0.002
305.00,-0.000
306.00,0.002
307.00,0.000
308.00,0.007
309.00,0.012
310.00,0.018
311.00,0.025
312.00,0.042
313.00,0.062
314.00,0.092
315.00,0.139
316.00,0.192
317.00,0.276
318.00,0.380
319.00,0.521
320.00,0.684
321.00,0.887
322.00,1.140
323.00,1.431
324.00,1.734
325.00,2.119
326.00,2.525
327.00,2.998
328.00,3.503
329.00,4.037
330.00,4.654
331.00,5.214
332.00,5.894
333.00,6.566
334.00,7.224
335.00,7.947
336.00,8.653
337.00,9.401
338.00,10.114
339.00,10.842
340.00,11.536
341.00,12.241
342.00,12.905
343.00,13.530
344.00,14.147
345.00,14.764
346.00,15.314
347.00,15.844
348.00,16.389
349.00,16.844
350.00,17.346
351.00,17.746
352.00,18.158
353.00,18.531
354.00,18.892
355.00,19.217
356.00,19.523
357.00,19.818
358.00,20.080
359.00,20.373
360.00,20.640
361.00,20.756
362.00,20.950
363.00,21.184
364.00,21.263
365.00,21.381
366.00,21.513
367.00,21.606
368.00,21.653
369.00,21.701
370.00,21.764
371.00,21.821
372.00,21.768
373.00,21.743
374.00,21.733
375.00,21.720
376.00,21.634
377.00,21.571
378.00,21.462
379.00,21.347
380.00,21.325
381.00,21.319
382.00,21.327
383.00,21.389
384.00,21.368
385.00,21.440
386.00,21.477
387.00,21.587
388.00,21.704
389.00,21.676
390.00,21.761
391.00,21.778
392.00,21.820
393.00,21.831
394.00,21.864
395.00,21.934
396.00,21.912
397.00,21.932
398.00,21.924
399.00,21.917
400.00,21.941
401.00,21.934
402.00,21.930
403.00,21.916
404.00,21.926
405.00,21.899
406.00,21.884
407.00,21.848
408.00,21.845
409.00,21.801
410.00,21.750
411.00,21.734
412.00,21.703
413.00,21.710
414.00,21.716
415.00,21.704
416.00,21.759
417.00,21.722
418.00,21.728
419.00,21.849
420.00,21.865
421.00,21.883
422.00,21.877
423.00,21.925
424.00,22.027
425.00,22.057
426.00,22.013
427.00,22.058
428.00,22.125
429.00,22.127
430.00,22.179
431.00,22.279
432.00,22.280
433.00,22.357
434.00,22.410
435.00,22.466
436.00,22.540
437.00,22.596
438.00,22.656
439.00,22.722
440.00,22.812
441.00,22.876
442.00,22.948
443.00,23.023
444.00,23.145
445.00,23.218
446.00,23.345
447.00,23.409
448.00,23.525
449.00,23.635
450.00,23.663
451.00,23.826
452.00,23.961
453.00,24.051
454.00,24.150
455.00,24.289
456.00,24.404
457.00,24.508
458.00,24.588
459.00,24.719
460.00,24.875
461.00,25.040
462.00,25.133
463.00,25.250
464.00,25.419
465.00,25.499
466.00,25.661
467.00,25.824
468.00,25.903
469.00,26.052
470.00,26.114
471.00,26.190
472.00,26.348
473.00,26.454
474.00,26.571
475.00,26.690
476.00,26.806
477.00,26.910
478.00,27.053
479.00,27.242
480.00,27.353
481.00,27.518
482.00,27.645
483.00,27.790
484.00,27.971
485.00,28.081
486.00,28.259
487.00,28.425
488.00,28.500
489.00,28.701
490.00,28.864
491.00,28.971
492.00,29.226
493.00,29.342
494.00,29.333
495.00,29.494
496.00,29.620
497.00,29.771
498.00,29.856
499.00,30.016
500.00,30.131
501.00,30.202
502.00,30.401
503.00,30.537
504.00,30.553
505.00,30.655
506.00,30.832
507.00,30.921
508.00,31.089
509.00,31.254
510.00,31.383
511.00,31.456
512.00,31.604
513.00,31.763
514.00,31.856
515.00,31.998
516.00,32.109
517.00,32.198
518.00,32.381
519.00,32.422
520.00,32.462
521.00,32.576
522.00,32.730
523.00,32.724
524.00,32.837
525.00,32.937
526.00,33.081
527.00,33.136
528.00,33.248
529.00,33.382
530.00,33.526
531.00,33.654
532.00,33.716
533.00,33.808
534.00,33.879
535.00,33.976
536.00,34.070
537.00,34.144
538.00,34.205
539.00,34.334
540.00,34.340
541.00,34.374
542.00,34.434
543.00,34.488
544.00,34.580
545.00,34.646
546.00,34.682
547.00,34.793
548.00,34.890
549.00,34.920
550.00,35.043
551.00,35.130
552.00,35.155
553.00,35.221
554.00,35.304
555.00,35.400
556.00,35.510
557.00,35.433
558.00,35.506
559.00,35.627
560.00,35.583
561.00,35.736
562.00,35.826
563.00,35.774
564.00,35.811
565.00,35.912
566.00,35.851
567.00,35.961
568.00,36.003
569.00,36.068
570.00,36.141
571.00,36.179
572.00,36.169
573.00,36.147
574.00,36.231
575.00,36.247
576.00,36.202
577.00,36.254
578.00,36.414
579.00,36.440
580.00,36.460
581.00,36.612
582.00,36.698
583.00,36.651
584.00,36.787
585.00,36.855
586.00,36.936
587.00,37.059
588.00,36.974
589.00,36.959
590.00,37.014
591.00,37.052
592.00,37.049
593.00,37.092
594.00,37.081
595.00,37.188
596.00,37.295
597.00,37.362
598.00,37.469
599.00,37.508
600.00,37.504
601.00,37.517
602.00,37.505
603.00,37.606
604.00,37.674
605.00,37.657
606.00,37.728
607.00,37.781
608.00,37.810
609.00,38.039
610.00,37.845
611.00,37.925
612.00,37.983
613.00,38.041
614.00,38.098
615.00,38.188
616.00,38.312
617.00,38.213
618.00,38.326
619.00,38.366
620.00,38.356
621.00,38.463
622.00,38.493
623.00,38.595
624.00,38.672
625.00,38.686
626.00,38.722
627.00,38.828
628.00,38.885
629.00,38.848
630.00,38.916
631.00,39.021
632.00,39.099
633.00,39.208
634.00,39.283
635.00,39.385
636.00,39.407
637.00,39.449
638.00,39.524
639.00,39.632
640.00,39.673
641.00,39.728
642.00,39.802
643.00,39.854
644.00,39.929
645.00,40.045
646.00,40.179
647.00,40.275
648.00,40.296
649.00,40.243
650.00,40.369
651.00,40.549
652.00,40.562
653.00,40.479
654.00,40.713
655.00,40.835
656.00,41.121
657.00,40.975
658.00,40.996
659.00,41.211
660.00,41.334
661.00,41.001
662.00,41.360
663.00,41.520
664.00,41.734
665.00,41.937
666.00,41.922
667.00,42.010
668.00,42.001
669.00,42.202
670.00,42.444
671.00,42.300
672.00,42.456
673.00,42.576
674.00,42.580
675.00,42.715
676.00,42.920
677.00,43.003
678.00,42.875
679.00,43.049
680.00,43.231
681.00,43.304
682.00,43.414
683.00,43.322
684.00,43.482
685.00,43.614
686.00,43.567
687.00,43.705
688.00,43.829
689.00,43.802
690.00,44.019
691.00,44.277
692.00,44.111
693.00,44.172
694.00,44.322
695.00,44.541
696.00,44.549
697.00,44.477
698.00,44.517
699.00,44.859
700.00,44.869
701.00,44.883
702.00,45.139
703.00,45.171
704.00,45.234
705.00,45.091
706.00,45.209
707.00,45.141
708.00,45.381
709.00,46.030
710.00,46.115
711.00,45.632
712.00,45.689
713.00,45.903
714.00,45.796
715.00,45.808
716.00,45.903
717.00,46.095
718.00,46.188
719.00,46.113
720.00,46.200
721.00,50.710
722.00,50.746
723.00,50.781
724.00,50.819
725.00,50.827
726.00,50.787
727.00,50.901
728.00,50.934
729.00,50.941
730.00,50.975
731.00,50.925
732.00,50.976
733.00,51.073
734.00,51.064
735.00,51.115
736.00,51.130
737.00,51.189
738.00,51.223
739.00,51.260
740.00,51.301
741.00,51.360
742.00,51.337
743.00,51.385
744.00,51.351
745.00,51.393
746.00,51.367
747.00,51.425
748.00,51.401
749.00,51.409
750.00,51.421
751.00,51.364
752.00,51.372
753.00,51.378
754.00,51.489
755.00,51.396
756.00,51.512
757.00,51.446
758.00,51.454
759.00,51.515
760.00,51.487
761.00,51.474
762.00,51.510
763.00,51.572
764.00,51.472
765.00,51.566
766.00,51.472
767.00,51.616
768.00,51.532
769.00,51.538
770.00,51.640
771.00,51.547
772.00,51.673
773.00,51.593
774.00,51.691
775.00,51.669
776.00,51.653
777.00,51.695
778.00,51.598
779.00,51.735
780.00,51.603
781.00,51.642
782.00,51.615
783.00,51.656
784.00,51.701
785.00,51.544
786.00,51.705
787.00,51.658
788.00,51.638
789.00,51.628
790.00,51.480
791.00,51.672
792.00,51.639
793.00,51.561
794.00,51.612
795.00,51.601
796.00,51.535
797.00,51.418
798.00,51.529
799.00,51.489
800.00,51.395
801.00,51.461
802.00,51.469
803.00,51.474
804.00,51.339
805.00,51.445
806.00,51.472
807.00,51.394
808.00,51.401
809.00,51.385
810.00,51.300
811.00,51.306
812.00,51.377
813.00,51.239
814.00,51.232
815.00,51.307
816.00,51.227
817.00,51.286
818.00,51.171
819.00,51.212
820.00,51.102
821.00,51.092
822.00,51.165
823.00,51.195
824.00,51.200
825.00,50.877
826.00,51.151
827.00,51.151
828.00,51.133
829.00,51.007
830.00,51.122
831.00,53.411
832.00,53.426
833.00,53.372
834.00,53.353
835.00,53.300
836.00,53.314
837.00,53.259
838.00,53.238
839.00,53.243
840.00,53.206
841.00,53.201
842.00,53.163
843.00,53.190
844.00,53.165
845.00,53.146
846.00,53.147
847.00,53.106
848.00,53.119
849.00,53.044
850.00,52.990
851.00,52.949
852.00,52.988
853.00,52.899
854.00,52.895
855.00,52.820
856.00,52.876
857.00,52.853
858.00,52.772
859.00,52.769
860.00,52.784
861.00,52.805
862.00,52.704
863.00,52.777
864.00,52.701
865.00,52.745
866.00,52.697
867.00,52.717
868.00,52.702
869.00,52.623
870.00,52.663
871.00,52.615
872.00,52.635
873.00,52.604
874.00,52.637
875.00,52.540
876.00,52.633
877.00,52.549
878.00,52.553
879.00,52.589
880.00,52.521
881.00,52.498
882.00,52.526
883.00,52.490
884.00,52.459
885.00,52.425
886.00,52.410
887.00,52.401
888.00,52.375
889.00,52.324
890.00,52.335
891.00,52.311
892.00,52.298
893.00,52.271
894.00,52.322
895.00,52.239
896.00,52.229
897.00,52.196
898.00,52.185
899.00,52.216
900.00,52.165
901.00,52.137
902.00,52.170
903.00,52.108
904.00,52.088
905.00,52.083
906.00,52.080
907.00,51.965
908.00,52.008
909.00,52.025
910.00,51.983
911.00,51.977
912.00,51.974
913.00,51.925
914.00,51.896
915.00,51.910
916.00,51.890
917.00,51.847
918.00,51.815
919.00,51.865
920.00,51.763
921.00,51.793
922.00,51.767
923.00,51.717
924.00,51.694
925.00,51.722
926.00,51.709
927.00,51.678
928.00,51.646
929.00,51.655
930.00,51.615
931.00,51.615
932.00,51.594
933.00,51.579
934.00,51.538
935.00,51.519
936.00,51.484
937.00,51.481
938.00,51.458
939.00,51.461
940.00,51.423
941.00,51.430
942.00,51.393
943.00,51.393
944.00,51.331
945.00,51.341
946.00,51.353
947.00,51.296
948.00,51.289
949.00,51.272
950.00,51.248
951.00,51.235
952.00,51.207
953.00,51.155
954.00,51.151
955.00,51.088
956.00,51.085
957.00,51.052
958.00,51.088
959.00,50.977
960.00,51.027
961.00,51.003
962.00,51.010
963.00,50.964
964.00,50.965
965.00,51.046
966.00,50.935
967.00,50.944
968.00,50.904
969.00,50.942
970.00,50.933
971.00,50.939
972.00,50.899
973.00,50.921
974.00,50.941
975.00,50.877
976.00,50.915
977.00,50.908
978.00,50.944
979.00,50.890
980.00,50.911
981.00,50.925
982.00,50.876
983.00,50.905
984.00,50.881
985.00,50.910
986.00,50.862
987.00,50.883
988.00,50.848
989.00,50.869
990.00,50.851
991.00,50.810
992.00,50.825
993.00,50.829
994.00,50.784
995.00,50.774
996.00,50.761
997.00,50.738
998.00,50.723
999.00,50.744
1000.00,50.692
1001.00,50.684
1002.00,50.672
1003.00,50.693
1004.00,50.667
1005.00,50.636
1006.00,50.653
1007.00,50.633
1008.00,50.611
1009.00,50.600
1010.00,50.602
1011.00,50.593
1012.00,50.553
1013.00,50.557
1014.00,50.528
1015.00,50.528
1016.00,50.481
1017.00,50.485
1018.00,50.481
1019.00,50.436
1020.00,50.474
1021.00,50.429
1022.00,50.410
1023.00,50.393
1024.00,50.380
1025.00,50.357
1026.00,50.374
1027.00,50.330
1028.00,50.327
1029.00,50.319
1030.00,50.262
1031.00,50.282
1032.00,50.231
1033.00,50.251
1034.00,50.231
1035.00,50.177
1036.00,50.161
1037.00,50.150
1038.00,50.132
1039.00,50.105
1040.00,50.121
1041.00,50.092
1042.00,50.094
1043.00,50.065
1044.00,50.102
1045.00,50.069
1046.00,50.043
1047.00,50.090
1048.00,50.090
1049.00,50.086
1050.00,50.086
1051.00,50.136
1052.00,50.113
1053.00,50.135
1054.00,50.147
1055.00,50.165
1056.00,50.176
1057.00,50.163
1058.00,50.151
1059.00,50.147
1060.00,50.145
1061.00,50.138
1062.00,50.125
1063.00,50.133
1064.00,50.156
1065.00,50.131
1066.00,50.130
1067.00,50.135
1068.00,50.151
1069.00,50.102
1070.00,50.089
1071.00,50.074
1072.00,50.096
1073.00,50.059
1074.00,50.035
1075.00,50.034
1076.00,50.025
1077.00,50.000
1078.00,50.000
1079.00,50.015
1080.00,50.034
1081.00,50.014
1082.00,50.007
1083.00,49.999
1084.00,49.987
1085.00,49.985
1086.00,49.979
1087.00,49.978
1088.00,49.961
1089.00,49.958
1090.00,49.947
1091.00,49.962
1092.00,49.943
1093.00,49.918
1094.00,49.904
1095.00,49.905
1096.00,49.876
1097.00,49.882
1098.00,49.861
1099.00,49.857
1100.00,49.854
1101.00,49.874
1102.00,49.824
1103.00,49.843
1104.00,49.813
1105.00,49.814
1106.00,49.795
1107.00,49.788
1108.00,49.785
1109.00,49.781
1110.00,49.773
1111.00,49.772
1112.00,49.745
1113.00,49.753
1114.00,49.749
1115.00,49.740
1116.00,49.730
1117.00,49.724
1118.00,49.710
1119.00,49.722
1120.00,49.708
1121.00,49.711
1122.00,49.711
1123.00,49.703
1124.00,49.697
1125.00,49.696
1126.00,49.676
1127.00,49.681
1128.00,49.656
1129.00,49.637
1130.00,49.630
1131.00,49.632
1132.00,49.625
1133.00,49.617
1134.00,49.603
1135.00,49.602
1136.00,49.602
1137.00,49.605
1138.00,49.599
1139.00,49.611
1140.00,49.583
1141.00,49.602
1142.00,49.575
1143.00,49.606
1144.00,49.573
1145.00,49.560
1146.00,49.565
1147.00,49.552
1148.00,49.563
1149.00,49.557
1150.00,49.569
1151.00,49.585
1152.00,49.548
1153.00,49.542
1154.00,49.535
1155.00,49.554
1156.00,49.537
1157.00,49.566
1158.00,49.554
1159.00,49.556
1160.00,49.565
1161.00,49.582
1162.00,49.570
1163.00,49.568
1164.00,49.575
1165.00,49.571
1166.00,49.578
1167.00,49.550
1168.00,49.563
1169.00,49.550
1170.00,49.539
1171.00,49.528
1172.00,49.539
1173.00,49.517
1174.00,49.542
1175.00,49.531
1176.00,49.549
1177.00,49.536
1178.00,49.534
1179.00,49.555
1180.00,49.537
1181.00,49.557
1182.00,49.543
1183.00,49.532
1184.00,49.511
1185.00,49.544
1186.00,49.514
1187.00,49.525
1188.00,49.542
1189.00,49.529
1190.00,49.536
1191.00,49.533
1192.00,49.544
1193.00,49.534
1194.00,49.540
1195.00,49.510
1196.00,49.544
1197.00,49.535
1198.00,49.516
1199.00,49.519
1200.00,49.527
1201.00,49.550
1202.00,49.530
1203.00,49.523
1204.00,49.525
1205.00,49.540
1206.00,49.519
1207.00,49.542
1208.00,49.528
1209.00,49.532
1210.00,49.536
1211.00,49.529
1212.00,49.547
1213.00,49.498
1214.00,49.538
1215.00,49.511
1216.00,49.525
1217.00,49.514
1218.00,49.513
1219.00,49.519
1220.00,49.508
1221.00,49.557
1222.00,49.526
1223.00,49.560
1224.00,49.548
1225.00,49.531
1226.00,49.541
1227.00,49.527
1228.00,49.546
1229.00,49.546
1230.00,49.578
1231.00,49.557
1232.00,49.598
1233.00,49.597
1234.00,49.605
1235.00,49.613
1236.00,49.603
1237.00,49.621
1238.00,49.598
1239.00,49.598
1240.00,49.604
1241.00,49.623
1242.00,49.629
1243.00,49.620
1244.00,49.590
1245.00,49.630
1246.00,49.634
1247.00,49.611
1248.00,49.620
1249.00,49.643
1250.00,49.650
1251.00,49.643
1252.00,49.648
1253.00,49.622
1254.00,49.660
1255.00,49.661
1256.00,49.649
1257.00,49.657
1258.00,49.713
1259.00,49.690
1260.00,49.711
1261.00,49.696
1262.00,49.697
1263.00,49.681
1264.00,49.692
1265.00,49.706
1266.00,49.705
1267.00,49.732
1268.00,49.729
1269.00,49.720
1270.00,49.750
1271.00,49.751
1272.00,49.742
1273.00,49.763
1274.00,49.746
1275.00,49.763
1276.00,49.764
1277.00,49.769
1278.00,49.785
1279.00,49.785
1280.00,49.783
1281.00,49.804
1282.00,49.818
1283.00,49.804
1284.00,49.828
1285.00,49.812
1286.00,49.821
1287.00,49.826
1288.00,49.837
1289.00,49.827
1290.00,49.858
1291.00,49.833
1292.00,49.822
1293.00,49.842
1294.00,49.861
1295.00,49.889
1296.00,49.894
1297.00,49.900
1298.00,49.940
1299.00,49.899
1300.00,49.935
1301.00,49.924
1302.00,49.932
1303.00,49.944
1304.00,49.914
1305.00,49.937
1306.00,49.943
1307.00,49.946
1308.00,49.930
1309.00,49.944
1310.00,49.943
1311.00,49.940
1312.00,49.960
1313.00,49.971
1314.00,49.977
1315.00,49.990
1316.00,49.991
1317.00,50.048
1318.00,50.029
1319.00,50.046
1320.00,50.060
1321.00,50.218
1322.00,50.208
1323.00,50.205
1324.00,50.185
1325.00,50.194
1326.00,50.231
1327.00,50.190
1328.00,50.217
1329.00,50.198
1330.00,50.199
1331.00,50.211
1332.00,50.189
1333.00,50.300
1334.00,50.252
1335.00,50.270
1336.00,50.293
1337.00,50.335
1338.00,50.387
1339.00,50.428
1340.00,50.477
1341.00,50.529
1342.00,50.620
1343.00,50.664
1344.00,50.707
1345.00,50.788
1346.00,50.811
1347.00,50.846
1348.00,50.867
1349.00,50.868
1350.00,50.890
1351.00,50.911
1352.00,50.911
1353.00,50.970
1354.00,50.934
1355.00,50.864
1356.00,50.984
1357.00,50.948
1358.00,50.949
1359.00,50.995
1360.00,50.986
1361.00,50.855
1362.00,50.880
1363.00,51.053
1364.00,51.030
1365.00,50.985
1366.00,51.024
1367.00,50.978
1368.00,50.979
1369.00,50.989
1370.00,50.996
1371.00,50.892
1372.00,50.959
1373.00,50.984
1374.00,50.973
1375.00,50.988
1376.00,51.017
1377.00,50.845
1378.00,51.036
1379.00,50.944
1380.00,51.023
1381.00,50.933
1382.00,50.903
1383.00,50.997
1384.00,50.948
1385.00,51.038
1386.00,51.013
1387.00,50.948
1388.00,50.942
1389.00,50.998
1390.00,50.986
1391.00,50.979
1392.00,50.983
1393.00,51.004
1394.00,51.003
1395.00,50.974
1396.00,50.913
1397.00,51.014
1398.00,50.999
1399.00,50.961
1400.00,50.979
1401.00,50.977
1402.00,51.005
1403.00,50.981
1404.00,51.011
1405.00,51.033
1406.00,51.075
1407.00,51.021
1408.00,51.054
1409.00,51.007
1410.00,51.096
1411.00,51.074
1412.00,51.113
1413.00,51.035
1414.00,51.110
1415.00,51.111
1416.00,51.150
1417.00,51.158
1418.00,51.101
1419.00,51.169
1420.00,51.174
1421.00,51.194
1422.00,51.205
1423.00,51.230
1424.00,51.226
1425.00,51.245
1426.00,51.230
1427.00,51.281
1428.00,51.269
1429.00,51.296
1430.00,51.321
1431.00,51.325
1432.00,51.330
1433.00,51.365
1434.00,51.343
1435.00,51.424
1436.00,51.432
1437.00,51.408
1438.00,51.447
1439.00,51.475
1440.00,51.469
1441.00,51.502
1442.00,51.519
1443.00,51.540
1444.00,51.602
1445.00,51.525
1446.00,51.585
1447.00,51.617
1448.00,51.666
1449.00,51.670
1450.00,51.675
1451.00,51.663
1452.00,51.699
1453.00,51.696
1454.00,51.714
1455.00,51.762
1456.00,51.775
1457.00,51.767
1458.00,51.816
1459.00,51.815
1460.00,51.861
1461.00,51.850
1462.00,51.882
1463.00,51.885
1464.00,51.908
1465.00,51.925
1466.00,51.936
1467.00,51.938
1468.00,52.018
1469.00,51.982
1470.00,51.997
1471.00,52.041
1472.00,52.048
1473.00,52.065
1474.00,52.102
1475.00,52.107
1476.00,52.116
1477.00,52.093
1478.00,52.118
1479.00,52.146
1480.00,52.156
1481.00,52.141
1482.00,52.177
1483.00,52.196
1484.00,52.204
1485.00,52.221
1486.00,52.231
1487.00,52.259
1488.00,52.293
1489.00,52.274
1490.00,52.315
1491.00,52.315
1492.00,52.317
1493.00,52.310
1494.00,52.353
1495.00,52.335
1496.00,52.392
1497.00,52.381
1498.00,52.379
1499.00,52.408
1500.00,52.415
1501.00, 
1502.00, 
1503.00, 
1504.00, 
1505.00, 
1506.00, 
1507.00, 
1508.00, 
1509.00, 
1510.00, 
1511.00, 
1512.00, 
1513.00, 
1514.00, 
1515.00, 
1516.00, 
1517.00, 
1518.00, 
1519.00, 
1520.00, 
1521.00, 
1522.00, 
1523.00, 
1524.00, 
1525.00, 
1526.00, 
1527.00, 
1528.00, 
1529.00, 
1530.00, 
1531.00, 
1532.00, 
1533.00, 
1534.00, 
1535.00, 
1536.00, 
1537.00, 
1538.00, 
1539.00, 
1540.00, 
1541.00, 
1542.00, 
1543.00, 
1544.00, 
1545.00, 
1546.00, 
1547.00, 
1548.00, 
1549.00, 
1550.00, 
1551.00, 
1552.00, 
1553.00, 
1554.00, 
1555.00, 
1556.00, 
1557.00, 
1558.00, 
1559.00, 
1560.00, 
1561.00, 
1562.00, 
1563.00, 
1564.00, 
1565.00, 
1566.00, 
1567.00, 
1568.00, 
1569.00, 
1570.00, 
1571.00, 
1572.00, 
1573.00, 
1574.00, 
1575.00, 
1576.00, 
1577.00, 
1578.00, 
1579.00, 
1580.00, 
1581.00, 
1582.00, 
1583.00, 
1584.00, 
1585.00, 
1586.00, 
1587.00, 
1588.00, 
1589.00, 
1590.00, 
1591.00, 
1592.00, 
1593.00, 
1594.00, 
1595.00, 
1596.00, 
1597.00, 
1598.00, 
1599.00, 
1600.00, 
1601.00, 
1602.00, 
1603.00, 
1604.00, 
1605.00, 
1606.00, 
1607.00, 
1608.00, 
1609.00, 
1610.00, 
1611.00, 
1612.00, 
1613.00, 
1614.00, 
1615.00, 
1616.00, 
1617.00, 
1618.00, 
1619.00, 
1620.00, 
1621.00, 
1622.00, 
1623.00, 
1624.00, 
1625.00, 
1626.00, 
1627.00, 
1628.00, 
1629.00, 
1630.00, 
1631.00, 
1632.00, 
1633.00, 
1634.00, 
1635.00, 
1636.00, 
1637.00, 
1638.00, 
1639.00, 
1640.00, 
1641.00, 
1642.00, 
1643.00, 
1644.00, 
1645.00, 
1646.00, 
1647.00, 
1648.00, 
1649.00, 
1650.00, 
1651.00, 
1652.00, 
1653.00, 
1654.00, 
1655.00, 
1656.00, 
1657.00, 
1658.00, 
1659.00, 
1660.00, 
1661.00, 
1662.00, 
1663.00, 
1664.00, 
1665.00, 
1666.00, 
1667.00, 
1668.00, 
1669.00, 
1670.00, 
1671.00, 
1672.00, 
1673.00, 
1674.00, 
1675.00, 
1676.00, 
1677.00, 
1678.00, 
1679.00, 
1680.00, 
1681.00, 
1682.00, 
1683.00, 
1684.00, 
1685.00, 
1686.00, 
1687.00, 
1688.00, 
1689.00, 
1690.00, 
1691.00, 
1692.00, 
1693.00, 
1694.00, 
1695.00, 
1696.00, 
1697.00, 
1698.00, 
1699.00, 
1700.00, 
1701.00, 
1702.00, 
1703.00, 
1704.00, 
1705.00, 
1706.00, 
1707.00, 
1708.00, 
1709.00, 
1710.00, 
1711.00, 
1712.00, 
1713.00, 
1714.00, 
1715.00, 
1716.00, 
1717.00, 
1718.00, 
1719.00, 
1720.00, 
1721.00, 
1722.00, 
1723.00, 
1724.00, 
1725.00, 
1726.00, 
1727.00, 
1728.00, 
1729.00, 
1730.00, 
1731.00, 
1732.00, 
1733.00, 
1734.00, 
1735.00, 
1736.00, 
1737.00, 
1738.00, 
1739.00, 
1740.00, 
1741.00, 
1742.00, 
1743.00, 
1744.00, 
1745.00, 
1746.00, 
1747.00, 
1748.00, 
1749.00, 
1750.00, 
1751.00, 
1752.00, 
1753.00, 
1754.00, 
1755.00, 
1756.00, 
1757.00, 
1758.00, 
1759.00, 
1760.00, 
1761.00, 
1762.00, 
1763.00, 
1764.00, 
1765.00, 
1766.00, 
1767.00, 
1768.00, 
1769.00, 
1770.00, 
1771.00, 
1772.00, 
1773.00, 
1774.00, 
1775.00, 
1776.00, 
1777.00, 
1778.00, 
1779.00, 
1780.00, 
1781.00, 
1782.00, 
1783.00, 
1784.00, 
1785.00, 
1786.00, 
1787.00, 
1788.00, 
1789.00, 
1790.00, 
1791.00, 
1792.00, 
1793.00, 
1794.00, 
1795.00, 
1796.00, 
1797.00, 
1798.00, 
1799.00, 
1800.00, 
1801.00, 
1802.00, 
1803.00, 
1804.00, 
1805.00, 
1806.00, 
1807.00, 
1808.00, 
1809.00, 
1810.00, 
1811.00, 
1812.00, 
1813.00, 
1814.00, 
1815.00, 
1816.00, 
1817.00, 
1818.00, 
1819.00, 
1820.00, 
1821.00, 
1822.00, 
1823.00, 
1824.00, 
1825.00, 
1826.00, 
1827.00, 
1828.00, 
1829.00, 
1830.00, 
1831.00, 
1832.00, 
1833.00, 
1834.00, 
1835.00, 
1836.00, 
1837.00, 
1838.00, 
1839.00, 
1840.00, 
1841.00, 
1842.00, 
1843.00, 
1844.00, 
1845.00, 
1846.00, 
1847.00, 
1848.00, 
1849.00, 
1850.00, 
1851.00, 
1852.00, 
1853.00, 
1854.00, 
1855.00, 
1856.00, 
1857.00, 
1858.00, 
1859.00, 
1860.00, 
1861.00, 
1862.00, 
1863.00, 
1864.00, 
1865.00, 
1866.00, 
1867.00, 
1868.00, 
1869.00, 
1870.00, 
1871.00, 
1872.00, 
1873.00, 
1874.00, 
1875.00, 
1876.00, 
1877.00, 
1878.00, 
1879.00, 
1880.00, 
1881.00, 
1882.00, 
1883.00, 
1884.00, 
1885.00, 
1886.00, 
1887.00, 
1888.00, 
1889.00, 
1890.00, 
1891.00, 
1892.00, 
1893.00, 
1894.00, 
1895.00, 
1896.00, 
1897.00, 
1898.00, 
1899.00, 
1900.00, 
1901.00, 
1902.00, 
1903.00, 
1904.00, 
1905.00, 
1906.00, 
1907.00, 
1908.00, 
1909.00, 
1910.00, 
1911.00, 
1912.00, 
1913.00, 
1914.00, 
1915.00, 
1916.00, 
1917.00, 
1918.00, 
1919.00, 
1920.00, 
1921.00, 
1922.00, 
1923.00, 
1924.00, 
1925.00, 
1926.00, 
1927.00, 
1928.00, 
1929.00, 
1930.00, 
1931.00, 
1932.00, 
1933.00, 
1934.00, 
1935.00, 
1936.00, 
1937.00, 
1938.00, 
1939.00, 
1940.00, 
1941.00, 
1942.00, 
1943.00, 
1944.00, 
1945.00, 
1946.00, 
1947.00, 
1948.00, 
1949.00, 
1950.00, 
1951.00, 
1952.00, 
1953.00, 
1954.00, 
1955.00, 
1956.00, 
1957.00, 
1958.00, 
1959.00, 
1960.00, 
1961.00, 
1962.00, 
1963.00, 
1964.00, 
1965.00, 
1966.00, 
1967.00, 
1968.00, 
1969.00, 
1970.00, 
1971.00, 
1972.00, 
1973.00, 
1974.00, 
1975.00, 
1976.00, 
1977.00, 
1978.00, 
1979.00, 
1980.00, 
1981.00, 
1982.00, 
1983.00, 
1984.00, 
1985.00, 
1986.00, 
1987.00, 
1988.00, 
1989.00, 
1990.00, 
1991.00, 
1992.00, 
1993.00, 
1994.00, 
1995.00, 
1996.00, 
1997.00, 
1998.00, 
1999.00, 
2000.00, 
2001.00, 
2002.00, 
2003.00, 
2004.00, 
2005.00, 
2006.00, 
2007.00, 
2008.00, 
2009.00, 
2010.00, 
2011.00, 
2012.00, 
2013.00, 
2014.00, 
2015.00, 
2016.00, 
2017.00, 
2018.00, 
2019.00, 
2020.00, 
2021.00, 
2022.00, 
2023.00, 
2024.00, 
2025.00, 
2026.00, 
2027.00, 
2028.00, 
2029.00, 
2030.00, 
2031.00, 
2032.00, 
2033.00, 
2034.00, 
2035.00, 
2036.00, 
2037.00, 
2038.00, 
2039.00, 
2040.00, 
2041.00, 
2042.00, 
2043.00, 
2044.00, 
2045.00, 
2046.00, 
2047.00, 
2048.00, 
2049.00, 
2050.00, 
2051.00, 
2052.00, 
2053.00, 
2054.00, 
2055.00, 
2056.00, 
2057.00, 
2058.00, 
2059.00, 
2060.00, 
2061.00, 
2062.00, 
2063.00, 
2064.00, 
2065.00, 
2066.00, 
2067.00, 
2068.00, 
2069.00, 
2070.00, 
2071.00, 
2072.00, 
2073.00, 
2074.00, 
2075.00, 
2076.00, 
2077.00, 
2078.00, 
2079.00, 
2080.00, 
2081.00, 
2082.00, 
2083.00, 
2084.00, 
2085.00, 
2086.00, 
2087.00, 
2088.00, 
2089.00, 
2090.00, 
2091.00, 
2092.00, 
2093.00, 
2094.00, 
2095.00, 
2096.00, 
2097.00, 
2098.00, 
2099.00, 
2100.00, 
2101.00, 
2102.00, 
2103.00, 
2104.00, 
2105.00, 
2106.00, 
2107.00, 
2108.00, 
2109.00, 
2110.00, 
2111.00, 
2112.00, 
2113.00, 
2114.00, 
2115.00, 
2116.00, 
2117.00, 
2118.00, 
2119.00, 
2120.00, 
2121.00, 
2122.00, 
2123.00, 
2124.00, 
2125.00, 
2126.00, 
2127.00, 
2128.00, 
2129.00, 
2130.00, 
2131.00, 
2132.00, 
2133.00, 
2134.00, 
2135.00, 
2136.00, 
2137.00, 
2138.00, 
2139.00, 
2140.00, 
2141.00, 
2142.00, 
2143.00, 
2144.00, 
2145.00, 
2146.00, 
2147.00, 
2148.00, 
2149.00, 
2150.00, 
2151.00, 
2152.00, 
2153.00, 
2154.00, 
2155.00, 
2156.00, 
2157.00, 
2158.00, 
2159.00, 
2160.00, 
2161.00, 
2162.00, 
2163.00, 
2164.00, 
2165.00, 
2166.00, 
2167.00, 
2168.00, 
2169.00, 
2170.00, 
2171.00, 
2172.00, 
2173.00, 
2174.00, 
2175.00, 
2176.00, 
2177.00, 
2178.00, 
2179.00, 
2180.00, 
2181.00, 
2182.00, 
2183.00, 
2184.00, 
2185.00, 
2186.00, 
2187.00, 
2188.00, 
2189.00, 
2190.00, 
2191.00, 
2192.00, 
2193.00, 
2194.00, 
2195.00, 
2196.00, 
2197.00, 
2198.00, 
2199.00, 
2200.00, 
2201.00, 
2202.00, 
2203.00, 
2204.00, 
2205.00, 
2206.00, 
2207.00, 
2208.00, 
2209.00, 
2210.00, 
2211.00, 
2212.00, 
2213.00, 
2214.00, 
2215.00, 
2216.00, 
2217.00, 
2218.00, 
2219.00, 
2220.00, 
2221.00, 
2222.00, 
2223.00, 
2224.00, 
2225.00, 
2226.00, 
2227.00, 
2228.00, 
2229.00, 
2230.00, 
2231.00, 
2232.00, 
2233.00, 
2234.00, 
2235.00, 
2236.00, 
2237.00, 
2238.00, 
2239.00, 
2240.00, 
2241.00, 
2242.00, 
2243.00, 
2244.00, 
2245.00, 
2246.00, 
2247.00, 
2248.00, 
2249.00, 
2250.00, 
2251.00, 
2252.00, 
2253.00, 
2254.00, 
2255.00, 
2256.00, 
2257.00, 
2258.00, 
2259.00, 
2260.00, 
2261.00, 
2262.00, 
2263.00, 
2264.00, 
2265.00, 
2266.00, 
2267.00, 
2268.00, 
2269.00, 
2270.00, 
2271.00, 
2272.00, 
2273.00, 
2274.00, 
2275.00, 
2276.00, 
2277.00, 
2278.00, 
2279.00, 
2280.00, 
2281.00, 
2282.00, 
2283.00, 
2284.00, 
2285.00, 
2286.00, 
2287.00, 
2288.00, 
2289.00, 
2290.00, 
2291.00, 
2292.00, 
2293.00, 
2294.00, 
2295.00, 
2296.00, 
2297.00, 
2298.00, 
2299.00, 
2300.00, 
2301.00, 
2302.00, 
2303.00, 
2304.00, 
2305.00, 
2306.00, 
2307.00, 
2308.00, 
2309.00, 
2310.00, 
2311.00, 
2312.00, 
2313.00, 
2314.00, 
2315.00, 
2316.00, 
2317.00, 
2318.00, 
2319.00, 
2320.00, 
2321.00, 
2322.00, 
2323.00, 
2324.00, 
2325.00, 
2326.00, 
2327.00, 
2328.00, 
2329.00, 
2330.00, 
2331.00, 
2332.00, 
2333.00, 
2334.00, 
2335.00, 
2336.00, 
2337.00, 
2338.00, 
2339.00, 
2340.00, 
2341.00, 
2342.00, 
2343.00, 
2344.00, 
2345.00, 
2346.00, 
2347.00, 
2348.00, 
2349.00, 
2350.00, 
2351.00, 
2352.00, 
2353.00, 
2354.00, 
2355.00, 
2356.00, 
2357.00, 
2358.00, 
2359.00, 
2360.00, 
2361.00, 
2362.00, 
2363.00, 
2364.00, 
2365.00, 
2366.00, 
2367.00, 
2368.00, 
2369.00, 
2370.00, 
2371.00, 
2372.00, 
2373.00, 
2374.00, 
2375.00, 
2376.00, 
2377.00, 
2378.00, 
2379.00, 
2380.00, 
2381.00, 
2382.00, 
2383.00, 
2384.00, 
2385.00, 
2386.00, 
2387.00, 
2388.00, 
2389.00, 
2390.00, 
2391.00, 
2392.00, 
2393.00, 
2394.00, 
2395.00, 
2396.00, 
2397.00, 
2398.00, 
2399.00, 
2400.00, 
2401.00, 
2402.00, 
2403.00, 
2404.00, 
2405.00, 
2406.00, 
2407.00, 
2408.00, 
2409.00, 
2410.00, 
2411.00, 
2412.00, 
2413.00, 
2414.00, 
2415.00, 
2416.00, 
2417.00, 
2418.00, 
2419.00, 
2420.00, 
2421.00, 
2422.00, 
2423.00, 
2424.00, 
2425.00, 
2426.00, 
2427.00, 
2428.00, 
2429.00, 
2430.00, 
2431.00, 
2432.00, 
2433.00, 
2434.00, 
2435.00, 
2436.00, 
2437.00, 
2438.00, 
2439.00, 
2440.00, 
2441.00, 
2442.00, 
2443.00, 
2444.00, 
2445.00, 
2446.00, 
2447.00, 
2448.00, 
2449.00, 
2450.00, 
2451.00, 
2452.00, 
2453.00, 
2454.00, 
2455.00, 
2456.00, 
2457.00, 
2458.00, 
2459.00, 
2460.00, 
2461.00, 
2462.00, 
2463.00, 
2464.00, 
2465.00, 
2466.00, 
2467.00, 
2468.00, 
2469.00, 
2470.00, 
2471.00, 
2472.00, 
2473.00, 
2474.00, 
2475.00, 
2476.00, 
2477.00, 
2478.00, 
2479.00, 
2480.00, 
2481.00, 
2482.00, 
2483.00, 
2484.00, 
2485.00, 
2486.00, 
2487.00, 
2488.00, 
2489.00, 
2490.00, 
2491.00, 
2492.00, 
2493.00, 
2494.00, 
2495.00, 
2496.00, 
2497.00, 
2498.00, 
2499.00, 
2500.00, 
2501.00, 
2502.00, 
2503.00, 
2504.00, 
2505.00, 
2506.00, 
2507.00, 
2508.00, 
2509.00, 
2510.00, 
2511.00, 
2512.00, 
2513.00, 
2514.00, 
2515.00, 
2516.00, 
2517.00, 
2518.00, 
2519.00, 
2520.00, 
2521.00, 
2522.00, 
2523.00, 
2524.00, 
2525.00, 
2526.00, 
2527.00, 
2528.00, 
2529.00, 
2530.00, 
2531.00, 
2532.00, 
2533.00, 
2534.00, 
2535.00, 
2536.00, 
2537.00, 
2538.00, 
2539.00, 
2540.00, 
2541.00, 
2542.00, 
2543.00, 
2544.00, 
2545.00, 
2546.00, 
2547.00, 
2548.00, 
2549.00, 
2550.00, 
2551.00, 
2552.00, 
2553.00, 
2554.00, 
2555.00, 
2556.00, 
2557.00, 
2558.00, 
2559.00, 
2560.00, 
2561.00, 
2562.00, 
2563.00, 
2564.00, 
2565.00, 
2566.00, 
2567.00, 
2568.00, 
2569.00, 
2570.00, 
2571.00, 
2572.00, 
2573.00, 
2574.00, 
2575.00, 
2576.00, 
2577.00, 
2578.00, 
2579.00, 
2580.00, 
2581.00, 
2582.00, 
2583.00, 
2584.00, 
2585.00, 
2586.00, 
2587.00, 
2588.00, 
2589.00, 
2590.00, 
2591.00, 
2592.00, 
2593.00, 
2594.00, 
2595.00, 
2596.00, 
2597.00, 
2598.00, 
2599.00, 
2600.00, 
