"1cP5 - RawData"
"Wavelength nm.","T%"
200.00,0.001
201.00,0.002
202.00,-0.000
203.00,0.002
204.00,0.000
205.00,0.002
206.00,-0.002
207.00,0.001
208.00,0.005
209.00,-0.001
210.00,-0.001
211.00,0.000
212.00,0.003
213.00,0.001
214.00,0.003
215.00,0.001
216.00,0.002
217.00,-0.000
218.00,0.004
219.00,-0.002
220.00,0.001
221.00,0.001
222.00,0.001
223.00,0.005
224.00,0.000
225.00,0.002
226.00,0.002
227.00,0.001
228.00,0.000
229.00,0.003
230.00,0.002
231.00,0.002
232.00,-0.001
233.00,0.002
234.00,0.001
235.00,-0.001
236.00,0.002
237.00,0.000
238.00,-0.001
239.00,-0.001
240.00,0.001
241.00,0.001
242.00,-0.000
243.00,0.000
244.00,-0.000
245.00,0.001
246.00,0.002
247.00,-0.000
248.00,0.001
249.00,0.001
250.00,-0.001
251.00,0.001
252.00,-0.001
253.00,-0.001
254.00,0.000
255.00,0.001
256.00,-0.001
257.00,0.001
258.00,-0.000
259.00,0.002
260.00,0.002
261.00,-0.000
262.00,0.000
263.00,-0.002
264.00,0.001
265.00,-0.002
266.00,0.001
267.00,-0.003
268.00,-0.000
269.00,-0.001
270.00,0.001
271.00,0.002
272.00,0.000
273.00,-0.001
274.00,-0.001
275.00,-0.001
276.00,0.001
277.00,-0.000
278.00,0.000
279.00,-0.002
280.00,0.001
281.00,-0.000
282.00,-0.000
283.00,0.001
284.00,0.000
285.00,0.001
286.00,-0.001
287.00,0.002
288.00,0.001
289.00,0.002
290.00,-0.000
291.00,-0.001
292.00,0.002
293.00,0.001
294.00,-0.000
295.00,-0.000
296.00,0.001
297.00,0.001
298.00,0.001
299.00,-0.001
300.00,-0.001
301.00,-0.000
302.00,0.002
303.00,0.002
304.00,0.001
305.00,0.003
306.00,0.003
307.00,0.002
308.00,0.005
309.00,0.011
310.00,0.018
311.00,0.025
312.00,0.037
313.00,0.061
314.00,0.091
315.00,0.130
316.00,0.188
317.00,0.265
318.00,0.361
319.00,0.486
320.00,0.645
321.00,0.831
322.00,1.081
323.00,1.352
324.00,1.691
325.00,1.980
326.00,2.407
327.00,2.869
328.00,3.341
329.00,3.830
330.00,4.376
331.00,4.950
332.00,5.575
333.00,6.228
334.00,6.855
335.00,7.549
336.00,8.228
337.00,8.937
338.00,9.607
339.00,10.256
340.00,10.938
341.00,11.604
342.00,12.245
343.00,12.823
344.00,13.410
345.00,14.038
346.00,14.544
347.00,15.023
348.00,15.561
349.00,15.946
350.00,16.381
351.00,16.824
352.00,17.141
353.00,17.528
354.00,17.863
355.00,18.208
356.00,18.472
357.00,18.760
358.00,18.993
359.00,19.255
360.00,19.498
361.00,19.627
362.00,19.843
363.00,19.960
364.00,20.065
365.00,20.205
366.00,20.236
367.00,20.386
368.00,20.448
369.00,20.524
370.00,20.538
371.00,20.554
372.00,20.542
373.00,20.510
374.00,20.509
375.00,20.474
376.00,20.351
377.00,20.285
378.00,20.182
379.00,20.115
380.00,20.084
381.00,20.077
382.00,20.062
383.00,20.111
384.00,20.117
385.00,20.193
386.00,20.188
387.00,20.266
388.00,20.363
389.00,20.386
390.00,20.406
391.00,20.441
392.00,20.473
393.00,20.481
394.00,20.516
395.00,20.547
396.00,20.558
397.00,20.571
398.00,20.552
399.00,20.541
400.00,20.563
401.00,20.540
402.00,20.542
403.00,20.545
404.00,20.550
405.00,20.477
406.00,20.462
407.00,20.415
408.00,20.438
409.00,20.367
410.00,20.331
411.00,20.357
412.00,20.309
413.00,20.298
414.00,20.295
415.00,20.275
416.00,20.323
417.00,20.319
418.00,20.317
419.00,20.444
420.00,20.451
421.00,20.471
422.00,20.488
423.00,20.498
424.00,20.574
425.00,20.629
426.00,20.580
427.00,20.669
428.00,20.659
429.00,20.741
430.00,20.763
431.00,20.839
432.00,20.859
433.00,20.908
434.00,20.972
435.00,21.033
436.00,21.054
437.00,21.161
438.00,21.226
439.00,21.293
440.00,21.371
441.00,21.453
442.00,21.521
443.00,21.599
444.00,21.705
445.00,21.788
446.00,21.880
447.00,21.943
448.00,22.079
449.00,22.157
450.00,22.280
451.00,22.408
452.00,22.479
453.00,22.617
454.00,22.699
455.00,22.837
456.00,22.990
457.00,23.054
458.00,23.132
459.00,23.296
460.00,23.445
461.00,23.574
462.00,23.669
463.00,23.834
464.00,23.964
465.00,24.095
466.00,24.258
467.00,24.398
468.00,24.474
469.00,24.594
470.00,24.698
471.00,24.758
472.00,24.925
473.00,25.008
474.00,25.118
475.00,25.242
476.00,25.389
477.00,25.477
478.00,25.634
479.00,25.836
480.00,25.934
481.00,26.073
482.00,26.210
483.00,26.366
484.00,26.593
485.00,26.697
486.00,26.857
487.00,27.018
488.00,27.154
489.00,27.336
490.00,27.449
491.00,27.614
492.00,27.849
493.00,27.960
494.00,27.975
495.00,28.156
496.00,28.266
497.00,28.383
498.00,28.508
499.00,28.676
500.00,28.810
501.00,28.911
502.00,29.041
503.00,29.184
504.00,29.246
505.00,29.407
506.00,29.537
507.00,29.647
508.00,29.794
509.00,29.949
510.00,30.056
511.00,30.148
512.00,30.297
513.00,30.460
514.00,30.575
515.00,30.717
516.00,30.824
517.00,30.911
518.00,31.102
519.00,31.119
520.00,31.196
521.00,31.315
522.00,31.478
523.00,31.478
524.00,31.611
525.00,31.701
526.00,31.826
527.00,31.872
528.00,31.998
529.00,32.162
530.00,32.279
531.00,32.337
532.00,32.438
533.00,32.589
534.00,32.609
535.00,32.681
536.00,32.825
537.00,32.875
538.00,32.992
539.00,33.108
540.00,33.116
541.00,33.170
542.00,33.226
543.00,33.252
544.00,33.397
545.00,33.449
546.00,33.470
547.00,33.610
548.00,33.704
549.00,33.731
550.00,33.861
551.00,33.984
552.00,33.999
553.00,34.047
554.00,34.139
555.00,34.171
556.00,34.268
557.00,34.309
558.00,34.344
559.00,34.426
560.00,34.518
561.00,34.522
562.00,34.656
563.00,34.661
564.00,34.701
565.00,34.727
566.00,34.742
567.00,34.809
568.00,34.870
569.00,34.905
570.00,34.922
571.00,34.978
572.00,34.985
573.00,34.985
574.00,35.014
575.00,35.054
576.00,35.055
577.00,35.077
578.00,35.252
579.00,35.255
580.00,35.252
581.00,35.474
582.00,35.531
583.00,35.546
584.00,35.676
585.00,35.683
586.00,35.786
587.00,35.863
588.00,35.827
589.00,35.777
590.00,35.861
591.00,35.903
592.00,35.894
593.00,35.919
594.00,35.953
595.00,36.086
596.00,36.162
597.00,36.207
598.00,36.318
599.00,36.283
600.00,36.343
601.00,36.373
602.00,36.347
603.00,36.395
604.00,36.423
605.00,36.510
606.00,36.553
607.00,36.534
608.00,36.749
609.00,36.876
610.00,36.663
611.00,36.749
612.00,36.792
613.00,36.905
614.00,36.924
615.00,37.010
616.00,37.135
617.00,37.053
618.00,37.133
619.00,37.213
620.00,37.206
621.00,37.268
622.00,37.330
623.00,37.419
624.00,37.466
625.00,37.505
626.00,37.546
627.00,37.633
628.00,37.660
629.00,37.659
630.00,37.731
631.00,37.852
632.00,37.931
633.00,38.070
634.00,38.116
635.00,38.213
636.00,38.238
637.00,38.332
638.00,38.370
639.00,38.464
640.00,38.503
641.00,38.547
642.00,38.647
643.00,38.693
644.00,38.803
645.00,38.896
646.00,38.957
647.00,39.075
648.00,39.132
649.00,39.060
650.00,39.177
651.00,39.356
652.00,39.377
653.00,39.313
654.00,39.658
655.00,39.450
656.00,39.993
657.00,39.975
658.00,39.985
659.00,39.972
660.00,40.101
661.00,40.146
662.00,40.259
663.00,40.358
664.00,40.635
665.00,40.828
666.00,40.798
667.00,40.949
668.00,40.920
669.00,41.135
670.00,41.417
671.00,41.053
672.00,41.403
673.00,41.639
674.00,41.529
675.00,41.606
676.00,41.842
677.00,41.965
678.00,41.850
679.00,42.068
680.00,42.207
681.00,42.335
682.00,42.374
683.00,42.324
684.00,42.465
685.00,42.613
686.00,42.555
687.00,42.752
688.00,42.832
689.00,42.803
690.00,43.124
691.00,43.264
692.00,43.087
693.00,43.083
694.00,43.159
695.00,43.587
696.00,43.716
697.00,43.611
698.00,43.654
699.00,43.983
700.00,44.107
701.00,44.075
702.00,44.252
703.00,44.360
704.00,44.400
705.00,44.372
706.00,44.482
707.00,44.557
708.00,44.442
709.00,44.787
710.00,45.280
711.00,44.850
712.00,44.985
713.00,45.110
714.00,45.131
715.00,45.179
716.00,45.051
717.00,45.237
718.00,45.491
719.00,45.469
720.00,45.569
721.00,49.969
722.00,49.937
723.00,50.020
724.00,50.082
725.00,50.052
726.00,50.086
727.00,50.139
728.00,50.210
729.00,50.168
730.00,50.288
731.00,50.232
732.00,50.280
733.00,50.375
734.00,50.381
735.00,50.404
736.00,50.466
737.00,50.533
738.00,50.552
739.00,50.555
740.00,50.643
741.00,50.701
742.00,50.731
743.00,50.753
744.00,50.737
745.00,50.758
746.00,50.750
747.00,50.824
748.00,50.782
749.00,50.782
750.00,50.885
751.00,50.783
752.00,50.846
753.00,50.826
754.00,50.826
755.00,50.828
756.00,50.859
757.00,50.965
758.00,50.982
759.00,50.897
760.00,51.034
761.00,50.992
762.00,50.991
763.00,51.078
764.00,51.098
765.00,51.105
766.00,51.040
767.00,51.107
768.00,51.041
769.00,51.103
770.00,51.167
771.00,51.049
772.00,51.184
773.00,51.150
774.00,51.149
775.00,51.301
776.00,51.211
777.00,51.266
778.00,51.146
779.00,51.288
780.00,51.205
781.00,51.291
782.00,51.255
783.00,51.161
784.00,51.256
785.00,51.186
786.00,51.293
787.00,51.240
788.00,51.236
789.00,51.283
790.00,51.112
791.00,51.213
792.00,51.189
793.00,51.224
794.00,51.180
795.00,51.221
796.00,51.188
797.00,51.062
798.00,51.191
799.00,51.131
800.00,51.070
801.00,51.101
802.00,51.137
803.00,51.114
804.00,50.958
805.00,51.033
806.00,51.015
807.00,51.108
808.00,51.040
809.00,50.983
810.00,50.864
811.00,51.021
812.00,51.026
813.00,50.930
814.00,50.901
815.00,50.918
816.00,50.889
817.00,51.010
818.00,50.786
819.00,50.902
820.00,50.691
821.00,50.790
822.00,50.883
823.00,50.850
824.00,50.828
825.00,50.738
826.00,50.793
827.00,50.853
828.00,50.793
829.00,50.700
830.00,50.744
831.00,53.133
832.00,53.141
833.00,53.100
834.00,53.097
835.00,53.039
836.00,53.062
837.00,53.015
838.00,52.988
839.00,53.016
840.00,52.982
841.00,52.975
842.00,52.923
843.00,52.955
844.00,52.951
845.00,52.896
846.00,52.890
847.00,52.844
848.00,52.834
849.00,52.773
850.00,52.741
851.00,52.685
852.00,52.730
853.00,52.657
854.00,52.652
855.00,52.585
856.00,52.640
857.00,52.613
858.00,52.502
859.00,52.582
860.00,52.547
861.00,52.573
862.00,52.495
863.00,52.520
864.00,52.443
865.00,52.500
866.00,52.476
867.00,52.469
868.00,52.463
869.00,52.422
870.00,52.459
871.00,52.389
872.00,52.414
873.00,52.385
874.00,52.401
875.00,52.330
876.00,52.425
877.00,52.379
878.00,52.376
879.00,52.337
880.00,52.333
881.00,52.299
882.00,52.317
883.00,52.270
884.00,52.264
885.00,52.216
886.00,52.203
887.00,52.197
888.00,52.173
889.00,52.152
890.00,52.152
891.00,52.115
892.00,52.122
893.00,52.077
894.00,52.086
895.00,52.058
896.00,52.036
897.00,52.012
898.00,51.987
899.00,52.007
900.00,51.963
901.00,51.948
902.00,51.987
903.00,51.943
904.00,51.909
905.00,51.890
906.00,51.906
907.00,51.846
908.00,51.812
909.00,51.839
910.00,51.781
911.00,51.787
912.00,51.760
913.00,51.746
914.00,51.703
915.00,51.701
916.00,51.685
917.00,51.660
918.00,51.675
919.00,51.661
920.00,51.594
921.00,51.605
922.00,51.599
923.00,51.563
924.00,51.518
925.00,51.535
926.00,51.510
927.00,51.514
928.00,51.462
929.00,51.486
930.00,51.435
931.00,51.437
932.00,51.396
933.00,51.410
934.00,51.382
935.00,51.362
936.00,51.308
937.00,51.307
938.00,51.293
939.00,51.280
940.00,51.250
941.00,51.238
942.00,51.216
943.00,51.210
944.00,51.155
945.00,51.179
946.00,51.195
947.00,51.129
948.00,51.112
949.00,51.094
950.00,51.087
951.00,51.069
952.00,51.059
953.00,51.026
954.00,50.985
955.00,50.893
956.00,50.954
957.00,50.882
958.00,50.898
959.00,50.793
960.00,50.857
961.00,50.821
962.00,50.843
963.00,50.810
964.00,50.791
965.00,50.794
966.00,50.766
967.00,50.776
968.00,50.736
969.00,50.778
970.00,50.757
971.00,50.769
972.00,50.723
973.00,50.751
974.00,50.768
975.00,50.725
976.00,50.745
977.00,50.728
978.00,50.775
979.00,50.751
980.00,50.752
981.00,50.767
982.00,50.730
983.00,50.723
984.00,50.720
985.00,50.741
986.00,50.695
987.00,50.711
988.00,50.689
989.00,50.714
990.00,50.682
991.00,50.653
992.00,50.679
993.00,50.629
994.00,50.614
995.00,50.622
996.00,50.605
997.00,50.585
998.00,50.566
999.00,50.591
1000.00,50.535
1001.00,50.528
1002.00,50.511
1003.00,50.522
1004.00,50.485
1005.00,50.474
1006.00,50.501
1007.00,50.475
1008.00,50.467
1009.00,50.442
1010.00,50.431
1011.00,50.412
1012.00,50.386
1013.00,50.372
1014.00,50.360
1015.00,50.370
1016.00,50.316
1017.00,50.334
1018.00,50.323
1019.00,50.281
1020.00,50.288
1021.00,50.256
1022.00,50.255
1023.00,50.207
1024.00,50.205
1025.00,50.201
1026.00,50.192
1027.00,50.142
1028.00,50.163
1029.00,50.161
1030.00,50.111
1031.00,50.132
1032.00,50.079
1033.00,50.095
1034.00,50.081
1035.00,50.013
1036.00,50.013
1037.00,50.001
1038.00,49.982
1039.00,49.965
1040.00,49.964
1041.00,49.925
1042.00,49.927
1043.00,49.891
1044.00,49.934
1045.00,49.904
1046.00,49.882
1047.00,49.933
1048.00,49.927
1049.00,49.928
1050.00,49.933
1051.00,49.985
1052.00,49.967
1053.00,49.972
1054.00,49.989
1055.00,49.994
1056.00,50.010
1057.00,50.013
1058.00,49.980
1059.00,49.986
1060.00,49.989
1061.00,49.979
1062.00,49.961
1063.00,49.959
1064.00,49.977
1065.00,49.950
1066.00,49.957
1067.00,49.953
1068.00,49.959
1069.00,49.946
1070.00,49.907
1071.00,49.890
1072.00,49.948
1073.00,49.909
1074.00,49.883
1075.00,49.879
1076.00,49.889
1077.00,49.860
1078.00,49.852
1079.00,49.839
1080.00,49.851
1081.00,49.829
1082.00,49.821
1083.00,49.825
1084.00,49.810
1085.00,49.814
1086.00,49.800
1087.00,49.788
1088.00,49.772
1089.00,49.761
1090.00,49.754
1091.00,49.772
1092.00,49.753
1093.00,49.733
1094.00,49.739
1095.00,49.732
1096.00,49.705
1097.00,49.726
1098.00,49.700
1099.00,49.697
1100.00,49.690
1101.00,49.689
1102.00,49.683
1103.00,49.689
1104.00,49.666
1105.00,49.660
1106.00,49.641
1107.00,49.636
1108.00,49.625
1109.00,49.625
1110.00,49.615
1111.00,49.619
1112.00,49.581
1113.00,49.590
1114.00,49.586
1115.00,49.576
1116.00,49.578
1117.00,49.576
1118.00,49.567
1119.00,49.553
1120.00,49.537
1121.00,49.534
1122.00,49.506
1123.00,49.489
1124.00,49.494
1125.00,49.496
1126.00,49.467
1127.00,49.486
1128.00,49.463
1129.00,49.456
1130.00,49.456
1131.00,49.459
1132.00,49.494
1133.00,49.420
1134.00,49.439
1135.00,49.440
1136.00,49.449
1137.00,49.448
1138.00,49.446
1139.00,49.452
1140.00,49.422
1141.00,49.440
1142.00,49.428
1143.00,49.456
1144.00,49.431
1145.00,49.405
1146.00,49.399
1147.00,49.393
1148.00,49.378
1149.00,49.406
1150.00,49.408
1151.00,49.405
1152.00,49.393
1153.00,49.391
1154.00,49.371
1155.00,49.387
1156.00,49.365
1157.00,49.393
1158.00,49.383
1159.00,49.364
1160.00,49.380
1161.00,49.387
1162.00,49.380
1163.00,49.376
1164.00,49.371
1165.00,49.374
1166.00,49.382
1167.00,49.363
1168.00,49.386
1169.00,49.373
1170.00,49.359
1171.00,49.351
1172.00,49.343
1173.00,49.333
1174.00,49.368
1175.00,49.364
1176.00,49.375
1177.00,49.363
1178.00,49.354
1179.00,49.377
1180.00,49.362
1181.00,49.373
1182.00,49.367
1183.00,49.361
1184.00,49.355
1185.00,49.373
1186.00,49.354
1187.00,49.351
1188.00,49.374
1189.00,49.350
1190.00,49.350
1191.00,49.354
1192.00,49.353
1193.00,49.354
1194.00,49.361
1195.00,49.324
1196.00,49.366
1197.00,49.357
1198.00,49.345
1199.00,49.352
1200.00,49.356
1201.00,49.377
1202.00,49.353
1203.00,49.335
1204.00,49.333
1205.00,49.352
1206.00,49.338
1207.00,49.351
1208.00,49.333
1209.00,49.357
1210.00,49.366
1211.00,49.337
1212.00,49.381
1213.00,49.336
1214.00,49.372
1215.00,49.362
1216.00,49.372
1217.00,49.376
1218.00,49.370
1219.00,49.379
1220.00,49.348
1221.00,49.395
1222.00,49.363
1223.00,49.404
1224.00,49.388
1225.00,49.369
1226.00,49.388
1227.00,49.372
1228.00,49.389
1229.00,49.394
1230.00,49.429
1231.00,49.408
1232.00,49.435
1233.00,49.421
1234.00,49.430
1235.00,49.444
1236.00,49.426
1237.00,49.448
1238.00,49.431
1239.00,49.443
1240.00,49.433
1241.00,49.449
1242.00,49.452
1243.00,49.458
1244.00,49.432
1245.00,49.467
1246.00,49.482
1247.00,49.460
1248.00,49.460
1249.00,49.474
1250.00,49.481
1251.00,49.491
1252.00,49.488
1253.00,49.501
1254.00,49.555
1255.00,49.455
1256.00,49.480
1257.00,49.486
1258.00,49.513
1259.00,49.525
1260.00,49.547
1261.00,49.546
1262.00,49.539
1263.00,49.530
1264.00,49.534
1265.00,49.543
1266.00,49.532
1267.00,49.554
1268.00,49.561
1269.00,49.547
1270.00,49.585
1271.00,49.582
1272.00,49.571
1273.00,49.589
1274.00,49.585
1275.00,49.605
1276.00,49.593
1277.00,49.589
1278.00,49.622
1279.00,49.626
1280.00,49.609
1281.00,49.638
1282.00,49.649
1283.00,49.650
1284.00,49.649
1285.00,49.656
1286.00,49.677
1287.00,49.665
1288.00,49.654
1289.00,49.656
1290.00,49.697
1291.00,49.675
1292.00,49.678
1293.00,49.691
1294.00,49.698
1295.00,49.713
1296.00,49.709
1297.00,49.712
1298.00,49.754
1299.00,49.715
1300.00,49.765
1301.00,49.732
1302.00,49.749
1303.00,49.776
1304.00,49.751
1305.00,49.779
1306.00,49.772
1307.00,49.765
1308.00,49.751
1309.00,49.769
1310.00,49.761
1311.00,49.768
1312.00,49.802
1313.00,49.806
1314.00,49.831
1315.00,49.840
1316.00,49.824
1317.00,49.865
1318.00,49.866
1319.00,49.872
1320.00,49.877
1321.00,50.055
1322.00,50.040
1323.00,50.034
1324.00,50.011
1325.00,50.009
1326.00,50.047
1327.00,50.015
1328.00,50.043
1329.00,50.025
1330.00,50.034
1331.00,50.038
1332.00,50.014
1333.00,50.121
1334.00,50.077
1335.00,50.093
1336.00,50.114
1337.00,50.153
1338.00,50.200
1339.00,50.257
1340.00,50.312
1341.00,50.375
1342.00,50.450
1343.00,50.492
1344.00,50.528
1345.00,50.597
1346.00,50.620
1347.00,50.665
1348.00,50.683
1349.00,50.692
1350.00,50.737
1351.00,50.764
1352.00,50.748
1353.00,50.790
1354.00,50.768
1355.00,50.740
1356.00,50.809
1357.00,50.776
1358.00,50.807
1359.00,50.798
1360.00,50.758
1361.00,50.953
1362.00,50.829
1363.00,50.758
1364.00,50.855
1365.00,50.810
1366.00,50.847
1367.00,50.824
1368.00,50.846
1369.00,50.849
1370.00,50.834
1371.00,50.779
1372.00,50.827
1373.00,50.824
1374.00,50.847
1375.00,50.803
1376.00,50.813
1377.00,50.788
1378.00,50.899
1379.00,50.810
1380.00,50.866
1381.00,50.829
1382.00,50.736
1383.00,50.856
1384.00,50.768
1385.00,50.822
1386.00,50.845
1387.00,50.810
1388.00,50.765
1389.00,50.835
1390.00,50.476
1391.00,50.831
1392.00,50.767
1393.00,50.743
1394.00,50.814
1395.00,50.860
1396.00,50.783
1397.00,50.879
1398.00,50.799
1399.00,50.777
1400.00,50.771
1401.00,50.796
1402.00,50.788
1403.00,50.818
1404.00,50.857
1405.00,50.857
1406.00,50.925
1407.00,50.860
1408.00,50.937
1409.00,50.857
1410.00,50.906
1411.00,50.879
1412.00,50.958
1413.00,50.896
1414.00,50.905
1415.00,50.919
1416.00,50.990
1417.00,50.978
1418.00,50.957
1419.00,50.990
1420.00,51.007
1421.00,51.013
1422.00,51.041
1423.00,51.046
1424.00,51.058
1425.00,51.088
1426.00,51.076
1427.00,51.124
1428.00,51.110
1429.00,51.135
1430.00,51.149
1431.00,51.169
1432.00,51.157
1433.00,51.189
1434.00,51.186
1435.00,51.278
1436.00,51.271
1437.00,51.247
1438.00,51.288
1439.00,51.308
1440.00,51.313
1441.00,51.348
1442.00,51.336
1443.00,51.359
1444.00,51.453
1445.00,51.371
1446.00,51.410
1447.00,51.445
1448.00,51.479
1449.00,51.511
1450.00,51.525
1451.00,51.538
1452.00,51.550
1453.00,51.542
1454.00,51.575
1455.00,51.611
1456.00,51.612
1457.00,51.620
1458.00,51.643
1459.00,51.643
1460.00,51.675
1461.00,51.709
1462.00,51.708
1463.00,51.717
1464.00,51.775
1465.00,51.739
1466.00,51.752
1467.00,51.749
1468.00,51.820
1469.00,51.804
1470.00,51.821
1471.00,51.852
1472.00,51.846
1473.00,51.852
1474.00,51.900
1475.00,51.922
1476.00,51.922
1477.00,51.912
1478.00,51.939
1479.00,51.968
1480.00,51.974
1481.00,51.963
1482.00,52.016
1483.00,52.026
1484.00,52.040
1485.00,52.054
1486.00,52.055
1487.00,52.078
1488.00,52.111
1489.00,52.081
1490.00,52.123
1491.00,52.118
1492.00,52.129
1493.00,52.131
1494.00,52.175
1495.00,52.143
1496.00,52.185
1497.00,52.185
1498.00,52.187
1499.00,52.214
1500.00,52.220
1501.00, 
1502.00, 
1503.00, 
1504.00, 
1505.00, 
1506.00, 
1507.00, 
1508.00, 
1509.00, 
1510.00, 
1511.00, 
1512.00, 
1513.00, 
1514.00, 
1515.00, 
1516.00, 
1517.00, 
1518.00, 
1519.00, 
1520.00, 
1521.00, 
1522.00, 
1523.00, 
1524.00, 
1525.00, 
1526.00, 
1527.00, 
1528.00, 
1529.00, 
1530.00, 
1531.00, 
1532.00, 
1533.00, 
1534.00, 
1535.00, 
1536.00, 
1537.00, 
1538.00, 
1539.00, 
1540.00, 
1541.00, 
1542.00, 
1543.00, 
1544.00, 
1545.00, 
1546.00, 
1547.00, 
1548.00, 
1549.00, 
1550.00, 
1551.00, 
1552.00, 
1553.00, 
1554.00, 
1555.00, 
1556.00, 
1557.00, 
1558.00, 
1559.00, 
1560.00, 
1561.00, 
1562.00, 
1563.00, 
1564.00, 
1565.00, 
1566.00, 
1567.00, 
1568.00, 
1569.00, 
1570.00, 
1571.00, 
1572.00, 
1573.00, 
1574.00, 
1575.00, 
1576.00, 
1577.00, 
1578.00, 
1579.00, 
1580.00, 
1581.00, 
1582.00, 
1583.00, 
1584.00, 
1585.00, 
1586.00, 
1587.00, 
1588.00, 
1589.00, 
1590.00, 
1591.00, 
1592.00, 
1593.00, 
1594.00, 
1595.00, 
1596.00, 
1597.00, 
1598.00, 
1599.00, 
1600.00, 
1601.00, 
1602.00, 
1603.00, 
1604.00, 
1605.00, 
1606.00, 
1607.00, 
1608.00, 
1609.00, 
1610.00, 
1611.00, 
1612.00, 
1613.00, 
1614.00, 
1615.00, 
1616.00, 
1617.00, 
1618.00, 
1619.00, 
1620.00, 
1621.00, 
1622.00, 
1623.00, 
1624.00, 
1625.00, 
1626.00, 
1627.00, 
1628.00, 
1629.00, 
1630.00, 
1631.00, 
1632.00, 
1633.00, 
1634.00, 
1635.00, 
1636.00, 
1637.00, 
1638.00, 
1639.00, 
1640.00, 
1641.00, 
1642.00, 
1643.00, 
1644.00, 
1645.00, 
1646.00, 
1647.00, 
1648.00, 
1649.00, 
1650.00, 
1651.00, 
1652.00, 
1653.00, 
1654.00, 
1655.00, 
1656.00, 
1657.00, 
1658.00, 
1659.00, 
1660.00, 
1661.00, 
1662.00, 
1663.00, 
1664.00, 
1665.00, 
1666.00, 
1667.00, 
1668.00, 
1669.00, 
1670.00, 
1671.00, 
1672.00, 
1673.00, 
1674.00, 
1675.00, 
1676.00, 
1677.00, 
1678.00, 
1679.00, 
1680.00, 
1681.00, 
1682.00, 
1683.00, 
1684.00, 
1685.00, 
1686.00, 
1687.00, 
1688.00, 
1689.00, 
1690.00, 
1691.00, 
1692.00, 
1693.00, 
1694.00, 
1695.00, 
1696.00, 
1697.00, 
1698.00, 
1699.00, 
1700.00, 
1701.00, 
1702.00, 
1703.00, 
1704.00, 
1705.00, 
1706.00, 
1707.00, 
1708.00, 
1709.00, 
1710.00, 
1711.00, 
1712.00, 
1713.00, 
1714.00, 
1715.00, 
1716.00, 
1717.00, 
1718.00, 
1719.00, 
1720.00, 
1721.00, 
1722.00, 
1723.00, 
1724.00, 
1725.00, 
1726.00, 
1727.00, 
1728.00, 
1729.00, 
1730.00, 
1731.00, 
1732.00, 
1733.00, 
1734.00, 
1735.00, 
1736.00, 
1737.00, 
1738.00, 
1739.00, 
1740.00, 
1741.00, 
1742.00, 
1743.00, 
1744.00, 
1745.00, 
1746.00, 
1747.00, 
1748.00, 
1749.00, 
1750.00, 
1751.00, 
1752.00, 
1753.00, 
1754.00, 
1755.00, 
1756.00, 
1757.00, 
1758.00, 
1759.00, 
1760.00, 
1761.00, 
1762.00, 
1763.00, 
1764.00, 
1765.00, 
1766.00, 
1767.00, 
1768.00, 
1769.00, 
1770.00, 
1771.00, 
1772.00, 
1773.00, 
1774.00, 
1775.00, 
1776.00, 
1777.00, 
1778.00, 
1779.00, 
1780.00, 
1781.00, 
1782.00, 
1783.00, 
1784.00, 
1785.00, 
1786.00, 
1787.00, 
1788.00, 
1789.00, 
1790.00, 
1791.00, 
1792.00, 
1793.00, 
1794.00, 
1795.00, 
1796.00, 
1797.00, 
1798.00, 
1799.00, 
1800.00, 
1801.00, 
1802.00, 
1803.00, 
1804.00, 
1805.00, 
1806.00, 
1807.00, 
1808.00, 
1809.00, 
1810.00, 
1811.00, 
1812.00, 
1813.00, 
1814.00, 
1815.00, 
1816.00, 
1817.00, 
1818.00, 
1819.00, 
1820.00, 
1821.00, 
1822.00, 
1823.00, 
1824.00, 
1825.00, 
1826.00, 
1827.00, 
1828.00, 
1829.00, 
1830.00, 
1831.00, 
1832.00, 
1833.00, 
1834.00, 
1835.00, 
1836.00, 
1837.00, 
1838.00, 
1839.00, 
1840.00, 
1841.00, 
1842.00, 
1843.00, 
1844.00, 
1845.00, 
1846.00, 
1847.00, 
1848.00, 
1849.00, 
1850.00, 
1851.00, 
1852.00, 
1853.00, 
1854.00, 
1855.00, 
1856.00, 
1857.00, 
1858.00, 
1859.00, 
1860.00, 
1861.00, 
1862.00, 
1863.00, 
1864.00, 
1865.00, 
1866.00, 
1867.00, 
1868.00, 
1869.00, 
1870.00, 
1871.00, 
1872.00, 
1873.00, 
1874.00, 
1875.00, 
1876.00, 
1877.00, 
1878.00, 
1879.00, 
1880.00, 
1881.00, 
1882.00, 
1883.00, 
1884.00, 
1885.00, 
1886.00, 
1887.00, 
1888.00, 
1889.00, 
1890.00, 
1891.00, 
1892.00, 
1893.00, 
1894.00, 
1895.00, 
1896.00, 
1897.00, 
1898.00, 
1899.00, 
1900.00, 
1901.00, 
1902.00, 
1903.00, 
1904.00, 
1905.00, 
1906.00, 
1907.00, 
1908.00, 
1909.00, 
1910.00, 
1911.00, 
1912.00, 
1913.00, 
1914.00, 
1915.00, 
1916.00, 
1917.00, 
1918.00, 
1919.00, 
1920.00, 
1921.00, 
1922.00, 
1923.00, 
1924.00, 
1925.00, 
1926.00, 
1927.00, 
1928.00, 
1929.00, 
1930.00, 
1931.00, 
1932.00, 
1933.00, 
1934.00, 
1935.00, 
1936.00, 
1937.00, 
1938.00, 
1939.00, 
1940.00, 
1941.00, 
1942.00, 
1943.00, 
1944.00, 
1945.00, 
1946.00, 
1947.00, 
1948.00, 
1949.00, 
1950.00, 
1951.00, 
1952.00, 
1953.00, 
1954.00, 
1955.00, 
1956.00, 
1957.00, 
1958.00, 
1959.00, 
1960.00, 
1961.00, 
1962.00, 
1963.00, 
1964.00, 
1965.00, 
1966.00, 
1967.00, 
1968.00, 
1969.00, 
1970.00, 
1971.00, 
1972.00, 
1973.00, 
1974.00, 
1975.00, 
1976.00, 
1977.00, 
1978.00, 
1979.00, 
1980.00, 
1981.00, 
1982.00, 
1983.00, 
1984.00, 
1985.00, 
1986.00, 
1987.00, 
1988.00, 
1989.00, 
1990.00, 
1991.00, 
1992.00, 
1993.00, 
1994.00, 
1995.00, 
1996.00, 
1997.00, 
1998.00, 
1999.00, 
2000.00, 
2001.00, 
2002.00, 
2003.00, 
2004.00, 
2005.00, 
2006.00, 
2007.00, 
2008.00, 
2009.00, 
2010.00, 
2011.00, 
2012.00, 
2013.00, 
2014.00, 
2015.00, 
2016.00, 
2017.00, 
2018.00, 
2019.00, 
2020.00, 
2021.00, 
2022.00, 
2023.00, 
2024.00, 
2025.00, 
2026.00, 
2027.00, 
2028.00, 
2029.00, 
2030.00, 
2031.00, 
2032.00, 
2033.00, 
2034.00, 
2035.00, 
2036.00, 
2037.00, 
2038.00, 
2039.00, 
2040.00, 
2041.00, 
2042.00, 
2043.00, 
2044.00, 
2045.00, 
2046.00, 
2047.00, 
2048.00, 
2049.00, 
2050.00, 
2051.00, 
2052.00, 
2053.00, 
2054.00, 
2055.00, 
2056.00, 
2057.00, 
2058.00, 
2059.00, 
2060.00, 
2061.00, 
2062.00, 
2063.00, 
2064.00, 
2065.00, 
2066.00, 
2067.00, 
2068.00, 
2069.00, 
2070.00, 
2071.00, 
2072.00, 
2073.00, 
2074.00, 
2075.00, 
2076.00, 
2077.00, 
2078.00, 
2079.00, 
2080.00, 
2081.00, 
2082.00, 
2083.00, 
2084.00, 
2085.00, 
2086.00, 
2087.00, 
2088.00, 
2089.00, 
2090.00, 
2091.00, 
2092.00, 
2093.00, 
2094.00, 
2095.00, 
2096.00, 
2097.00, 
2098.00, 
2099.00, 
2100.00, 
2101.00, 
2102.00, 
2103.00, 
2104.00, 
2105.00, 
2106.00, 
2107.00, 
2108.00, 
2109.00, 
2110.00, 
2111.00, 
2112.00, 
2113.00, 
2114.00, 
2115.00, 
2116.00, 
2117.00, 
2118.00, 
2119.00, 
2120.00, 
2121.00, 
2122.00, 
2123.00, 
2124.00, 
2125.00, 
2126.00, 
2127.00, 
2128.00, 
2129.00, 
2130.00, 
2131.00, 
2132.00, 
2133.00, 
2134.00, 
2135.00, 
2136.00, 
2137.00, 
2138.00, 
2139.00, 
2140.00, 
2141.00, 
2142.00, 
2143.00, 
2144.00, 
2145.00, 
2146.00, 
2147.00, 
2148.00, 
2149.00, 
2150.00, 
2151.00, 
2152.00, 
2153.00, 
2154.00, 
2155.00, 
2156.00, 
2157.00, 
2158.00, 
2159.00, 
2160.00, 
2161.00, 
2162.00, 
2163.00, 
2164.00, 
2165.00, 
2166.00, 
2167.00, 
2168.00, 
2169.00, 
2170.00, 
2171.00, 
2172.00, 
2173.00, 
2174.00, 
2175.00, 
2176.00, 
2177.00, 
2178.00, 
2179.00, 
2180.00, 
2181.00, 
2182.00, 
2183.00, 
2184.00, 
2185.00, 
2186.00, 
2187.00, 
2188.00, 
2189.00, 
2190.00, 
2191.00, 
2192.00, 
2193.00, 
2194.00, 
2195.00, 
2196.00, 
2197.00, 
2198.00, 
2199.00, 
2200.00, 
2201.00, 
2202.00, 
2203.00, 
2204.00, 
2205.00, 
2206.00, 
2207.00, 
2208.00, 
2209.00, 
2210.00, 
2211.00, 
2212.00, 
2213.00, 
2214.00, 
2215.00, 
2216.00, 
2217.00, 
2218.00, 
2219.00, 
2220.00, 
2221.00, 
2222.00, 
2223.00, 
2224.00, 
2225.00, 
2226.00, 
2227.00, 
2228.00, 
2229.00, 
2230.00, 
2231.00, 
2232.00, 
2233.00, 
2234.00, 
2235.00, 
2236.00, 
2237.00, 
2238.00, 
2239.00, 
2240.00, 
2241.00, 
2242.00, 
2243.00, 
2244.00, 
2245.00, 
2246.00, 
2247.00, 
2248.00, 
2249.00, 
2250.00, 
2251.00, 
2252.00, 
2253.00, 
2254.00, 
2255.00, 
2256.00, 
2257.00, 
2258.00, 
2259.00, 
2260.00, 
2261.00, 
2262.00, 
2263.00, 
2264.00, 
2265.00, 
2266.00, 
2267.00, 
2268.00, 
2269.00, 
2270.00, 
2271.00, 
2272.00, 
2273.00, 
2274.00, 
2275.00, 
2276.00, 
2277.00, 
2278.00, 
2279.00, 
2280.00, 
2281.00, 
2282.00, 
2283.00, 
2284.00, 
2285.00, 
2286.00, 
2287.00, 
2288.00, 
2289.00, 
2290.00, 
2291.00, 
2292.00, 
2293.00, 
2294.00, 
2295.00, 
2296.00, 
2297.00, 
2298.00, 
2299.00, 
2300.00, 
2301.00, 
2302.00, 
2303.00, 
2304.00, 
2305.00, 
2306.00, 
2307.00, 
2308.00, 
2309.00, 
2310.00, 
2311.00, 
2312.00, 
2313.00, 
2314.00, 
2315.00, 
2316.00, 
2317.00, 
2318.00, 
2319.00, 
2320.00, 
2321.00, 
2322.00, 
2323.00, 
2324.00, 
2325.00, 
2326.00, 
2327.00, 
2328.00, 
2329.00, 
2330.00, 
2331.00, 
2332.00, 
2333.00, 
2334.00, 
2335.00, 
2336.00, 
2337.00, 
2338.00, 
2339.00, 
2340.00, 
2341.00, 
2342.00, 
2343.00, 
2344.00, 
2345.00, 
2346.00, 
2347.00, 
2348.00, 
2349.00, 
2350.00, 
2351.00, 
2352.00, 
2353.00, 
2354.00, 
2355.00, 
2356.00, 
2357.00, 
2358.00, 
2359.00, 
2360.00, 
2361.00, 
2362.00, 
2363.00, 
2364.00, 
2365.00, 
2366.00, 
2367.00, 
2368.00, 
2369.00, 
2370.00, 
2371.00, 
2372.00, 
2373.00, 
2374.00, 
2375.00, 
2376.00, 
2377.00, 
2378.00, 
2379.00, 
2380.00, 
2381.00, 
2382.00, 
2383.00, 
2384.00, 
2385.00, 
2386.00, 
2387.00, 
2388.00, 
2389.00, 
2390.00, 
2391.00, 
2392.00, 
2393.00, 
2394.00, 
2395.00, 
2396.00, 
2397.00, 
2398.00, 
2399.00, 
2400.00, 
2401.00, 
2402.00, 
2403.00, 
2404.00, 
2405.00, 
2406.00, 
2407.00, 
2408.00, 
2409.00, 
2410.00, 
2411.00, 
2412.00, 
2413.00, 
2414.00, 
2415.00, 
2416.00, 
2417.00, 
2418.00, 
2419.00, 
2420.00, 
2421.00, 
2422.00, 
2423.00, 
2424.00, 
2425.00, 
2426.00, 
2427.00, 
2428.00, 
2429.00, 
2430.00, 
2431.00, 
2432.00, 
2433.00, 
2434.00, 
2435.00, 
2436.00, 
2437.00, 
2438.00, 
2439.00, 
2440.00, 
2441.00, 
2442.00, 
2443.00, 
2444.00, 
2445.00, 
2446.00, 
2447.00, 
2448.00, 
2449.00, 
2450.00, 
2451.00, 
2452.00, 
2453.00, 
2454.00, 
2455.00, 
2456.00, 
2457.00, 
2458.00, 
2459.00, 
2460.00, 
2461.00, 
2462.00, 
2463.00, 
2464.00, 
2465.00, 
2466.00, 
2467.00, 
2468.00, 
2469.00, 
2470.00, 
2471.00, 
2472.00, 
2473.00, 
2474.00, 
2475.00, 
2476.00, 
2477.00, 
2478.00, 
2479.00, 
2480.00, 
2481.00, 
2482.00, 
2483.00, 
2484.00, 
2485.00, 
2486.00, 
2487.00, 
2488.00, 
2489.00, 
2490.00, 
2491.00, 
2492.00, 
2493.00, 
2494.00, 
2495.00, 
2496.00, 
2497.00, 
2498.00, 
2499.00, 
2500.00, 
2501.00, 
2502.00, 
2503.00, 
2504.00, 
2505.00, 
2506.00, 
2507.00, 
2508.00, 
2509.00, 
2510.00, 
2511.00, 
2512.00, 
2513.00, 
2514.00, 
2515.00, 
2516.00, 
2517.00, 
2518.00, 
2519.00, 
2520.00, 
2521.00, 
2522.00, 
2523.00, 
2524.00, 
2525.00, 
2526.00, 
2527.00, 
2528.00, 
2529.00, 
2530.00, 
2531.00, 
2532.00, 
2533.00, 
2534.00, 
2535.00, 
2536.00, 
2537.00, 
2538.00, 
2539.00, 
2540.00, 
2541.00, 
2542.00, 
2543.00, 
2544.00, 
2545.00, 
2546.00, 
2547.00, 
2548.00, 
2549.00, 
2550.00, 
2551.00, 
2552.00, 
2553.00, 
2554.00, 
2555.00, 
2556.00, 
2557.00, 
2558.00, 
2559.00, 
2560.00, 
2561.00, 
2562.00, 
2563.00, 
2564.00, 
2565.00, 
2566.00, 
2567.00, 
2568.00, 
2569.00, 
2570.00, 
2571.00, 
2572.00, 
2573.00, 
2574.00, 
2575.00, 
2576.00, 
2577.00, 
2578.00, 
2579.00, 
2580.00, 
2581.00, 
2582.00, 
2583.00, 
2584.00, 
2585.00, 
2586.00, 
2587.00, 
2588.00, 
2589.00, 
2590.00, 
2591.00, 
2592.00, 
2593.00, 
2594.00, 
2595.00, 
2596.00, 
2597.00, 
2598.00, 
2599.00, 
2600.00, 
