"2cP1 - RawData"
"Wavelength nm.","T%"
200.00,0.005
201.00,0.002
202.00,-0.001
203.00,0.003
204.00,0.003
205.00,0.000
206.00,0.001
207.00,0.002
208.00,0.000
209.00,0.000
210.00,0.001
211.00,0.000
212.00,0.000
213.00,0.001
214.00,0.001
215.00,-0.001
216.00,0.001
217.00,-0.001
218.00,-0.001
219.00,0.003
220.00,0.003
221.00,0.002
222.00,0.003
223.00,0.003
224.00,-0.000
225.00,0.003
226.00,0.001
227.00,-0.001
228.00,0.001
229.00,-0.001
230.00,0.002
231.00,-0.001
232.00,-0.001
233.00,0.000
234.00,-0.000
235.00,0.002
236.00,0.001
237.00,-0.001
238.00,0.002
239.00,-0.001
240.00,0.000
241.00,-0.002
242.00,0.002
243.00,-0.000
244.00,0.000
245.00,0.003
246.00,0.001
247.00,-0.000
248.00,0.001
249.00,0.000
250.00,0.001
251.00,0.000
252.00,0.001
253.00,0.000
254.00,0.002
255.00,-0.001
256.00,0.000
257.00,0.001
258.00,0.000
259.00,-0.000
260.00,-0.000
261.00,0.000
262.00,0.001
263.00,-0.001
264.00,0.001
265.00,-0.002
266.00,0.000
267.00,0.001
268.00,0.000
269.00,-0.000
270.00,0.001
271.00,-0.000
272.00,0.001
273.00,0.000
274.00,-0.001
275.00,0.003
276.00,0.000
277.00,0.001
278.00,0.001
279.00,-0.000
280.00,0.001
281.00,0.001
282.00,0.000
283.00,0.001
284.00,-0.001
285.00,-0.000
286.00,-0.002
287.00,-0.000
288.00,-0.001
289.00,-0.001
290.00,0.001
291.00,0.000
292.00,0.000
293.00,0.001
294.00,-0.001
295.00,-0.000
296.00,-0.000
297.00,0.000
298.00,0.000
299.00,0.001
300.00,0.001
301.00,0.001
302.00,0.005
303.00,0.008
304.00,0.011
305.00,0.018
306.00,0.027
307.00,0.041
308.00,0.062
309.00,0.097
310.00,0.137
311.00,0.192
312.00,0.256
313.00,0.343
314.00,0.454
315.00,0.590
316.00,0.758
317.00,0.970
318.00,1.179
319.00,1.470
320.00,1.792
321.00,2.141
322.00,2.538
323.00,2.987
324.00,3.472
325.00,3.961
326.00,4.454
327.00,5.056
328.00,5.642
329.00,6.244
330.00,6.877
331.00,7.534
332.00,8.199
333.00,8.857
334.00,9.543
335.00,10.203
336.00,10.876
337.00,11.549
338.00,12.227
339.00,12.880
340.00,13.501
341.00,14.083
342.00,14.655
343.00,15.233
344.00,15.745
345.00,16.249
346.00,16.715
347.00,17.224
348.00,17.645
349.00,18.047
350.00,18.432
351.00,18.787
352.00,19.118
353.00,19.465
354.00,19.743
355.00,20.019
356.00,20.312
357.00,20.576
358.00,20.783
359.00,21.000
360.00,21.164
361.00,21.312
362.00,21.539
363.00,21.672
364.00,21.828
365.00,21.934
366.00,21.989
367.00,22.160
368.00,22.225
369.00,22.266
370.00,22.329
371.00,22.355
372.00,22.407
373.00,22.417
374.00,22.340
375.00,22.362
376.00,22.350
377.00,22.323
378.00,22.262
379.00,22.217
380.00,22.208
381.00,22.199
382.00,22.182
383.00,22.221
384.00,22.227
385.00,22.277
386.00,22.276
387.00,22.350
388.00,22.415
389.00,22.418
390.00,22.465
391.00,22.509
392.00,22.501
393.00,22.501
394.00,22.540
395.00,22.577
396.00,22.561
397.00,22.598
398.00,22.567
399.00,22.570
400.00,22.597
401.00,22.579
402.00,22.595
403.00,22.593
404.00,22.591
405.00,22.560
406.00,22.532
407.00,22.498
408.00,22.473
409.00,22.431
410.00,22.461
411.00,22.396
412.00,22.337
413.00,22.346
414.00,22.438
415.00,22.411
416.00,22.458
417.00,22.468
418.00,22.451
419.00,22.523
420.00,22.507
421.00,22.603
422.00,22.619
423.00,22.654
424.00,22.713
425.00,22.768
426.00,22.727
427.00,22.779
428.00,22.807
429.00,22.867
430.00,22.892
431.00,22.960
432.00,22.993
433.00,23.056
434.00,23.101
435.00,23.134
436.00,23.199
437.00,23.300
438.00,23.328
439.00,23.408
440.00,23.465
441.00,23.569
442.00,23.623
443.00,23.703
444.00,23.774
445.00,23.847
446.00,23.972
447.00,24.054
448.00,24.144
449.00,24.229
450.00,24.291
451.00,24.440
452.00,24.506
453.00,24.646
454.00,24.732
455.00,24.825
456.00,24.963
457.00,25.059
458.00,25.155
459.00,25.273
460.00,25.379
461.00,25.523
462.00,25.618
463.00,25.727
464.00,25.864
465.00,25.991
466.00,26.055
467.00,26.228
468.00,26.325
469.00,26.464
470.00,26.522
471.00,26.633
472.00,26.747
473.00,26.821
474.00,26.952
475.00,27.072
476.00,27.181
477.00,27.304
478.00,27.436
479.00,27.590
480.00,27.697
481.00,27.865
482.00,28.030
483.00,28.120
484.00,28.311
485.00,28.439
486.00,28.571
487.00,28.690
488.00,28.842
489.00,29.038
490.00,29.129
491.00,29.289
492.00,29.487
493.00,29.537
494.00,29.582
495.00,29.741
496.00,29.884
497.00,29.949
498.00,30.108
499.00,30.285
500.00,30.338
501.00,30.499
502.00,30.627
503.00,30.790
504.00,30.873
505.00,30.984
506.00,31.127
507.00,31.218
508.00,31.295
509.00,31.463
510.00,31.599
511.00,31.718
512.00,31.779
513.00,31.922
514.00,32.065
515.00,32.162
516.00,32.232
517.00,32.368
518.00,32.537
519.00,32.604
520.00,32.705
521.00,32.763
522.00,32.901
523.00,32.929
524.00,33.015
525.00,33.118
526.00,33.229
527.00,33.295
528.00,33.396
529.00,33.428
530.00,33.577
531.00,33.773
532.00,33.840
533.00,33.965
534.00,34.042
535.00,34.109
536.00,34.269
537.00,34.294
538.00,34.422
539.00,34.572
540.00,34.508
541.00,34.594
542.00,34.656
543.00,34.720
544.00,34.820
545.00,34.882
546.00,34.944
547.00,35.043
548.00,35.128
549.00,35.121
550.00,35.332
551.00,35.344
552.00,35.340
553.00,35.515
554.00,35.550
555.00,35.599
556.00,35.652
557.00,35.662
558.00,35.753
559.00,35.872
560.00,35.935
561.00,35.989
562.00,36.069
563.00,36.105
564.00,36.182
565.00,36.197
566.00,36.223
567.00,36.332
568.00,36.286
569.00,36.323
570.00,36.398
571.00,36.459
572.00,36.462
573.00,36.488
574.00,36.579
575.00,36.621
576.00,36.633
577.00,36.705
578.00,36.806
579.00,36.866
580.00,36.967
581.00,37.030
582.00,37.091
583.00,37.210
584.00,37.311
585.00,37.313
586.00,37.456
587.00,37.543
588.00,37.460
589.00,37.556
590.00,37.601
591.00,37.608
592.00,37.616
593.00,37.709
594.00,37.754
595.00,37.710
596.00,37.806
597.00,37.875
598.00,37.941
599.00,37.951
600.00,38.135
601.00,38.094
602.00,37.971
603.00,38.065
604.00,38.212
605.00,38.275
606.00,38.369
607.00,38.409
608.00,38.459
609.00,38.478
610.00,38.516
611.00,38.481
612.00,38.643
613.00,38.625
614.00,38.651
615.00,38.760
616.00,38.857
617.00,38.855
618.00,38.999
619.00,39.000
620.00,39.014
621.00,39.058
622.00,39.131
623.00,39.273
624.00,39.264
625.00,39.310
626.00,39.344
627.00,39.438
628.00,39.470
629.00,39.545
630.00,39.611
631.00,39.700
632.00,39.750
633.00,39.776
634.00,39.866
635.00,39.982
636.00,40.048
637.00,40.150
638.00,40.188
639.00,40.228
640.00,40.310
641.00,40.339
642.00,40.442
643.00,40.470
644.00,40.516
645.00,40.659
646.00,40.723
647.00,40.844
648.00,40.930
649.00,40.938
650.00,40.987
651.00,41.077
652.00,41.226
653.00,41.204
654.00,41.296
655.00,41.399
656.00,41.538
657.00,41.732
658.00,41.698
659.00,41.626
660.00,41.768
661.00,41.823
662.00,42.066
663.00,42.158
664.00,42.185
665.00,42.273
666.00,42.375
667.00,42.507
668.00,42.571
669.00,42.653
670.00,42.768
671.00,42.765
672.00,42.880
673.00,42.958
674.00,43.024
675.00,43.138
676.00,43.231
677.00,43.312
678.00,43.350
679.00,43.418
680.00,43.526
681.00,43.592
682.00,43.717
683.00,43.706
684.00,43.874
685.00,43.979
686.00,43.979
687.00,44.167
688.00,44.243
689.00,44.216
690.00,44.380
691.00,44.424
692.00,44.453
693.00,44.610
694.00,44.744
695.00,44.767
696.00,44.799
697.00,44.910
698.00,44.889
699.00,45.060
700.00,45.127
701.00,45.153
702.00,45.428
703.00,45.496
704.00,45.541
705.00,45.520
706.00,45.676
707.00,45.764
708.00,45.733
709.00,45.837
710.00,46.174
711.00,45.966
712.00,45.998
713.00,46.098
714.00,46.057
715.00,46.279
716.00,46.182
717.00,46.308
718.00,46.407
719.00,46.357
720.00,46.531
721.00,50.617
722.00,50.620
723.00,50.676
724.00,50.734
725.00,50.697
726.00,50.689
727.00,50.824
728.00,50.740
729.00,50.799
730.00,50.865
731.00,50.819
732.00,50.803
733.00,50.935
734.00,50.905
735.00,50.993
736.00,50.980
737.00,51.028
738.00,51.017
739.00,51.073
740.00,51.100
741.00,51.148
742.00,51.215
743.00,51.169
744.00,51.191
745.00,51.159
746.00,51.153
747.00,51.192
748.00,51.169
749.00,51.138
750.00,51.227
751.00,51.180
752.00,51.132
753.00,51.117
754.00,51.201
755.00,51.185
756.00,51.168
757.00,51.298
758.00,51.192
759.00,51.260
760.00,51.233
761.00,51.263
762.00,51.311
763.00,51.256
764.00,51.289
765.00,51.314
766.00,51.325
767.00,51.329
768.00,51.346
769.00,51.296
770.00,51.393
771.00,51.324
772.00,51.376
773.00,51.381
774.00,51.462
775.00,51.488
776.00,51.408
777.00,51.476
778.00,51.460
779.00,51.463
780.00,51.402
781.00,51.381
782.00,51.410
783.00,51.335
784.00,51.448
785.00,51.388
786.00,51.442
787.00,51.442
788.00,51.430
789.00,51.395
790.00,51.325
791.00,51.415
792.00,51.449
793.00,51.403
794.00,51.372
795.00,51.311
796.00,51.304
797.00,51.270
798.00,51.277
799.00,51.320
800.00,51.294
801.00,51.321
802.00,51.252
803.00,51.313
804.00,51.155
805.00,51.144
806.00,51.185
807.00,51.178
808.00,51.129
809.00,51.099
810.00,51.093
811.00,51.070
812.00,51.149
813.00,51.045
814.00,51.099
815.00,51.139
816.00,51.037
817.00,51.060
818.00,50.981
819.00,51.003
820.00,50.970
821.00,50.930
822.00,51.013
823.00,50.965
824.00,50.965
825.00,50.915
826.00,51.011
827.00,51.064
828.00,50.897
829.00,50.862
830.00,50.847
831.00,53.437
832.00,53.439
833.00,53.384
834.00,53.373
835.00,53.310
836.00,53.326
837.00,53.268
838.00,53.210
839.00,53.238
840.00,53.209
841.00,53.235
842.00,53.191
843.00,53.224
844.00,53.143
845.00,53.196
846.00,53.178
847.00,53.147
848.00,53.065
849.00,53.039
850.00,52.982
851.00,52.981
852.00,52.985
853.00,52.920
854.00,52.843
855.00,52.927
856.00,52.872
857.00,52.846
858.00,52.798
859.00,52.772
860.00,52.769
861.00,52.769
862.00,52.708
863.00,52.735
864.00,52.670
865.00,52.706
866.00,52.698
867.00,52.680
868.00,52.681
869.00,52.640
870.00,52.638
871.00,52.600
872.00,52.617
873.00,52.594
874.00,52.603
875.00,52.532
876.00,52.606
877.00,52.556
878.00,52.553
879.00,52.519
880.00,52.506
881.00,52.480
882.00,52.481
883.00,52.439
884.00,52.412
885.00,52.372
886.00,52.383
887.00,52.386
888.00,52.366
889.00,52.361
890.00,52.334
891.00,52.268
892.00,52.290
893.00,52.253
894.00,52.238
895.00,52.229
896.00,52.176
897.00,52.168
898.00,52.159
899.00,52.151
900.00,52.147
901.00,52.119
902.00,52.143
903.00,52.115
904.00,52.081
905.00,52.068
906.00,52.059
907.00,52.040
908.00,51.992
909.00,52.003
910.00,51.960
911.00,51.975
912.00,51.952
913.00,51.902
914.00,51.857
915.00,51.866
916.00,51.839
917.00,51.806
918.00,51.805
919.00,51.807
920.00,51.767
921.00,51.750
922.00,51.739
923.00,51.719
924.00,51.695
925.00,51.651
926.00,51.768
927.00,51.639
928.00,51.613
929.00,51.624
930.00,51.577
931.00,51.581
932.00,51.555
933.00,51.544
934.00,51.511
935.00,51.496
936.00,51.465
937.00,51.458
938.00,51.425
939.00,51.424
940.00,51.401
941.00,51.407
942.00,51.363
943.00,51.361
944.00,51.331
945.00,51.323
946.00,51.331
947.00,51.290
948.00,51.267
949.00,51.248
950.00,51.226
951.00,51.208
952.00,51.189
953.00,51.148
954.00,51.130
955.00,51.085
956.00,51.076
957.00,51.010
958.00,51.044
959.00,50.957
960.00,51.004
961.00,50.973
962.00,50.993
963.00,50.951
964.00,50.930
965.00,50.908
966.00,50.915
967.00,50.926
968.00,50.882
969.00,50.913
970.00,50.875
971.00,50.904
972.00,50.906
973.00,50.880
974.00,50.905
975.00,50.871
976.00,50.902
977.00,50.882
978.00,50.911
979.00,50.880
980.00,50.891
981.00,50.895
982.00,50.867
983.00,50.866
984.00,50.856
985.00,50.881
986.00,50.820
987.00,50.846
988.00,50.845
989.00,50.836
990.00,50.812
991.00,50.777
992.00,50.811
993.00,50.767
994.00,50.743
995.00,50.752
996.00,50.725
997.00,50.713
998.00,50.695
999.00,50.725
1000.00,50.669
1001.00,50.677
1002.00,50.648
1003.00,50.658
1004.00,50.648
1005.00,50.619
1006.00,50.622
1007.00,50.606
1008.00,50.596
1009.00,50.587
1010.00,50.551
1011.00,50.558
1012.00,50.521
1013.00,50.514
1014.00,50.476
1015.00,50.494
1016.00,50.456
1017.00,50.455
1018.00,50.452
1019.00,50.401
1020.00,50.401
1021.00,50.391
1022.00,50.386
1023.00,50.341
1024.00,50.337
1025.00,50.332
1026.00,50.332
1027.00,50.291
1028.00,50.301
1029.00,50.287
1030.00,50.259
1031.00,50.243
1032.00,50.206
1033.00,50.210
1034.00,50.169
1035.00,50.124
1036.00,50.126
1037.00,50.110
1038.00,50.096
1039.00,50.068
1040.00,50.079
1041.00,50.028
1042.00,50.029
1043.00,50.006
1044.00,50.035
1045.00,50.009
1046.00,50.001
1047.00,50.022
1048.00,50.024
1049.00,50.027
1050.00,50.033
1051.00,50.066
1052.00,50.077
1053.00,50.085
1054.00,50.087
1055.00,50.092
1056.00,50.103
1057.00,50.101
1058.00,50.087
1059.00,50.084
1060.00,50.098
1061.00,50.132
1062.00,50.070
1063.00,50.078
1064.00,50.069
1065.00,50.063
1066.00,50.047
1067.00,50.036
1068.00,50.042
1069.00,50.007
1070.00,50.004
1071.00,49.974
1072.00,49.996
1073.00,49.975
1074.00,49.965
1075.00,49.955
1076.00,49.945
1077.00,49.926
1078.00,49.920
1079.00,49.897
1080.00,49.915
1081.00,49.887
1082.00,49.874
1083.00,49.879
1084.00,49.874
1085.00,49.858
1086.00,49.854
1087.00,49.848
1088.00,49.849
1089.00,49.864
1090.00,49.825
1091.00,49.818
1092.00,49.801
1093.00,49.785
1094.00,49.781
1095.00,49.770
1096.00,49.751
1097.00,49.740
1098.00,49.751
1099.00,49.743
1100.00,49.727
1101.00,49.709
1102.00,49.703
1103.00,49.698
1104.00,49.682
1105.00,49.667
1106.00,49.660
1107.00,49.645
1108.00,49.646
1109.00,49.649
1110.00,49.636
1111.00,49.625
1112.00,49.607
1113.00,49.600
1114.00,49.607
1115.00,49.601
1116.00,49.596
1117.00,49.569
1118.00,49.566
1119.00,49.561
1120.00,49.556
1121.00,49.551
1122.00,49.537
1123.00,49.528
1124.00,49.535
1125.00,49.518
1126.00,49.512
1127.00,49.515
1128.00,49.484
1129.00,49.469
1130.00,49.478
1131.00,49.471
1132.00,49.468
1133.00,49.458
1134.00,49.433
1135.00,49.430
1136.00,49.424
1137.00,49.420
1138.00,49.424
1139.00,49.424
1140.00,49.408
1141.00,49.403
1142.00,49.407
1143.00,49.414
1144.00,49.392
1145.00,49.375
1146.00,49.388
1147.00,49.373
1148.00,49.361
1149.00,49.371
1150.00,49.377
1151.00,49.377
1152.00,49.360
1153.00,49.348
1154.00,49.341
1155.00,49.355
1156.00,49.329
1157.00,49.345
1158.00,49.337
1159.00,49.316
1160.00,49.322
1161.00,49.326
1162.00,49.310
1163.00,49.304
1164.00,49.298
1165.00,49.310
1166.00,49.305
1167.00,49.307
1168.00,49.320
1169.00,49.316
1170.00,49.305
1171.00,49.274
1172.00,49.288
1173.00,49.279
1174.00,49.287
1175.00,49.281
1176.00,49.290
1177.00,49.276
1178.00,49.271
1179.00,49.290
1180.00,49.269
1181.00,49.286
1182.00,49.283
1183.00,49.272
1184.00,49.261
1185.00,49.282
1186.00,49.273
1187.00,49.273
1188.00,49.261
1189.00,49.249
1190.00,49.250
1191.00,49.253
1192.00,49.261
1193.00,49.245
1194.00,49.268
1195.00,49.224
1196.00,49.254
1197.00,49.253
1198.00,49.241
1199.00,49.237
1200.00,49.225
1201.00,49.238
1202.00,49.230
1203.00,49.227
1204.00,49.214
1205.00,49.228
1206.00,49.220
1207.00,49.238
1208.00,49.220
1209.00,49.216
1210.00,49.230
1211.00,49.212
1212.00,49.236
1213.00,49.200
1214.00,49.221
1215.00,49.207
1216.00,49.212
1217.00,49.229
1218.00,49.213
1219.00,49.220
1220.00,49.196
1221.00,49.226
1222.00,49.202
1223.00,49.222
1224.00,49.225
1225.00,49.200
1226.00,49.213
1227.00,49.201
1228.00,49.207
1229.00,49.215
1230.00,49.251
1231.00,49.233
1232.00,49.250
1233.00,49.236
1234.00,49.253
1235.00,49.247
1236.00,49.240
1237.00,49.238
1238.00,49.242
1239.00,49.242
1240.00,49.239
1241.00,49.249
1242.00,49.248
1243.00,49.269
1244.00,49.236
1245.00,49.259
1246.00,49.270
1247.00,49.268
1248.00,49.264
1249.00,49.275
1250.00,49.277
1251.00,49.274
1252.00,49.283
1253.00,49.262
1254.00,49.292
1255.00,49.287
1256.00,49.277
1257.00,49.271
1258.00,49.295
1259.00,49.291
1260.00,49.318
1261.00,49.306
1262.00,49.296
1263.00,49.298
1264.00,49.317
1265.00,49.315
1266.00,49.316
1267.00,49.322
1268.00,49.334
1269.00,49.324
1270.00,49.333
1271.00,49.335
1272.00,49.340
1273.00,49.338
1274.00,49.357
1275.00,49.360
1276.00,49.363
1277.00,49.346
1278.00,49.357
1279.00,49.359
1280.00,49.360
1281.00,49.372
1282.00,49.393
1283.00,49.361
1284.00,49.369
1285.00,49.359
1286.00,49.376
1287.00,49.371
1288.00,49.366
1289.00,49.376
1290.00,49.394
1291.00,49.391
1292.00,49.404
1293.00,49.392
1294.00,49.416
1295.00,49.418
1296.00,49.421
1297.00,49.424
1298.00,49.439
1299.00,49.415
1300.00,49.424
1301.00,49.437
1302.00,49.433
1303.00,49.465
1304.00,49.439
1305.00,49.461
1306.00,49.471
1307.00,49.487
1308.00,49.480
1309.00,49.478
1310.00,49.479
1311.00,49.479
1312.00,49.486
1313.00,49.483
1314.00,49.490
1315.00,49.504
1316.00,49.501
1317.00,49.540
1318.00,49.524
1319.00,49.523
1320.00,49.556
1321.00,49.704
1322.00,49.714
1323.00,49.704
1324.00,49.696
1325.00,49.685
1326.00,49.726
1327.00,49.682
1328.00,49.690
1329.00,49.704
1330.00,49.702
1331.00,49.695
1332.00,49.670
1333.00,49.779
1334.00,49.736
1335.00,49.744
1336.00,49.770
1337.00,49.809
1338.00,49.861
1339.00,49.909
1340.00,49.980
1341.00,50.018
1342.00,50.105
1343.00,50.151
1344.00,50.179
1345.00,50.248
1346.00,50.276
1347.00,50.312
1348.00,50.322
1349.00,50.346
1350.00,50.380
1351.00,50.390
1352.00,50.392
1353.00,50.428
1354.00,50.429
1355.00,50.349
1356.00,50.425
1357.00,50.400
1358.00,50.391
1359.00,50.427
1360.00,50.433
1361.00,50.424
1362.00,50.338
1363.00,50.476
1364.00,50.450
1365.00,50.394
1366.00,50.672
1367.00,50.581
1368.00,50.358
1369.00,50.391
1370.00,50.406
1371.00,50.323
1372.00,50.380
1373.00,50.388
1374.00,50.370
1375.00,50.366
1376.00,50.375
1377.00,50.351
1378.00,50.401
1379.00,50.395
1380.00,50.398
1381.00,50.407
1382.00,50.243
1383.00,50.357
1384.00,50.317
1385.00,50.330
1386.00,50.404
1387.00,50.329
1388.00,50.322
1389.00,50.361
1390.00,50.384
1391.00,50.361
1392.00,50.353
1393.00,50.369
1394.00,50.343
1395.00,50.296
1396.00,50.269
1397.00,50.363
1398.00,50.402
1399.00,50.336
1400.00,50.281
1401.00,50.348
1402.00,50.398
1403.00,50.361
1404.00,50.348
1405.00,50.397
1406.00,50.382
1407.00,50.237
1408.00,50.443
1409.00,50.359
1410.00,50.416
1411.00,50.401
1412.00,50.480
1413.00,50.363
1414.00,50.410
1415.00,50.441
1416.00,50.498
1417.00,50.506
1418.00,50.467
1419.00,50.457
1420.00,50.491
1421.00,50.490
1422.00,50.505
1423.00,50.510
1424.00,50.534
1425.00,50.544
1426.00,50.553
1427.00,50.603
1428.00,50.621
1429.00,50.622
1430.00,50.631
1431.00,50.623
1432.00,50.633
1433.00,50.664
1434.00,50.654
1435.00,50.696
1436.00,50.708
1437.00,50.694
1438.00,50.716
1439.00,50.753
1440.00,50.756
1441.00,50.768
1442.00,50.759
1443.00,50.801
1444.00,50.830
1445.00,50.757
1446.00,50.801
1447.00,50.860
1448.00,50.888
1449.00,50.891
1450.00,50.888
1451.00,50.901
1452.00,50.922
1453.00,50.944
1454.00,50.934
1455.00,50.967
1456.00,50.972
1457.00,50.969
1458.00,50.996
1459.00,51.004
1460.00,51.022
1461.00,51.044
1462.00,51.057
1463.00,51.076
1464.00,51.100
1465.00,51.096
1466.00,51.107
1467.00,51.121
1468.00,51.148
1469.00,51.167
1470.00,51.150
1471.00,51.172
1472.00,51.185
1473.00,51.188
1474.00,51.224
1475.00,51.232
1476.00,51.231
1477.00,51.238
1478.00,51.255
1479.00,51.268
1480.00,51.289
1481.00,51.273
1482.00,51.304
1483.00,51.334
1484.00,51.334
1485.00,51.365
1486.00,51.360
1487.00,51.375
1488.00,51.382
1489.00,51.371
1490.00,51.400
1491.00,51.396
1492.00,51.407
1493.00,51.414
1494.00,51.444
1495.00,51.437
1496.00,51.436
1497.00,51.455
1498.00,51.432
1499.00,51.468
1500.00,51.488
1501.00, 
1502.00, 
1503.00, 
1504.00, 
1505.00, 
1506.00, 
1507.00, 
1508.00, 
1509.00, 
1510.00, 
1511.00, 
1512.00, 
1513.00, 
1514.00, 
1515.00, 
1516.00, 
1517.00, 
1518.00, 
1519.00, 
1520.00, 
1521.00, 
1522.00, 
1523.00, 
1524.00, 
1525.00, 
1526.00, 
1527.00, 
1528.00, 
1529.00, 
1530.00, 
1531.00, 
1532.00, 
1533.00, 
1534.00, 
1535.00, 
1536.00, 
1537.00, 
1538.00, 
1539.00, 
1540.00, 
1541.00, 
1542.00, 
1543.00, 
1544.00, 
1545.00, 
1546.00, 
1547.00, 
1548.00, 
1549.00, 
1550.00, 
1551.00, 
1552.00, 
1553.00, 
1554.00, 
1555.00, 
1556.00, 
1557.00, 
1558.00, 
1559.00, 
1560.00, 
1561.00, 
1562.00, 
1563.00, 
1564.00, 
1565.00, 
1566.00, 
1567.00, 
1568.00, 
1569.00, 
1570.00, 
1571.00, 
1572.00, 
1573.00, 
1574.00, 
1575.00, 
1576.00, 
1577.00, 
1578.00, 
1579.00, 
1580.00, 
1581.00, 
1582.00, 
1583.00, 
1584.00, 
1585.00, 
1586.00, 
1587.00, 
1588.00, 
1589.00, 
1590.00, 
1591.00, 
1592.00, 
1593.00, 
1594.00, 
1595.00, 
1596.00, 
1597.00, 
1598.00, 
1599.00, 
1600.00, 
1601.00, 
1602.00, 
1603.00, 
1604.00, 
1605.00, 
1606.00, 
1607.00, 
1608.00, 
1609.00, 
1610.00, 
1611.00, 
1612.00, 
1613.00, 
1614.00, 
1615.00, 
1616.00, 
1617.00, 
1618.00, 
1619.00, 
1620.00, 
1621.00, 
1622.00, 
1623.00, 
1624.00, 
1625.00, 
1626.00, 
1627.00, 
1628.00, 
1629.00, 
1630.00, 
1631.00, 
1632.00, 
1633.00, 
1634.00, 
1635.00, 
1636.00, 
1637.00, 
1638.00, 
1639.00, 
1640.00, 
1641.00, 
1642.00, 
1643.00, 
1644.00, 
1645.00, 
1646.00, 
1647.00, 
1648.00, 
1649.00, 
1650.00, 
1651.00, 
1652.00, 
1653.00, 
1654.00, 
1655.00, 
1656.00, 
1657.00, 
1658.00, 
1659.00, 
1660.00, 
1661.00, 
1662.00, 
1663.00, 
1664.00, 
1665.00, 
1666.00, 
1667.00, 
1668.00, 
1669.00, 
1670.00, 
1671.00, 
1672.00, 
1673.00, 
1674.00, 
1675.00, 
1676.00, 
1677.00, 
1678.00, 
1679.00, 
1680.00, 
1681.00, 
1682.00, 
1683.00, 
1684.00, 
1685.00, 
1686.00, 
1687.00, 
1688.00, 
1689.00, 
1690.00, 
1691.00, 
1692.00, 
1693.00, 
1694.00, 
1695.00, 
1696.00, 
1697.00, 
1698.00, 
1699.00, 
1700.00, 
1701.00, 
1702.00, 
1703.00, 
1704.00, 
1705.00, 
1706.00, 
1707.00, 
1708.00, 
1709.00, 
1710.00, 
1711.00, 
1712.00, 
1713.00, 
1714.00, 
1715.00, 
1716.00, 
1717.00, 
1718.00, 
1719.00, 
1720.00, 
1721.00, 
1722.00, 
1723.00, 
1724.00, 
1725.00, 
1726.00, 
1727.00, 
1728.00, 
1729.00, 
1730.00, 
1731.00, 
1732.00, 
1733.00, 
1734.00, 
1735.00, 
1736.00, 
1737.00, 
1738.00, 
1739.00, 
1740.00, 
1741.00, 
1742.00, 
1743.00, 
1744.00, 
1745.00, 
1746.00, 
1747.00, 
1748.00, 
1749.00, 
1750.00, 
1751.00, 
1752.00, 
1753.00, 
1754.00, 
1755.00, 
1756.00, 
1757.00, 
1758.00, 
1759.00, 
1760.00, 
1761.00, 
1762.00, 
1763.00, 
1764.00, 
1765.00, 
1766.00, 
1767.00, 
1768.00, 
1769.00, 
1770.00, 
1771.00, 
1772.00, 
1773.00, 
1774.00, 
1775.00, 
1776.00, 
1777.00, 
1778.00, 
1779.00, 
1780.00, 
1781.00, 
1782.00, 
1783.00, 
1784.00, 
1785.00, 
1786.00, 
1787.00, 
1788.00, 
1789.00, 
1790.00, 
1791.00, 
1792.00, 
1793.00, 
1794.00, 
1795.00, 
1796.00, 
1797.00, 
1798.00, 
1799.00, 
1800.00, 
1801.00, 
1802.00, 
1803.00, 
1804.00, 
1805.00, 
1806.00, 
1807.00, 
1808.00, 
1809.00, 
1810.00, 
1811.00, 
1812.00, 
1813.00, 
1814.00, 
1815.00, 
1816.00, 
1817.00, 
1818.00, 
1819.00, 
1820.00, 
1821.00, 
1822.00, 
1823.00, 
1824.00, 
1825.00, 
1826.00, 
1827.00, 
1828.00, 
1829.00, 
1830.00, 
1831.00, 
1832.00, 
1833.00, 
1834.00, 
1835.00, 
1836.00, 
1837.00, 
1838.00, 
1839.00, 
1840.00, 
1841.00, 
1842.00, 
1843.00, 
1844.00, 
1845.00, 
1846.00, 
1847.00, 
1848.00, 
1849.00, 
1850.00, 
1851.00, 
1852.00, 
1853.00, 
1854.00, 
1855.00, 
1856.00, 
1857.00, 
1858.00, 
1859.00, 
1860.00, 
1861.00, 
1862.00, 
1863.00, 
1864.00, 
1865.00, 
1866.00, 
1867.00, 
1868.00, 
1869.00, 
1870.00, 
1871.00, 
1872.00, 
1873.00, 
1874.00, 
1875.00, 
1876.00, 
1877.00, 
1878.00, 
1879.00, 
1880.00, 
1881.00, 
1882.00, 
1883.00, 
1884.00, 
1885.00, 
1886.00, 
1887.00, 
1888.00, 
1889.00, 
1890.00, 
1891.00, 
1892.00, 
1893.00, 
1894.00, 
1895.00, 
1896.00, 
1897.00, 
1898.00, 
1899.00, 
1900.00, 
1901.00, 
1902.00, 
1903.00, 
1904.00, 
1905.00, 
1906.00, 
1907.00, 
1908.00, 
1909.00, 
1910.00, 
1911.00, 
1912.00, 
1913.00, 
1914.00, 
1915.00, 
1916.00, 
1917.00, 
1918.00, 
1919.00, 
1920.00, 
1921.00, 
1922.00, 
1923.00, 
1924.00, 
1925.00, 
1926.00, 
1927.00, 
1928.00, 
1929.00, 
1930.00, 
1931.00, 
1932.00, 
1933.00, 
1934.00, 
1935.00, 
1936.00, 
1937.00, 
1938.00, 
1939.00, 
1940.00, 
1941.00, 
1942.00, 
1943.00, 
1944.00, 
1945.00, 
1946.00, 
1947.00, 
1948.00, 
1949.00, 
1950.00, 
1951.00, 
1952.00, 
1953.00, 
1954.00, 
1955.00, 
1956.00, 
1957.00, 
1958.00, 
1959.00, 
1960.00, 
1961.00, 
1962.00, 
1963.00, 
1964.00, 
1965.00, 
1966.00, 
1967.00, 
1968.00, 
1969.00, 
1970.00, 
1971.00, 
1972.00, 
1973.00, 
1974.00, 
1975.00, 
1976.00, 
1977.00, 
1978.00, 
1979.00, 
1980.00, 
1981.00, 
1982.00, 
1983.00, 
1984.00, 
1985.00, 
1986.00, 
1987.00, 
1988.00, 
1989.00, 
1990.00, 
1991.00, 
1992.00, 
1993.00, 
1994.00, 
1995.00, 
1996.00, 
1997.00, 
1998.00, 
1999.00, 
2000.00, 
2001.00, 
2002.00, 
2003.00, 
2004.00, 
2005.00, 
2006.00, 
2007.00, 
2008.00, 
2009.00, 
2010.00, 
2011.00, 
2012.00, 
2013.00, 
2014.00, 
2015.00, 
2016.00, 
2017.00, 
2018.00, 
2019.00, 
2020.00, 
2021.00, 
2022.00, 
2023.00, 
2024.00, 
2025.00, 
2026.00, 
2027.00, 
2028.00, 
2029.00, 
2030.00, 
2031.00, 
2032.00, 
2033.00, 
2034.00, 
2035.00, 
2036.00, 
2037.00, 
2038.00, 
2039.00, 
2040.00, 
2041.00, 
2042.00, 
2043.00, 
2044.00, 
2045.00, 
2046.00, 
2047.00, 
2048.00, 
2049.00, 
2050.00, 
2051.00, 
2052.00, 
2053.00, 
2054.00, 
2055.00, 
2056.00, 
2057.00, 
2058.00, 
2059.00, 
2060.00, 
2061.00, 
2062.00, 
2063.00, 
2064.00, 
2065.00, 
2066.00, 
2067.00, 
2068.00, 
2069.00, 
2070.00, 
2071.00, 
2072.00, 
2073.00, 
2074.00, 
2075.00, 
2076.00, 
2077.00, 
2078.00, 
2079.00, 
2080.00, 
2081.00, 
2082.00, 
2083.00, 
2084.00, 
2085.00, 
2086.00, 
2087.00, 
2088.00, 
2089.00, 
2090.00, 
2091.00, 
2092.00, 
2093.00, 
2094.00, 
2095.00, 
2096.00, 
2097.00, 
2098.00, 
2099.00, 
2100.00, 
2101.00, 
2102.00, 
2103.00, 
2104.00, 
2105.00, 
2106.00, 
2107.00, 
2108.00, 
2109.00, 
2110.00, 
2111.00, 
2112.00, 
2113.00, 
2114.00, 
2115.00, 
2116.00, 
2117.00, 
2118.00, 
2119.00, 
2120.00, 
2121.00, 
2122.00, 
2123.00, 
2124.00, 
2125.00, 
2126.00, 
2127.00, 
2128.00, 
2129.00, 
2130.00, 
2131.00, 
2132.00, 
2133.00, 
2134.00, 
2135.00, 
2136.00, 
2137.00, 
2138.00, 
2139.00, 
2140.00, 
2141.00, 
2142.00, 
2143.00, 
2144.00, 
2145.00, 
2146.00, 
2147.00, 
2148.00, 
2149.00, 
2150.00, 
2151.00, 
2152.00, 
2153.00, 
2154.00, 
2155.00, 
2156.00, 
2157.00, 
2158.00, 
2159.00, 
2160.00, 
2161.00, 
2162.00, 
2163.00, 
2164.00, 
2165.00, 
2166.00, 
2167.00, 
2168.00, 
2169.00, 
2170.00, 
2171.00, 
2172.00, 
2173.00, 
2174.00, 
2175.00, 
2176.00, 
2177.00, 
2178.00, 
2179.00, 
2180.00, 
2181.00, 
2182.00, 
2183.00, 
2184.00, 
2185.00, 
2186.00, 
2187.00, 
2188.00, 
2189.00, 
2190.00, 
2191.00, 
2192.00, 
2193.00, 
2194.00, 
2195.00, 
2196.00, 
2197.00, 
2198.00, 
2199.00, 
2200.00, 
2201.00, 
2202.00, 
2203.00, 
2204.00, 
2205.00, 
2206.00, 
2207.00, 
2208.00, 
2209.00, 
2210.00, 
2211.00, 
2212.00, 
2213.00, 
2214.00, 
2215.00, 
2216.00, 
2217.00, 
2218.00, 
2219.00, 
2220.00, 
2221.00, 
2222.00, 
2223.00, 
2224.00, 
2225.00, 
2226.00, 
2227.00, 
2228.00, 
2229.00, 
2230.00, 
2231.00, 
2232.00, 
2233.00, 
2234.00, 
2235.00, 
2236.00, 
2237.00, 
2238.00, 
2239.00, 
2240.00, 
2241.00, 
2242.00, 
2243.00, 
2244.00, 
2245.00, 
2246.00, 
2247.00, 
2248.00, 
2249.00, 
2250.00, 
2251.00, 
2252.00, 
2253.00, 
2254.00, 
2255.00, 
2256.00, 
2257.00, 
2258.00, 
2259.00, 
2260.00, 
2261.00, 
2262.00, 
2263.00, 
2264.00, 
2265.00, 
2266.00, 
2267.00, 
2268.00, 
2269.00, 
2270.00, 
2271.00, 
2272.00, 
2273.00, 
2274.00, 
2275.00, 
2276.00, 
2277.00, 
2278.00, 
2279.00, 
2280.00, 
2281.00, 
2282.00, 
2283.00, 
2284.00, 
2285.00, 
2286.00, 
2287.00, 
2288.00, 
2289.00, 
2290.00, 
2291.00, 
2292.00, 
2293.00, 
2294.00, 
2295.00, 
2296.00, 
2297.00, 
2298.00, 
2299.00, 
2300.00, 
2301.00, 
2302.00, 
2303.00, 
2304.00, 
2305.00, 
2306.00, 
2307.00, 
2308.00, 
2309.00, 
2310.00, 
2311.00, 
2312.00, 
2313.00, 
2314.00, 
2315.00, 
2316.00, 
2317.00, 
2318.00, 
2319.00, 
2320.00, 
2321.00, 
2322.00, 
2323.00, 
2324.00, 
2325.00, 
2326.00, 
2327.00, 
2328.00, 
2329.00, 
2330.00, 
2331.00, 
2332.00, 
2333.00, 
2334.00, 
2335.00, 
2336.00, 
2337.00, 
2338.00, 
2339.00, 
2340.00, 
2341.00, 
2342.00, 
2343.00, 
2344.00, 
2345.00, 
2346.00, 
2347.00, 
2348.00, 
2349.00, 
2350.00, 
2351.00, 
2352.00, 
2353.00, 
2354.00, 
2355.00, 
2356.00, 
2357.00, 
2358.00, 
2359.00, 
2360.00, 
2361.00, 
2362.00, 
2363.00, 
2364.00, 
2365.00, 
2366.00, 
2367.00, 
2368.00, 
2369.00, 
2370.00, 
2371.00, 
2372.00, 
2373.00, 
2374.00, 
2375.00, 
2376.00, 
2377.00, 
2378.00, 
2379.00, 
2380.00, 
2381.00, 
2382.00, 
2383.00, 
2384.00, 
2385.00, 
2386.00, 
2387.00, 
2388.00, 
2389.00, 
2390.00, 
2391.00, 
2392.00, 
2393.00, 
2394.00, 
2395.00, 
2396.00, 
2397.00, 
2398.00, 
2399.00, 
2400.00, 
2401.00, 
2402.00, 
2403.00, 
2404.00, 
2405.00, 
2406.00, 
2407.00, 
2408.00, 
2409.00, 
2410.00, 
2411.00, 
2412.00, 
2413.00, 
2414.00, 
2415.00, 
2416.00, 
2417.00, 
2418.00, 
2419.00, 
2420.00, 
2421.00, 
2422.00, 
2423.00, 
2424.00, 
2425.00, 
2426.00, 
2427.00, 
2428.00, 
2429.00, 
2430.00, 
2431.00, 
2432.00, 
2433.00, 
2434.00, 
2435.00, 
2436.00, 
2437.00, 
2438.00, 
2439.00, 
2440.00, 
2441.00, 
2442.00, 
2443.00, 
2444.00, 
2445.00, 
2446.00, 
2447.00, 
2448.00, 
2449.00, 
2450.00, 
2451.00, 
2452.00, 
2453.00, 
2454.00, 
2455.00, 
2456.00, 
2457.00, 
2458.00, 
2459.00, 
2460.00, 
2461.00, 
2462.00, 
2463.00, 
2464.00, 
2465.00, 
2466.00, 
2467.00, 
2468.00, 
2469.00, 
2470.00, 
2471.00, 
2472.00, 
2473.00, 
2474.00, 
2475.00, 
2476.00, 
2477.00, 
2478.00, 
2479.00, 
2480.00, 
2481.00, 
2482.00, 
2483.00, 
2484.00, 
2485.00, 
2486.00, 
2487.00, 
2488.00, 
2489.00, 
2490.00, 
2491.00, 
2492.00, 
2493.00, 
2494.00, 
2495.00, 
2496.00, 
2497.00, 
2498.00, 
2499.00, 
2500.00, 
2501.00, 
2502.00, 
2503.00, 
2504.00, 
2505.00, 
2506.00, 
2507.00, 
2508.00, 
2509.00, 
2510.00, 
2511.00, 
2512.00, 
2513.00, 
2514.00, 
2515.00, 
2516.00, 
2517.00, 
2518.00, 
2519.00, 
2520.00, 
2521.00, 
2522.00, 
2523.00, 
2524.00, 
2525.00, 
2526.00, 
2527.00, 
2528.00, 
2529.00, 
2530.00, 
2531.00, 
2532.00, 
2533.00, 
2534.00, 
2535.00, 
2536.00, 
2537.00, 
2538.00, 
2539.00, 
2540.00, 
2541.00, 
2542.00, 
2543.00, 
2544.00, 
2545.00, 
2546.00, 
2547.00, 
2548.00, 
2549.00, 
2550.00, 
2551.00, 
2552.00, 
2553.00, 
2554.00, 
2555.00, 
2556.00, 
2557.00, 
2558.00, 
2559.00, 
2560.00, 
2561.00, 
2562.00, 
2563.00, 
2564.00, 
2565.00, 
2566.00, 
2567.00, 
2568.00, 
2569.00, 
2570.00, 
2571.00, 
2572.00, 
2573.00, 
2574.00, 
2575.00, 
2576.00, 
2577.00, 
2578.00, 
2579.00, 
2580.00, 
2581.00, 
2582.00, 
2583.00, 
2584.00, 
2585.00, 
2586.00, 
2587.00, 
2588.00, 
2589.00, 
2590.00, 
2591.00, 
2592.00, 
2593.00, 
2594.00, 
2595.00, 
2596.00, 
2597.00, 
2598.00, 
2599.00, 
2600.00, 
