"2cP4 - RawData"
"Wavelength nm.","T%"
200.00,0.002
201.00,0.001
202.00,0.003
203.00,-0.001
204.00,0.002
205.00,0.002
206.00,-0.000
207.00,-0.001
208.00,0.003
209.00,0.002
210.00,0.003
211.00,0.000
212.00,-0.001
213.00,0.001
214.00,0.002
215.00,0.001
216.00,-0.002
217.00,0.002
218.00,0.008
219.00,-0.001
220.00,0.002
221.00,0.002
222.00,0.001
223.00,-0.001
224.00,0.001
225.00,0.002
226.00,0.001
227.00,0.002
228.00,0.001
229.00,-0.001
230.00,-0.001
231.00,-0.000
232.00,0.003
233.00,-0.001
234.00,-0.001
235.00,-0.000
236.00,0.000
237.00,0.000
238.00,-0.001
239.00,-0.001
240.00,0.001
241.00,0.001
242.00,-0.000
243.00,-0.001
244.00,0.001
245.00,0.000
246.00,-0.001
247.00,0.000
248.00,0.001
249.00,0.001
250.00,-0.000
251.00,0.001
252.00,-0.000
253.00,0.001
254.00,0.000
255.00,0.002
256.00,-0.001
257.00,-0.000
258.00,0.000
259.00,-0.001
260.00,0.000
261.00,0.000
262.00,0.002
263.00,-0.002
264.00,-0.000
265.00,-0.000
266.00,-0.001
267.00,-0.001
268.00,-0.001
269.00,-0.000
270.00,-0.001
271.00,0.001
272.00,-0.001
273.00,-0.001
274.00,0.001
275.00,-0.000
276.00,-0.000
277.00,-0.001
278.00,0.000
279.00,-0.000
280.00,0.000
281.00,0.000
282.00,0.001
283.00,0.001
284.00,-0.001
285.00,0.000
286.00,-0.000
287.00,0.001
288.00,0.000
289.00,0.001
290.00,0.000
291.00,-0.001
292.00,0.000
293.00,0.001
294.00,0.000
295.00,-0.000
296.00,0.001
297.00,-0.000
298.00,0.000
299.00,-0.000
300.00,0.001
301.00,-0.000
302.00,0.004
303.00,0.005
304.00,0.008
305.00,0.016
306.00,0.024
307.00,0.039
308.00,0.058
309.00,0.093
310.00,0.129
311.00,0.172
312.00,0.235
313.00,0.320
314.00,0.420
315.00,0.527
316.00,0.704
317.00,0.892
318.00,1.104
319.00,1.334
320.00,1.632
321.00,1.957
322.00,2.324
323.00,2.729
324.00,3.178
325.00,3.612
326.00,4.070
327.00,4.619
328.00,5.144
329.00,5.681
330.00,6.264
331.00,6.855
332.00,7.413
333.00,8.058
334.00,8.631
335.00,9.256
336.00,9.836
337.00,10.470
338.00,11.059
339.00,11.612
340.00,12.133
341.00,12.713
342.00,13.214
343.00,13.703
344.00,14.180
345.00,14.648
346.00,15.077
347.00,15.466
348.00,15.885
349.00,16.203
350.00,16.593
351.00,16.877
352.00,17.130
353.00,17.440
354.00,17.690
355.00,17.973
356.00,18.175
357.00,18.389
358.00,18.556
359.00,18.771
360.00,18.948
361.00,19.033
362.00,19.234
363.00,19.393
364.00,19.434
365.00,19.584
366.00,19.625
367.00,19.736
368.00,19.761
369.00,19.804
370.00,19.830
371.00,19.845
372.00,19.883
373.00,19.867
374.00,19.844
375.00,19.853
376.00,19.781
377.00,19.766
378.00,19.720
379.00,19.658
380.00,19.619
381.00,19.607
382.00,19.625
383.00,19.635
384.00,19.618
385.00,19.661
386.00,19.681
387.00,19.695
388.00,19.763
389.00,19.783
390.00,19.756
391.00,19.794
392.00,19.809
393.00,19.797
394.00,19.818
395.00,19.837
396.00,19.847
397.00,19.871
398.00,19.838
399.00,19.843
400.00,19.866
401.00,19.848
402.00,19.869
403.00,19.851
404.00,19.868
405.00,19.851
406.00,19.854
407.00,19.812
408.00,19.818
409.00,19.760
410.00,19.750
411.00,19.732
412.00,19.713
413.00,19.729
414.00,19.711
415.00,19.703
416.00,19.773
417.00,19.792
418.00,19.794
419.00,19.862
420.00,19.895
421.00,19.930
422.00,19.997
423.00,20.012
424.00,20.061
425.00,20.124
426.00,20.103
427.00,20.156
428.00,20.192
429.00,20.260
430.00,20.268
431.00,20.357
432.00,20.444
433.00,20.476
434.00,20.536
435.00,20.545
436.00,20.606
437.00,20.738
438.00,20.790
439.00,20.887
440.00,20.970
441.00,21.039
442.00,21.128
443.00,21.187
444.00,21.285
445.00,21.358
446.00,21.480
447.00,21.590
448.00,21.679
449.00,21.771
450.00,21.864
451.00,21.954
452.00,22.098
453.00,22.207
454.00,22.302
455.00,22.438
456.00,22.553
457.00,22.670
458.00,22.776
459.00,22.917
460.00,23.008
461.00,23.184
462.00,23.306
463.00,23.435
464.00,23.581
465.00,23.705
466.00,23.822
467.00,23.984
468.00,24.094
469.00,24.218
470.00,24.297
471.00,24.409
472.00,24.539
473.00,24.636
474.00,24.741
475.00,24.877
476.00,25.002
477.00,25.094
478.00,25.255
479.00,25.422
480.00,25.512
481.00,25.663
482.00,25.751
483.00,25.981
484.00,26.180
485.00,26.305
486.00,26.451
487.00,26.601
488.00,26.762
489.00,26.938
490.00,27.106
491.00,27.223
492.00,27.430
493.00,27.570
494.00,27.602
495.00,27.750
496.00,27.876
497.00,27.993
498.00,28.155
499.00,28.331
500.00,28.414
501.00,28.506
502.00,28.676
503.00,28.828
504.00,28.899
505.00,29.038
506.00,29.160
507.00,29.206
508.00,29.377
509.00,29.548
510.00,29.672
511.00,29.793
512.00,29.951
513.00,30.079
514.00,30.220
515.00,30.337
516.00,30.439
517.00,30.531
518.00,30.687
519.00,30.767
520.00,30.830
521.00,30.901
522.00,31.050
523.00,31.120
524.00,31.177
525.00,31.303
526.00,31.407
527.00,31.499
528.00,31.588
529.00,31.714
530.00,31.831
531.00,32.005
532.00,32.083
533.00,32.197
534.00,32.239
535.00,32.345
536.00,32.433
537.00,32.477
538.00,32.613
539.00,32.737
540.00,32.696
541.00,32.794
542.00,32.823
543.00,32.902
544.00,32.980
545.00,33.047
546.00,33.126
547.00,33.230
548.00,33.296
549.00,33.343
550.00,33.477
551.00,33.489
552.00,33.600
553.00,33.665
554.00,33.760
555.00,33.817
556.00,33.851
557.00,33.914
558.00,33.974
559.00,34.043
560.00,34.094
561.00,34.147
562.00,34.188
563.00,34.297
564.00,34.345
565.00,34.356
566.00,34.397
567.00,34.463
568.00,34.465
569.00,34.516
570.00,34.579
571.00,34.607
572.00,34.676
573.00,34.635
574.00,34.713
575.00,34.767
576.00,34.750
577.00,34.826
578.00,34.905
579.00,34.996
580.00,35.080
581.00,35.145
582.00,35.178
583.00,35.244
584.00,35.426
585.00,35.432
586.00,35.559
587.00,35.645
588.00,35.579
589.00,35.584
590.00,35.655
591.00,35.666
592.00,35.705
593.00,35.743
594.00,35.839
595.00,35.866
596.00,35.958
597.00,36.037
598.00,36.106
599.00,36.116
600.00,36.187
601.00,36.186
602.00,36.197
603.00,36.300
604.00,36.337
605.00,36.395
606.00,36.492
607.00,36.494
608.00,36.578
609.00,36.686
610.00,36.629
611.00,36.636
612.00,36.775
613.00,36.782
614.00,36.863
615.00,36.933
616.00,37.049
617.00,37.048
618.00,37.154
619.00,37.165
620.00,37.194
621.00,37.272
622.00,37.329
623.00,37.428
624.00,37.478
625.00,37.556
626.00,37.621
627.00,37.708
628.00,37.752
629.00,37.779
630.00,37.799
631.00,37.930
632.00,37.989
633.00,38.107
634.00,38.186
635.00,38.314
636.00,38.374
637.00,38.456
638.00,38.533
639.00,38.588
640.00,38.623
641.00,38.696
642.00,38.785
643.00,38.848
644.00,38.964
645.00,39.022
646.00,39.136
647.00,39.298
648.00,39.361
649.00,39.415
650.00,39.456
651.00,39.559
652.00,39.691
653.00,39.736
654.00,39.836
655.00,39.947
656.00,40.167
657.00,40.303
658.00,40.335
659.00,40.397
660.00,40.446
661.00,40.450
662.00,40.657
663.00,40.749
664.00,40.913
665.00,41.041
666.00,41.095
667.00,41.271
668.00,41.334
669.00,41.507
670.00,41.574
671.00,41.595
672.00,41.736
673.00,41.820
674.00,41.919
675.00,42.076
676.00,42.162
677.00,42.284
678.00,42.289
679.00,42.352
680.00,42.472
681.00,42.587
682.00,42.806
683.00,42.803
684.00,42.988
685.00,43.070
686.00,43.013
687.00,43.153
688.00,43.354
689.00,43.388
690.00,43.563
691.00,43.775
692.00,43.720
693.00,43.727
694.00,43.855
695.00,44.046
696.00,44.073
697.00,44.259
698.00,44.243
699.00,44.451
700.00,44.588
701.00,44.537
702.00,44.770
703.00,44.853
704.00,44.965
705.00,45.009
706.00,45.065
707.00,45.183
708.00,45.138
709.00,45.363
710.00,45.706
711.00,45.494
712.00,45.493
713.00,45.573
714.00,45.873
715.00,45.834
716.00,45.820
717.00,45.875
718.00,46.095
719.00,46.096
720.00,46.340
721.00,50.471
722.00,50.469
723.00,50.622
724.00,50.620
725.00,50.621
726.00,50.714
727.00,50.727
728.00,50.836
729.00,50.795
730.00,50.878
731.00,50.892
732.00,50.925
733.00,51.048
734.00,51.094
735.00,51.091
736.00,51.126
737.00,51.199
738.00,51.267
739.00,51.241
740.00,51.344
741.00,51.432
742.00,51.451
743.00,51.437
744.00,51.414
745.00,51.456
746.00,51.435
747.00,51.529
748.00,51.454
749.00,51.526
750.00,51.570
751.00,51.544
752.00,51.497
753.00,51.511
754.00,51.601
755.00,51.572
756.00,51.631
757.00,51.667
758.00,51.638
759.00,51.674
760.00,51.703
761.00,51.709
762.00,51.774
763.00,51.776
764.00,51.790
765.00,51.865
766.00,51.841
767.00,51.808
768.00,51.856
769.00,51.856
770.00,51.954
771.00,51.877
772.00,51.916
773.00,51.905
774.00,52.005
775.00,52.049
776.00,52.038
777.00,51.998
778.00,51.998
779.00,52.058
780.00,51.983
781.00,52.080
782.00,52.082
783.00,52.025
784.00,52.122
785.00,52.077
786.00,52.156
787.00,52.153
788.00,52.161
789.00,52.024
790.00,51.994
791.00,52.098
792.00,52.157
793.00,52.117
794.00,52.102
795.00,52.124
796.00,52.084
797.00,51.974
798.00,52.062
799.00,52.044
800.00,52.011
801.00,51.988
802.00,52.112
803.00,52.013
804.00,51.974
805.00,51.953
806.00,51.934
807.00,52.002
808.00,51.963
809.00,51.994
810.00,51.907
811.00,51.887
812.00,52.006
813.00,51.892
814.00,51.872
815.00,51.920
816.00,51.890
817.00,51.882
818.00,51.821
819.00,51.955
820.00,51.732
821.00,51.828
822.00,51.819
823.00,51.799
824.00,51.752
825.00,51.631
826.00,51.740
827.00,51.860
828.00,51.639
829.00,51.675
830.00,51.735
831.00,53.949
832.00,53.951
833.00,53.909
834.00,53.911
835.00,53.855
836.00,53.872
837.00,53.833
838.00,53.794
839.00,53.810
840.00,53.790
841.00,53.795
842.00,53.756
843.00,53.758
844.00,53.730
845.00,53.679
846.00,53.721
847.00,53.676
848.00,53.686
849.00,53.644
850.00,53.601
851.00,53.534
852.00,53.604
853.00,53.479
854.00,53.497
855.00,53.423
856.00,53.445
857.00,53.364
858.00,53.384
859.00,53.349
860.00,53.354
861.00,53.378
862.00,53.292
863.00,53.339
864.00,53.278
865.00,53.320
866.00,53.297
867.00,53.300
868.00,53.277
869.00,53.248
870.00,53.259
871.00,53.246
872.00,53.226
873.00,53.272
874.00,53.221
875.00,53.167
876.00,53.209
877.00,53.170
878.00,53.189
879.00,53.143
880.00,53.155
881.00,53.122
882.00,53.131
883.00,53.103
884.00,53.063
885.00,53.048
886.00,53.044
887.00,53.032
888.00,53.002
889.00,52.983
890.00,52.966
891.00,52.928
892.00,52.935
893.00,52.917
894.00,52.942
895.00,52.900
896.00,52.869
897.00,52.832
898.00,52.796
899.00,52.811
900.00,52.783
901.00,52.776
902.00,52.797
903.00,52.760
904.00,52.763
905.00,52.733
906.00,52.750
907.00,52.698
908.00,52.674
909.00,52.662
910.00,52.637
911.00,52.648
912.00,52.632
913.00,52.586
914.00,52.541
915.00,52.561
916.00,52.540
917.00,52.505
918.00,52.507
919.00,52.489
920.00,52.456
921.00,52.468
922.00,52.428
923.00,52.398
924.00,52.359
925.00,52.372
926.00,52.357
927.00,52.339
928.00,52.289
929.00,52.305
930.00,52.265
931.00,52.265
932.00,52.231
933.00,52.227
934.00,52.210
935.00,52.191
936.00,52.172
937.00,52.184
938.00,52.137
939.00,52.124
940.00,52.099
941.00,52.090
942.00,52.049
943.00,52.042
944.00,51.998
945.00,52.002
946.00,52.004
947.00,51.971
948.00,51.973
949.00,51.939
950.00,51.926
951.00,51.909
952.00,51.866
953.00,51.841
954.00,51.835
955.00,51.778
956.00,51.787
957.00,51.724
958.00,51.750
959.00,51.653
960.00,51.694
961.00,51.657
962.00,51.683
963.00,51.650
964.00,51.636
965.00,51.621
966.00,51.607
967.00,51.622
968.00,51.578
969.00,51.613
970.00,51.586
971.00,51.587
972.00,51.560
973.00,51.589
974.00,51.607
975.00,51.559
976.00,51.605
977.00,51.584
978.00,51.636
979.00,51.592
980.00,51.589
981.00,51.606
982.00,51.563
983.00,51.578
984.00,51.560
985.00,51.571
986.00,51.541
987.00,51.538
988.00,51.514
989.00,51.531
990.00,51.516
991.00,51.485
992.00,51.527
993.00,51.448
994.00,51.444
995.00,51.452
996.00,51.414
997.00,51.404
998.00,51.380
999.00,51.404
1000.00,51.353
1001.00,51.347
1002.00,51.321
1003.00,51.327
1004.00,51.312
1005.00,51.298
1006.00,51.310
1007.00,51.283
1008.00,51.302
1009.00,51.296
1010.00,51.267
1011.00,51.262
1012.00,51.212
1013.00,51.226
1014.00,51.201
1015.00,51.198
1016.00,51.158
1017.00,51.161
1018.00,51.152
1019.00,51.124
1020.00,51.125
1021.00,51.103
1022.00,51.099
1023.00,51.052
1024.00,51.056
1025.00,51.049
1026.00,51.031
1027.00,50.998
1028.00,50.998
1029.00,50.986
1030.00,50.954
1031.00,50.955
1032.00,50.911
1033.00,50.931
1034.00,50.884
1035.00,50.838
1036.00,50.848
1037.00,50.824
1038.00,50.809
1039.00,50.782
1040.00,50.785
1041.00,50.748
1042.00,50.742
1043.00,50.698
1044.00,50.744
1045.00,50.707
1046.00,50.682
1047.00,50.726
1048.00,50.727
1049.00,50.742
1050.00,50.755
1051.00,50.786
1052.00,50.784
1053.00,50.790
1054.00,50.786
1055.00,50.813
1056.00,50.818
1057.00,50.796
1058.00,50.794
1059.00,50.791
1060.00,50.789
1061.00,50.778
1062.00,50.747
1063.00,50.766
1064.00,50.778
1065.00,50.763
1066.00,50.750
1067.00,50.734
1068.00,50.758
1069.00,50.716
1070.00,50.703
1071.00,50.687
1072.00,50.706
1073.00,50.665
1074.00,50.659
1075.00,50.657
1076.00,50.641
1077.00,50.628
1078.00,50.618
1079.00,50.610
1080.00,50.646
1081.00,50.630
1082.00,50.596
1083.00,50.599
1084.00,50.580
1085.00,50.590
1086.00,50.580
1087.00,50.555
1088.00,50.546
1089.00,50.540
1090.00,50.527
1091.00,50.532
1092.00,50.513
1093.00,50.488
1094.00,50.490
1095.00,50.466
1096.00,50.451
1097.00,50.450
1098.00,50.430
1099.00,50.441
1100.00,50.429
1101.00,50.411
1102.00,50.414
1103.00,50.412
1104.00,50.395
1105.00,50.388
1106.00,50.388
1107.00,50.386
1108.00,50.375
1109.00,50.350
1110.00,50.359
1111.00,50.346
1112.00,50.317
1113.00,50.326
1114.00,50.312
1115.00,50.316
1116.00,50.314
1117.00,50.288
1118.00,50.288
1119.00,50.289
1120.00,50.265
1121.00,50.271
1122.00,50.252
1123.00,50.228
1124.00,50.242
1125.00,50.220
1126.00,50.230
1127.00,50.261
1128.00,50.207
1129.00,50.200
1130.00,50.184
1131.00,50.177
1132.00,50.182
1133.00,50.172
1134.00,50.165
1135.00,50.155
1136.00,50.155
1137.00,50.146
1138.00,50.151
1139.00,50.152
1140.00,50.130
1141.00,50.132
1142.00,50.115
1143.00,50.144
1144.00,50.112
1145.00,50.098
1146.00,50.105
1147.00,50.078
1148.00,50.067
1149.00,50.094
1150.00,50.083
1151.00,50.093
1152.00,50.074
1153.00,50.069
1154.00,50.065
1155.00,50.072
1156.00,50.043
1157.00,50.078
1158.00,50.056
1159.00,50.039
1160.00,50.049
1161.00,50.053
1162.00,50.050
1163.00,50.050
1164.00,50.041
1165.00,50.045
1166.00,50.039
1167.00,50.025
1168.00,50.046
1169.00,50.033
1170.00,50.026
1171.00,50.013
1172.00,50.013
1173.00,50.011
1174.00,50.019
1175.00,50.001
1176.00,50.021
1177.00,50.007
1178.00,49.993
1179.00,50.020
1180.00,49.993
1181.00,50.002
1182.00,49.998
1183.00,49.980
1184.00,49.980
1185.00,49.993
1186.00,49.966
1187.00,49.986
1188.00,49.985
1189.00,49.962
1190.00,49.987
1191.00,49.975
1192.00,49.974
1193.00,49.964
1194.00,49.957
1195.00,49.945
1196.00,49.976
1197.00,49.960
1198.00,49.965
1199.00,49.949
1200.00,49.959
1201.00,49.976
1202.00,49.958
1203.00,49.970
1204.00,49.958
1205.00,49.962
1206.00,49.939
1207.00,49.950
1208.00,49.929
1209.00,49.935
1210.00,49.945
1211.00,49.937
1212.00,49.968
1213.00,49.920
1214.00,49.943
1215.00,49.929
1216.00,49.920
1217.00,49.937
1218.00,49.933
1219.00,49.921
1220.00,49.912
1221.00,49.947
1222.00,49.914
1223.00,49.940
1224.00,49.928
1225.00,49.909
1226.00,49.931
1227.00,49.909
1228.00,49.939
1229.00,49.941
1230.00,49.968
1231.00,49.960
1232.00,49.976
1233.00,49.966
1234.00,49.972
1235.00,49.981
1236.00,49.969
1237.00,49.975
1238.00,49.964
1239.00,49.974
1240.00,49.968
1241.00,49.960
1242.00,49.975
1243.00,49.980
1244.00,49.953
1245.00,49.998
1246.00,49.993
1247.00,49.986
1248.00,49.985
1249.00,49.973
1250.00,49.979
1251.00,49.978
1252.00,49.989
1253.00,49.984
1254.00,50.022
1255.00,49.991
1256.00,50.003
1257.00,49.997
1258.00,50.035
1259.00,50.024
1260.00,50.037
1261.00,50.046
1262.00,50.042
1263.00,50.027
1264.00,50.046
1265.00,50.045
1266.00,50.034
1267.00,50.046
1268.00,50.053
1269.00,50.033
1270.00,50.059
1271.00,50.050
1272.00,50.057
1273.00,50.060
1274.00,50.048
1275.00,50.087
1276.00,50.070
1277.00,50.073
1278.00,50.108
1279.00,50.109
1280.00,50.087
1281.00,50.103
1282.00,50.105
1283.00,50.077
1284.00,50.096
1285.00,50.073
1286.00,50.108
1287.00,50.100
1288.00,50.095
1289.00,50.116
1290.00,50.126
1291.00,50.119
1292.00,50.125
1293.00,50.114
1294.00,50.155
1295.00,50.157
1296.00,50.158
1297.00,50.165
1298.00,50.182
1299.00,50.153
1300.00,50.178
1301.00,50.177
1302.00,50.183
1303.00,50.199
1304.00,50.163
1305.00,50.192
1306.00,50.198
1307.00,50.206
1308.00,50.213
1309.00,50.215
1310.00,50.204
1311.00,50.211
1312.00,50.218
1313.00,50.217
1314.00,50.238
1315.00,50.242
1316.00,50.238
1317.00,50.274
1318.00,50.246
1319.00,50.267
1320.00,50.281
1321.00,50.436
1322.00,50.446
1323.00,50.440
1324.00,50.424
1325.00,50.425
1326.00,50.441
1327.00,50.401
1328.00,50.411
1329.00,50.388
1330.00,50.407
1331.00,50.390
1332.00,50.360
1333.00,50.492
1334.00,50.433
1335.00,50.449
1336.00,50.470
1337.00,50.523
1338.00,50.568
1339.00,50.619
1340.00,50.669
1341.00,50.729
1342.00,50.805
1343.00,50.855
1344.00,50.903
1345.00,50.954
1346.00,50.989
1347.00,51.032
1348.00,51.032
1349.00,51.053
1350.00,51.078
1351.00,51.095
1352.00,51.092
1353.00,51.134
1354.00,51.118
1355.00,51.048
1356.00,51.144
1357.00,51.107
1358.00,51.106
1359.00,51.125
1360.00,51.113
1361.00,51.157
1362.00,51.106
1363.00,51.192
1364.00,51.145
1365.00,51.102
1366.00,51.197
1367.00,51.104
1368.00,51.077
1369.00,51.140
1370.00,51.131
1371.00,51.059
1372.00,51.093
1373.00,51.091
1374.00,51.103
1375.00,51.091
1376.00,51.075
1377.00,51.080
1378.00,51.243
1379.00,50.975
1380.00,51.117
1381.00,51.093
1382.00,50.989
1383.00,51.089
1384.00,51.018
1385.00,51.063
1386.00,51.128
1387.00,51.045
1388.00,51.012
1389.00,51.039
1390.00,51.049
1391.00,51.101
1392.00,51.039
1393.00,51.166
1394.00,51.170
1395.00,51.062
1396.00,51.015
1397.00,51.129
1398.00,51.068
1399.00,51.050
1400.00,51.055
1401.00,51.119
1402.00,51.087
1403.00,51.059
1404.00,51.104
1405.00,51.132
1406.00,51.127
1407.00,51.142
1408.00,51.205
1409.00,51.124
1410.00,51.158
1411.00,51.140
1412.00,51.224
1413.00,51.114
1414.00,51.135
1415.00,51.172
1416.00,51.222
1417.00,51.236
1418.00,51.207
1419.00,51.220
1420.00,51.225
1421.00,51.255
1422.00,51.268
1423.00,51.262
1424.00,51.290
1425.00,51.293
1426.00,51.288
1427.00,51.324
1428.00,51.321
1429.00,51.386
1430.00,51.343
1431.00,51.341
1432.00,51.360
1433.00,51.394
1434.00,51.374
1435.00,51.439
1436.00,51.445
1437.00,51.428
1438.00,51.456
1439.00,51.477
1440.00,51.483
1441.00,51.484
1442.00,51.484
1443.00,51.535
1444.00,51.561
1445.00,51.483
1446.00,51.545
1447.00,51.593
1448.00,51.619
1449.00,51.628
1450.00,51.622
1451.00,51.651
1452.00,51.661
1453.00,51.677
1454.00,51.707
1455.00,51.732
1456.00,51.738
1457.00,51.746
1458.00,51.761
1459.00,51.757
1460.00,51.773
1461.00,51.796
1462.00,51.819
1463.00,51.841
1464.00,51.854
1465.00,51.855
1466.00,51.860
1467.00,51.866
1468.00,51.915
1469.00,51.891
1470.00,51.897
1471.00,51.917
1472.00,51.924
1473.00,51.931
1474.00,51.974
1475.00,51.982
1476.00,51.982
1477.00,51.988
1478.00,52.013
1479.00,52.035
1480.00,52.022
1481.00,52.002
1482.00,52.049
1483.00,52.050
1484.00,52.076
1485.00,52.098
1486.00,52.093
1487.00,52.122
1488.00,52.138
1489.00,52.120
1490.00,52.154
1491.00,52.151
1492.00,52.159
1493.00,52.167
1494.00,52.198
1495.00,52.191
1496.00,52.212
1497.00,52.205
1498.00,52.209
1499.00,52.244
1500.00,52.251
1501.00, 
1502.00, 
1503.00, 
1504.00, 
1505.00, 
1506.00, 
1507.00, 
1508.00, 
1509.00, 
1510.00, 
1511.00, 
1512.00, 
1513.00, 
1514.00, 
1515.00, 
1516.00, 
1517.00, 
1518.00, 
1519.00, 
1520.00, 
1521.00, 
1522.00, 
1523.00, 
1524.00, 
1525.00, 
1526.00, 
1527.00, 
1528.00, 
1529.00, 
1530.00, 
1531.00, 
1532.00, 
1533.00, 
1534.00, 
1535.00, 
1536.00, 
1537.00, 
1538.00, 
1539.00, 
1540.00, 
1541.00, 
1542.00, 
1543.00, 
1544.00, 
1545.00, 
1546.00, 
1547.00, 
1548.00, 
1549.00, 
1550.00, 
1551.00, 
1552.00, 
1553.00, 
1554.00, 
1555.00, 
1556.00, 
1557.00, 
1558.00, 
1559.00, 
1560.00, 
1561.00, 
1562.00, 
1563.00, 
1564.00, 
1565.00, 
1566.00, 
1567.00, 
1568.00, 
1569.00, 
1570.00, 
1571.00, 
1572.00, 
1573.00, 
1574.00, 
1575.00, 
1576.00, 
1577.00, 
1578.00, 
1579.00, 
1580.00, 
1581.00, 
1582.00, 
1583.00, 
1584.00, 
1585.00, 
1586.00, 
1587.00, 
1588.00, 
1589.00, 
1590.00, 
1591.00, 
1592.00, 
1593.00, 
1594.00, 
1595.00, 
1596.00, 
1597.00, 
1598.00, 
1599.00, 
1600.00, 
1601.00, 
1602.00, 
1603.00, 
1604.00, 
1605.00, 
1606.00, 
1607.00, 
1608.00, 
1609.00, 
1610.00, 
1611.00, 
1612.00, 
1613.00, 
1614.00, 
1615.00, 
1616.00, 
1617.00, 
1618.00, 
1619.00, 
1620.00, 
1621.00, 
1622.00, 
1623.00, 
1624.00, 
1625.00, 
1626.00, 
1627.00, 
1628.00, 
1629.00, 
1630.00, 
1631.00, 
1632.00, 
1633.00, 
1634.00, 
1635.00, 
1636.00, 
1637.00, 
1638.00, 
1639.00, 
1640.00, 
1641.00, 
1642.00, 
1643.00, 
1644.00, 
1645.00, 
1646.00, 
1647.00, 
1648.00, 
1649.00, 
1650.00, 
1651.00, 
1652.00, 
1653.00, 
1654.00, 
1655.00, 
1656.00, 
1657.00, 
1658.00, 
1659.00, 
1660.00, 
1661.00, 
1662.00, 
1663.00, 
1664.00, 
1665.00, 
1666.00, 
1667.00, 
1668.00, 
1669.00, 
1670.00, 
1671.00, 
1672.00, 
1673.00, 
1674.00, 
1675.00, 
1676.00, 
1677.00, 
1678.00, 
1679.00, 
1680.00, 
1681.00, 
1682.00, 
1683.00, 
1684.00, 
1685.00, 
1686.00, 
1687.00, 
1688.00, 
1689.00, 
1690.00, 
1691.00, 
1692.00, 
1693.00, 
1694.00, 
1695.00, 
1696.00, 
1697.00, 
1698.00, 
1699.00, 
1700.00, 
1701.00, 
1702.00, 
1703.00, 
1704.00, 
1705.00, 
1706.00, 
1707.00, 
1708.00, 
1709.00, 
1710.00, 
1711.00, 
1712.00, 
1713.00, 
1714.00, 
1715.00, 
1716.00, 
1717.00, 
1718.00, 
1719.00, 
1720.00, 
1721.00, 
1722.00, 
1723.00, 
1724.00, 
1725.00, 
1726.00, 
1727.00, 
1728.00, 
1729.00, 
1730.00, 
1731.00, 
1732.00, 
1733.00, 
1734.00, 
1735.00, 
1736.00, 
1737.00, 
1738.00, 
1739.00, 
1740.00, 
1741.00, 
1742.00, 
1743.00, 
1744.00, 
1745.00, 
1746.00, 
1747.00, 
1748.00, 
1749.00, 
1750.00, 
1751.00, 
1752.00, 
1753.00, 
1754.00, 
1755.00, 
1756.00, 
1757.00, 
1758.00, 
1759.00, 
1760.00, 
1761.00, 
1762.00, 
1763.00, 
1764.00, 
1765.00, 
1766.00, 
1767.00, 
1768.00, 
1769.00, 
1770.00, 
1771.00, 
1772.00, 
1773.00, 
1774.00, 
1775.00, 
1776.00, 
1777.00, 
1778.00, 
1779.00, 
1780.00, 
1781.00, 
1782.00, 
1783.00, 
1784.00, 
1785.00, 
1786.00, 
1787.00, 
1788.00, 
1789.00, 
1790.00, 
1791.00, 
1792.00, 
1793.00, 
1794.00, 
1795.00, 
1796.00, 
1797.00, 
1798.00, 
1799.00, 
1800.00, 
1801.00, 
1802.00, 
1803.00, 
1804.00, 
1805.00, 
1806.00, 
1807.00, 
1808.00, 
1809.00, 
1810.00, 
1811.00, 
1812.00, 
1813.00, 
1814.00, 
1815.00, 
1816.00, 
1817.00, 
1818.00, 
1819.00, 
1820.00, 
1821.00, 
1822.00, 
1823.00, 
1824.00, 
1825.00, 
1826.00, 
1827.00, 
1828.00, 
1829.00, 
1830.00, 
1831.00, 
1832.00, 
1833.00, 
1834.00, 
1835.00, 
1836.00, 
1837.00, 
1838.00, 
1839.00, 
1840.00, 
1841.00, 
1842.00, 
1843.00, 
1844.00, 
1845.00, 
1846.00, 
1847.00, 
1848.00, 
1849.00, 
1850.00, 
1851.00, 
1852.00, 
1853.00, 
1854.00, 
1855.00, 
1856.00, 
1857.00, 
1858.00, 
1859.00, 
1860.00, 
1861.00, 
1862.00, 
1863.00, 
1864.00, 
1865.00, 
1866.00, 
1867.00, 
1868.00, 
1869.00, 
1870.00, 
1871.00, 
1872.00, 
1873.00, 
1874.00, 
1875.00, 
1876.00, 
1877.00, 
1878.00, 
1879.00, 
1880.00, 
1881.00, 
1882.00, 
1883.00, 
1884.00, 
1885.00, 
1886.00, 
1887.00, 
1888.00, 
1889.00, 
1890.00, 
1891.00, 
1892.00, 
1893.00, 
1894.00, 
1895.00, 
1896.00, 
1897.00, 
1898.00, 
1899.00, 
1900.00, 
1901.00, 
1902.00, 
1903.00, 
1904.00, 
1905.00, 
1906.00, 
1907.00, 
1908.00, 
1909.00, 
1910.00, 
1911.00, 
1912.00, 
1913.00, 
1914.00, 
1915.00, 
1916.00, 
1917.00, 
1918.00, 
1919.00, 
1920.00, 
1921.00, 
1922.00, 
1923.00, 
1924.00, 
1925.00, 
1926.00, 
1927.00, 
1928.00, 
1929.00, 
1930.00, 
1931.00, 
1932.00, 
1933.00, 
1934.00, 
1935.00, 
1936.00, 
1937.00, 
1938.00, 
1939.00, 
1940.00, 
1941.00, 
1942.00, 
1943.00, 
1944.00, 
1945.00, 
1946.00, 
1947.00, 
1948.00, 
1949.00, 
1950.00, 
1951.00, 
1952.00, 
1953.00, 
1954.00, 
1955.00, 
1956.00, 
1957.00, 
1958.00, 
1959.00, 
1960.00, 
1961.00, 
1962.00, 
1963.00, 
1964.00, 
1965.00, 
1966.00, 
1967.00, 
1968.00, 
1969.00, 
1970.00, 
1971.00, 
1972.00, 
1973.00, 
1974.00, 
1975.00, 
1976.00, 
1977.00, 
1978.00, 
1979.00, 
1980.00, 
1981.00, 
1982.00, 
1983.00, 
1984.00, 
1985.00, 
1986.00, 
1987.00, 
1988.00, 
1989.00, 
1990.00, 
1991.00, 
1992.00, 
1993.00, 
1994.00, 
1995.00, 
1996.00, 
1997.00, 
1998.00, 
1999.00, 
2000.00, 
2001.00, 
2002.00, 
2003.00, 
2004.00, 
2005.00, 
2006.00, 
2007.00, 
2008.00, 
2009.00, 
2010.00, 
2011.00, 
2012.00, 
2013.00, 
2014.00, 
2015.00, 
2016.00, 
2017.00, 
2018.00, 
2019.00, 
2020.00, 
2021.00, 
2022.00, 
2023.00, 
2024.00, 
2025.00, 
2026.00, 
2027.00, 
2028.00, 
2029.00, 
2030.00, 
2031.00, 
2032.00, 
2033.00, 
2034.00, 
2035.00, 
2036.00, 
2037.00, 
2038.00, 
2039.00, 
2040.00, 
2041.00, 
2042.00, 
2043.00, 
2044.00, 
2045.00, 
2046.00, 
2047.00, 
2048.00, 
2049.00, 
2050.00, 
2051.00, 
2052.00, 
2053.00, 
2054.00, 
2055.00, 
2056.00, 
2057.00, 
2058.00, 
2059.00, 
2060.00, 
2061.00, 
2062.00, 
2063.00, 
2064.00, 
2065.00, 
2066.00, 
2067.00, 
2068.00, 
2069.00, 
2070.00, 
2071.00, 
2072.00, 
2073.00, 
2074.00, 
2075.00, 
2076.00, 
2077.00, 
2078.00, 
2079.00, 
2080.00, 
2081.00, 
2082.00, 
2083.00, 
2084.00, 
2085.00, 
2086.00, 
2087.00, 
2088.00, 
2089.00, 
2090.00, 
2091.00, 
2092.00, 
2093.00, 
2094.00, 
2095.00, 
2096.00, 
2097.00, 
2098.00, 
2099.00, 
2100.00, 
2101.00, 
2102.00, 
2103.00, 
2104.00, 
2105.00, 
2106.00, 
2107.00, 
2108.00, 
2109.00, 
2110.00, 
2111.00, 
2112.00, 
2113.00, 
2114.00, 
2115.00, 
2116.00, 
2117.00, 
2118.00, 
2119.00, 
2120.00, 
2121.00, 
2122.00, 
2123.00, 
2124.00, 
2125.00, 
2126.00, 
2127.00, 
2128.00, 
2129.00, 
2130.00, 
2131.00, 
2132.00, 
2133.00, 
2134.00, 
2135.00, 
2136.00, 
2137.00, 
2138.00, 
2139.00, 
2140.00, 
2141.00, 
2142.00, 
2143.00, 
2144.00, 
2145.00, 
2146.00, 
2147.00, 
2148.00, 
2149.00, 
2150.00, 
2151.00, 
2152.00, 
2153.00, 
2154.00, 
2155.00, 
2156.00, 
2157.00, 
2158.00, 
2159.00, 
2160.00, 
2161.00, 
2162.00, 
2163.00, 
2164.00, 
2165.00, 
2166.00, 
2167.00, 
2168.00, 
2169.00, 
2170.00, 
2171.00, 
2172.00, 
2173.00, 
2174.00, 
2175.00, 
2176.00, 
2177.00, 
2178.00, 
2179.00, 
2180.00, 
2181.00, 
2182.00, 
2183.00, 
2184.00, 
2185.00, 
2186.00, 
2187.00, 
2188.00, 
2189.00, 
2190.00, 
2191.00, 
2192.00, 
2193.00, 
2194.00, 
2195.00, 
2196.00, 
2197.00, 
2198.00, 
2199.00, 
2200.00, 
2201.00, 
2202.00, 
2203.00, 
2204.00, 
2205.00, 
2206.00, 
2207.00, 
2208.00, 
2209.00, 
2210.00, 
2211.00, 
2212.00, 
2213.00, 
2214.00, 
2215.00, 
2216.00, 
2217.00, 
2218.00, 
2219.00, 
2220.00, 
2221.00, 
2222.00, 
2223.00, 
2224.00, 
2225.00, 
2226.00, 
2227.00, 
2228.00, 
2229.00, 
2230.00, 
2231.00, 
2232.00, 
2233.00, 
2234.00, 
2235.00, 
2236.00, 
2237.00, 
2238.00, 
2239.00, 
2240.00, 
2241.00, 
2242.00, 
2243.00, 
2244.00, 
2245.00, 
2246.00, 
2247.00, 
2248.00, 
2249.00, 
2250.00, 
2251.00, 
2252.00, 
2253.00, 
2254.00, 
2255.00, 
2256.00, 
2257.00, 
2258.00, 
2259.00, 
2260.00, 
2261.00, 
2262.00, 
2263.00, 
2264.00, 
2265.00, 
2266.00, 
2267.00, 
2268.00, 
2269.00, 
2270.00, 
2271.00, 
2272.00, 
2273.00, 
2274.00, 
2275.00, 
2276.00, 
2277.00, 
2278.00, 
2279.00, 
2280.00, 
2281.00, 
2282.00, 
2283.00, 
2284.00, 
2285.00, 
2286.00, 
2287.00, 
2288.00, 
2289.00, 
2290.00, 
2291.00, 
2292.00, 
2293.00, 
2294.00, 
2295.00, 
2296.00, 
2297.00, 
2298.00, 
2299.00, 
2300.00, 
2301.00, 
2302.00, 
2303.00, 
2304.00, 
2305.00, 
2306.00, 
2307.00, 
2308.00, 
2309.00, 
2310.00, 
2311.00, 
2312.00, 
2313.00, 
2314.00, 
2315.00, 
2316.00, 
2317.00, 
2318.00, 
2319.00, 
2320.00, 
2321.00, 
2322.00, 
2323.00, 
2324.00, 
2325.00, 
2326.00, 
2327.00, 
2328.00, 
2329.00, 
2330.00, 
2331.00, 
2332.00, 
2333.00, 
2334.00, 
2335.00, 
2336.00, 
2337.00, 
2338.00, 
2339.00, 
2340.00, 
2341.00, 
2342.00, 
2343.00, 
2344.00, 
2345.00, 
2346.00, 
2347.00, 
2348.00, 
2349.00, 
2350.00, 
2351.00, 
2352.00, 
2353.00, 
2354.00, 
2355.00, 
2356.00, 
2357.00, 
2358.00, 
2359.00, 
2360.00, 
2361.00, 
2362.00, 
2363.00, 
2364.00, 
2365.00, 
2366.00, 
2367.00, 
2368.00, 
2369.00, 
2370.00, 
2371.00, 
2372.00, 
2373.00, 
2374.00, 
2375.00, 
2376.00, 
2377.00, 
2378.00, 
2379.00, 
2380.00, 
2381.00, 
2382.00, 
2383.00, 
2384.00, 
2385.00, 
2386.00, 
2387.00, 
2388.00, 
2389.00, 
2390.00, 
2391.00, 
2392.00, 
2393.00, 
2394.00, 
2395.00, 
2396.00, 
2397.00, 
2398.00, 
2399.00, 
2400.00, 
2401.00, 
2402.00, 
2403.00, 
2404.00, 
2405.00, 
2406.00, 
2407.00, 
2408.00, 
2409.00, 
2410.00, 
2411.00, 
2412.00, 
2413.00, 
2414.00, 
2415.00, 
2416.00, 
2417.00, 
2418.00, 
2419.00, 
2420.00, 
2421.00, 
2422.00, 
2423.00, 
2424.00, 
2425.00, 
2426.00, 
2427.00, 
2428.00, 
2429.00, 
2430.00, 
2431.00, 
2432.00, 
2433.00, 
2434.00, 
2435.00, 
2436.00, 
2437.00, 
2438.00, 
2439.00, 
2440.00, 
2441.00, 
2442.00, 
2443.00, 
2444.00, 
2445.00, 
2446.00, 
2447.00, 
2448.00, 
2449.00, 
2450.00, 
2451.00, 
2452.00, 
2453.00, 
2454.00, 
2455.00, 
2456.00, 
2457.00, 
2458.00, 
2459.00, 
2460.00, 
2461.00, 
2462.00, 
2463.00, 
2464.00, 
2465.00, 
2466.00, 
2467.00, 
2468.00, 
2469.00, 
2470.00, 
2471.00, 
2472.00, 
2473.00, 
2474.00, 
2475.00, 
2476.00, 
2477.00, 
2478.00, 
2479.00, 
2480.00, 
2481.00, 
2482.00, 
2483.00, 
2484.00, 
2485.00, 
2486.00, 
2487.00, 
2488.00, 
2489.00, 
2490.00, 
2491.00, 
2492.00, 
2493.00, 
2494.00, 
2495.00, 
2496.00, 
2497.00, 
2498.00, 
2499.00, 
2500.00, 
2501.00, 
2502.00, 
2503.00, 
2504.00, 
2505.00, 
2506.00, 
2507.00, 
2508.00, 
2509.00, 
2510.00, 
2511.00, 
2512.00, 
2513.00, 
2514.00, 
2515.00, 
2516.00, 
2517.00, 
2518.00, 
2519.00, 
2520.00, 
2521.00, 
2522.00, 
2523.00, 
2524.00, 
2525.00, 
2526.00, 
2527.00, 
2528.00, 
2529.00, 
2530.00, 
2531.00, 
2532.00, 
2533.00, 
2534.00, 
2535.00, 
2536.00, 
2537.00, 
2538.00, 
2539.00, 
2540.00, 
2541.00, 
2542.00, 
2543.00, 
2544.00, 
2545.00, 
2546.00, 
2547.00, 
2548.00, 
2549.00, 
2550.00, 
2551.00, 
2552.00, 
2553.00, 
2554.00, 
2555.00, 
2556.00, 
2557.00, 
2558.00, 
2559.00, 
2560.00, 
2561.00, 
2562.00, 
2563.00, 
2564.00, 
2565.00, 
2566.00, 
2567.00, 
2568.00, 
2569.00, 
2570.00, 
2571.00, 
2572.00, 
2573.00, 
2574.00, 
2575.00, 
2576.00, 
2577.00, 
2578.00, 
2579.00, 
2580.00, 
2581.00, 
2582.00, 
2583.00, 
2584.00, 
2585.00, 
2586.00, 
2587.00, 
2588.00, 
2589.00, 
2590.00, 
2591.00, 
2592.00, 
2593.00, 
2594.00, 
2595.00, 
2596.00, 
2597.00, 
2598.00, 
2599.00, 
2600.00, 
