"2cP5 - RawData"
"Wavelength nm.","T%"
200.00,0.002
201.00,0.000
202.00,0.002
203.00,0.001
204.00,0.001
205.00,0.001
206.00,0.002
207.00,-0.002
208.00,0.001
209.00,-0.000
210.00,0.003
211.00,-0.001
212.00,0.003
213.00,-0.000
214.00,0.002
215.00,0.002
216.00,-0.002
217.00,0.001
218.00,0.001
219.00,0.001
220.00,0.000
221.00,-0.002
222.00,-0.001
223.00,0.002
224.00,-0.001
225.00,0.000
226.00,-0.001
227.00,0.003
228.00,0.000
229.00,0.000
230.00,0.000
231.00,0.002
232.00,0.002
233.00,0.001
234.00,-0.001
235.00,-0.001
236.00,-0.001
237.00,0.001
238.00,-0.001
239.00,0.000
240.00,0.001
241.00,0.001
242.00,0.000
243.00,-0.000
244.00,0.000
245.00,0.001
246.00,-0.000
247.00,-0.001
248.00,0.000
249.00,-0.000
250.00,0.001
251.00,0.001
252.00,-0.000
253.00,-0.000
254.00,0.001
255.00,0.000
256.00,0.001
257.00,0.001
258.00,0.001
259.00,-0.000
260.00,-0.001
261.00,0.003
262.00,0.000
263.00,0.001
264.00,0.000
265.00,0.003
266.00,0.003
267.00,0.000
268.00,-0.000
269.00,0.000
270.00,0.000
271.00,-0.000
272.00,0.001
273.00,-0.001
274.00,-0.000
275.00,-0.002
276.00,-0.001
277.00,-0.001
278.00,-0.001
279.00,0.001
280.00,0.001
281.00,0.000
282.00,-0.001
283.00,0.001
284.00,0.002
285.00,-0.002
286.00,0.001
287.00,-0.001
288.00,0.002
289.00,0.000
290.00,-0.000
291.00,-0.001
292.00,-0.000
293.00,0.001
294.00,-0.002
295.00,0.001
296.00,0.001
297.00,0.002
298.00,-0.001
299.00,0.001
300.00,0.003
301.00,0.002
302.00,0.004
303.00,0.006
304.00,0.012
305.00,0.015
306.00,0.024
307.00,0.035
308.00,0.055
309.00,0.087
310.00,0.119
311.00,0.162
312.00,0.218
313.00,0.299
314.00,0.392
315.00,0.513
316.00,0.656
317.00,0.832
318.00,1.025
319.00,1.251
320.00,1.540
321.00,1.838
322.00,2.118
323.00,2.569
324.00,2.981
325.00,3.383
326.00,3.810
327.00,4.330
328.00,4.810
329.00,5.325
330.00,5.853
331.00,6.391
332.00,6.952
333.00,7.560
334.00,8.098
335.00,8.642
336.00,9.242
337.00,9.740
338.00,10.342
339.00,10.861
340.00,11.390
341.00,11.901
342.00,12.408
343.00,12.837
344.00,13.262
345.00,13.720
346.00,14.116
347.00,14.465
348.00,14.813
349.00,15.134
350.00,15.470
351.00,15.766
352.00,16.017
353.00,16.302
354.00,16.540
355.00,16.767
356.00,16.983
357.00,17.165
358.00,17.334
359.00,17.524
360.00,17.710
361.00,17.809
362.00,17.940
363.00,18.097
364.00,18.103
365.00,18.214
366.00,18.285
367.00,18.342
368.00,18.428
369.00,18.422
370.00,18.470
371.00,18.492
372.00,18.494
373.00,18.472
374.00,18.463
375.00,18.452
376.00,18.406
377.00,18.400
378.00,18.325
379.00,18.254
380.00,18.219
381.00,18.199
382.00,18.180
383.00,18.231
384.00,18.199
385.00,18.230
386.00,18.202
387.00,18.254
388.00,18.326
389.00,18.304
390.00,18.328
391.00,18.328
392.00,18.336
393.00,18.317
394.00,18.353
395.00,18.373
396.00,18.349
397.00,18.398
398.00,18.392
399.00,18.342
400.00,18.340
401.00,18.340
402.00,18.349
403.00,18.355
404.00,18.350
405.00,18.342
406.00,18.320
407.00,18.303
408.00,18.299
409.00,18.263
410.00,18.212
411.00,18.206
412.00,18.198
413.00,18.200
414.00,18.230
415.00,18.196
416.00,18.273
417.00,18.271
418.00,18.249
419.00,18.362
420.00,18.384
421.00,18.422
422.00,18.436
423.00,18.489
424.00,18.550
425.00,18.570
426.00,18.554
427.00,18.620
428.00,18.649
429.00,18.712
430.00,18.744
431.00,18.820
432.00,18.870
433.00,18.906
434.00,18.996
435.00,19.049
436.00,19.109
437.00,19.189
438.00,19.245
439.00,19.318
440.00,19.393
441.00,19.469
442.00,19.565
443.00,19.614
444.00,19.735
445.00,19.816
446.00,19.930
447.00,20.018
448.00,20.136
449.00,20.248
450.00,20.314
451.00,20.417
452.00,20.525
453.00,20.662
454.00,20.747
455.00,20.848
456.00,20.980
457.00,21.087
458.00,21.195
459.00,21.324
460.00,21.466
461.00,21.618
462.00,21.705
463.00,21.852
464.00,21.974
465.00,22.091
466.00,22.236
467.00,22.405
468.00,22.511
469.00,22.614
470.00,22.735
471.00,22.806
472.00,22.956
473.00,23.062
474.00,23.182
475.00,23.295
476.00,23.442
477.00,23.532
478.00,23.681
479.00,23.861
480.00,23.983
481.00,24.150
482.00,24.277
483.00,24.422
484.00,24.649
485.00,24.703
486.00,24.923
487.00,25.032
488.00,25.209
489.00,25.371
490.00,25.522
491.00,25.690
492.00,25.878
493.00,26.039
494.00,26.088
495.00,26.264
496.00,26.311
497.00,26.464
498.00,26.544
499.00,26.775
500.00,26.902
501.00,27.022
502.00,27.200
503.00,27.358
504.00,27.429
505.00,27.546
506.00,27.666
507.00,27.766
508.00,27.919
509.00,28.143
510.00,28.216
511.00,28.315
512.00,28.481
513.00,28.645
514.00,28.752
515.00,28.881
516.00,28.998
517.00,29.104
518.00,29.260
519.00,29.337
520.00,29.386
521.00,29.500
522.00,29.644
523.00,29.657
524.00,29.756
525.00,29.903
526.00,30.000
527.00,30.093
528.00,30.168
529.00,30.320
530.00,30.449
531.00,30.629
532.00,30.685
533.00,30.825
534.00,30.882
535.00,30.977
536.00,31.089
537.00,31.144
538.00,31.240
539.00,31.403
540.00,31.374
541.00,31.444
542.00,31.499
543.00,31.588
544.00,31.650
545.00,31.726
546.00,31.782
547.00,31.901
548.00,31.981
549.00,32.029
550.00,32.166
551.00,32.213
552.00,32.313
553.00,32.382
554.00,32.382
555.00,32.406
556.00,32.586
557.00,32.608
558.00,32.669
559.00,32.755
560.00,32.795
561.00,32.845
562.00,32.921
563.00,32.953
564.00,33.016
565.00,33.051
566.00,33.072
567.00,33.170
568.00,33.222
569.00,33.192
570.00,33.268
571.00,33.308
572.00,33.315
573.00,33.401
574.00,33.419
575.00,33.453
576.00,33.459
577.00,33.519
578.00,33.664
579.00,33.692
580.00,33.778
581.00,33.900
582.00,33.988
583.00,34.022
584.00,34.139
585.00,34.154
586.00,34.247
587.00,34.386
588.00,34.309
589.00,34.228
590.00,34.344
591.00,34.404
592.00,34.397
593.00,34.483
594.00,34.509
595.00,34.569
596.00,34.656
597.00,34.685
598.00,34.772
599.00,34.797
600.00,34.820
601.00,34.790
602.00,34.971
603.00,35.076
604.00,34.984
605.00,35.049
606.00,35.109
607.00,35.165
608.00,35.331
609.00,35.420
610.00,35.320
611.00,35.321
612.00,35.315
613.00,35.467
614.00,35.529
615.00,35.617
616.00,35.780
617.00,35.763
618.00,35.857
619.00,35.877
620.00,35.841
621.00,35.931
622.00,36.040
623.00,36.154
624.00,36.167
625.00,36.235
626.00,36.290
627.00,36.351
628.00,36.354
629.00,36.414
630.00,36.471
631.00,36.628
632.00,36.663
633.00,36.784
634.00,36.865
635.00,36.969
636.00,37.027
637.00,37.094
638.00,37.106
639.00,37.201
640.00,37.310
641.00,37.342
642.00,37.388
643.00,37.432
644.00,37.674
645.00,37.752
646.00,37.856
647.00,37.978
648.00,38.070
649.00,38.078
650.00,38.122
651.00,38.344
652.00,38.427
653.00,38.404
654.00,38.500
655.00,38.701
656.00,38.993
657.00,38.928
658.00,39.006
659.00,39.069
660.00,39.148
661.00,39.193
662.00,39.291
663.00,39.465
664.00,39.648
665.00,39.856
666.00,39.879
667.00,39.966
668.00,40.013
669.00,40.202
670.00,40.428
671.00,40.368
672.00,40.474
673.00,40.564
674.00,40.675
675.00,40.746
676.00,40.987
677.00,41.122
678.00,41.022
679.00,41.171
680.00,41.421
681.00,41.495
682.00,41.565
683.00,41.537
684.00,41.722
685.00,41.848
686.00,41.822
687.00,42.022
688.00,42.166
689.00,42.165
690.00,42.497
691.00,42.663
692.00,42.424
693.00,42.453
694.00,42.730
695.00,42.823
696.00,42.958
697.00,42.961
698.00,42.963
699.00,43.173
700.00,43.686
701.00,43.740
702.00,43.668
703.00,43.897
704.00,43.872
705.00,43.906
706.00,44.060
707.00,44.061
708.00,44.068
709.00,44.405
710.00,44.820
711.00,44.454
712.00,44.493
713.00,44.685
714.00,44.697
715.00,44.800
716.00,44.706
717.00,45.039
718.00,45.195
719.00,45.148
720.00,45.367
721.00,49.694
722.00,49.754
723.00,49.812
724.00,49.882
725.00,49.859
726.00,49.963
727.00,50.034
728.00,50.029
729.00,50.087
730.00,50.134
731.00,50.120
732.00,50.250
733.00,50.367
734.00,50.364
735.00,50.451
736.00,50.456
737.00,50.496
738.00,50.539
739.00,50.605
740.00,50.694
741.00,50.695
742.00,50.728
743.00,50.808
744.00,50.781
745.00,50.799
746.00,50.810
747.00,50.907
748.00,50.863
749.00,50.895
750.00,51.010
751.00,50.952
752.00,50.977
753.00,51.022
754.00,51.004
755.00,51.103
756.00,51.082
757.00,51.128
758.00,51.146
759.00,51.199
760.00,51.211
761.00,51.243
762.00,51.298
763.00,51.319
764.00,51.274
765.00,51.356
766.00,51.320
767.00,51.360
768.00,51.401
769.00,51.368
770.00,51.579
771.00,51.453
772.00,51.570
773.00,51.499
774.00,51.601
775.00,51.647
776.00,51.566
777.00,51.588
778.00,51.563
779.00,51.675
780.00,51.576
781.00,51.643
782.00,51.645
783.00,51.584
784.00,51.705
785.00,51.695
786.00,51.782
787.00,51.755
788.00,51.714
789.00,51.702
790.00,51.613
791.00,51.737
792.00,51.732
793.00,51.699
794.00,51.753
795.00,51.731
796.00,51.724
797.00,51.625
798.00,51.660
799.00,51.718
800.00,51.668
801.00,51.678
802.00,51.696
803.00,51.699
804.00,51.619
805.00,51.667
806.00,51.666
807.00,51.712
808.00,51.678
809.00,51.675
810.00,51.640
811.00,51.581
812.00,51.685
813.00,51.613
814.00,51.626
815.00,51.597
816.00,51.591
817.00,51.593
818.00,51.537
819.00,51.569
820.00,51.468
821.00,51.563
822.00,51.568
823.00,51.576
824.00,51.519
825.00,51.484
826.00,51.589
827.00,51.613
828.00,51.502
829.00,51.434
830.00,51.512
831.00,53.667
832.00,53.670
833.00,53.607
834.00,53.645
835.00,53.564
836.00,53.611
837.00,53.543
838.00,53.514
839.00,53.579
840.00,53.546
841.00,53.530
842.00,53.492
843.00,53.563
844.00,53.517
845.00,53.455
846.00,53.487
847.00,53.451
848.00,53.450
849.00,53.390
850.00,53.348
851.00,53.295
852.00,53.322
853.00,53.276
854.00,53.251
855.00,53.198
856.00,53.247
857.00,53.212
858.00,53.128
859.00,53.137
860.00,53.148
861.00,53.168
862.00,53.078
863.00,53.142
864.00,53.078
865.00,53.124
866.00,53.244
867.00,53.121
868.00,53.108
869.00,53.035
870.00,53.078
871.00,53.047
872.00,53.052
873.00,53.043
874.00,53.056
875.00,52.983
876.00,53.063
877.00,53.009
878.00,53.026
879.00,52.982
880.00,52.992
881.00,52.943
882.00,52.971
883.00,52.914
884.00,52.901
885.00,52.863
886.00,52.864
887.00,52.849
888.00,52.839
889.00,52.815
890.00,52.802
891.00,52.774
892.00,52.781
893.00,52.730
894.00,52.680
895.00,52.859
896.00,52.684
897.00,52.671
898.00,52.655
899.00,52.655
900.00,52.626
901.00,52.620
902.00,52.651
903.00,52.612
904.00,52.579
905.00,52.565
906.00,52.577
907.00,52.554
908.00,52.499
909.00,52.472
910.00,52.562
911.00,52.464
912.00,52.463
913.00,52.413
914.00,52.391
915.00,52.398
916.00,52.363
917.00,52.344
918.00,52.358
919.00,52.338
920.00,52.221
921.00,52.351
922.00,52.276
923.00,52.261
924.00,52.198
925.00,52.205
926.00,52.178
927.00,52.167
928.00,52.156
929.00,52.174
930.00,52.117
931.00,52.131
932.00,52.087
933.00,52.092
934.00,52.048
935.00,52.011
936.00,52.036
937.00,51.984
938.00,51.970
939.00,51.984
940.00,51.949
941.00,51.932
942.00,51.904
943.00,51.896
944.00,51.852
945.00,51.859
946.00,51.869
947.00,51.815
948.00,51.802
949.00,51.791
950.00,51.768
951.00,51.707
952.00,51.778
953.00,51.688
954.00,51.682
955.00,51.612
956.00,51.627
957.00,51.571
958.00,51.607
959.00,51.506
960.00,51.545
961.00,51.529
962.00,51.539
963.00,51.482
964.00,51.490
965.00,51.471
966.00,51.430
967.00,51.504
968.00,51.418
969.00,51.444
970.00,51.424
971.00,51.449
972.00,51.419
973.00,51.450
974.00,51.475
975.00,51.438
976.00,51.468
977.00,51.440
978.00,51.475
979.00,51.439
980.00,51.430
981.00,51.415
982.00,51.380
983.00,51.432
984.00,51.411
985.00,51.442
986.00,51.383
987.00,51.397
988.00,51.392
989.00,51.413
990.00,51.379
991.00,51.334
992.00,51.377
993.00,51.318
994.00,51.313
995.00,51.307
996.00,51.288
997.00,51.271
998.00,51.265
999.00,51.291
1000.00,51.248
1001.00,51.241
1002.00,51.221
1003.00,51.238
1004.00,51.202
1005.00,51.170
1006.00,51.190
1007.00,51.156
1008.00,51.146
1009.00,51.134
1010.00,51.114
1011.00,51.119
1012.00,51.079
1013.00,51.075
1014.00,51.047
1015.00,51.053
1016.00,51.018
1017.00,51.019
1018.00,51.022
1019.00,50.979
1020.00,50.990
1021.00,50.964
1022.00,50.969
1023.00,50.914
1024.00,50.919
1025.00,50.910
1026.00,50.872
1027.00,50.855
1028.00,50.860
1029.00,50.841
1030.00,50.803
1031.00,50.825
1032.00,50.764
1033.00,50.777
1034.00,50.744
1035.00,50.701
1036.00,50.693
1037.00,50.673
1038.00,50.667
1039.00,50.642
1040.00,50.629
1041.00,50.608
1042.00,50.594
1043.00,50.562
1044.00,50.602
1045.00,50.583
1046.00,50.560
1047.00,50.600
1048.00,50.598
1049.00,50.610
1050.00,50.605
1051.00,50.649
1052.00,50.644
1053.00,50.652
1054.00,50.643
1055.00,50.671
1056.00,50.694
1057.00,50.679
1058.00,50.663
1059.00,50.654
1060.00,50.665
1061.00,50.648
1062.00,50.631
1063.00,50.641
1064.00,50.648
1065.00,50.621
1066.00,50.619
1067.00,50.602
1068.00,50.616
1069.00,50.578
1070.00,50.569
1071.00,50.558
1072.00,50.589
1073.00,50.564
1074.00,50.545
1075.00,50.515
1076.00,50.510
1077.00,50.513
1078.00,50.486
1079.00,50.477
1080.00,50.493
1081.00,50.471
1082.00,50.472
1083.00,50.473
1084.00,50.444
1085.00,50.456
1086.00,50.439
1087.00,50.425
1088.00,50.416
1089.00,50.403
1090.00,50.392
1091.00,50.400
1092.00,50.370
1093.00,50.356
1094.00,50.340
1095.00,50.334
1096.00,50.318
1097.00,50.324
1098.00,50.295
1099.00,50.300
1100.00,50.301
1101.00,50.328
1102.00,50.286
1103.00,50.288
1104.00,50.270
1105.00,50.253
1106.00,50.231
1107.00,50.238
1108.00,50.230
1109.00,50.208
1110.00,50.215
1111.00,50.204
1112.00,50.179
1113.00,50.191
1114.00,50.175
1115.00,50.177
1116.00,50.176
1117.00,50.163
1118.00,50.164
1119.00,50.154
1120.00,50.137
1121.00,50.135
1122.00,50.117
1123.00,50.121
1124.00,50.112
1125.00,50.101
1126.00,50.097
1127.00,50.109
1128.00,50.080
1129.00,50.076
1130.00,50.069
1131.00,50.063
1132.00,50.053
1133.00,50.062
1134.00,50.060
1135.00,50.017
1136.00,50.016
1137.00,50.037
1138.00,50.028
1139.00,50.037
1140.00,50.024
1141.00,50.017
1142.00,49.985
1143.00,50.003
1144.00,49.970
1145.00,49.958
1146.00,49.959
1147.00,49.943
1148.00,49.949
1149.00,49.995
1150.00,49.994
1151.00,49.984
1152.00,49.958
1153.00,49.948
1154.00,49.944
1155.00,49.949
1156.00,49.924
1157.00,49.952
1158.00,49.945
1159.00,49.939
1160.00,49.942
1161.00,49.940
1162.00,49.947
1163.00,49.928
1164.00,49.917
1165.00,49.935
1166.00,49.926
1167.00,49.904
1168.00,49.931
1169.00,49.917
1170.00,49.915
1171.00,49.897
1172.00,49.904
1173.00,49.891
1174.00,49.906
1175.00,49.903
1176.00,49.897
1177.00,49.876
1178.00,49.870
1179.00,49.897
1180.00,49.870
1181.00,49.888
1182.00,49.884
1183.00,49.871
1184.00,49.871
1185.00,49.881
1186.00,49.864
1187.00,49.868
1188.00,49.875
1189.00,49.846
1190.00,49.870
1191.00,49.849
1192.00,49.855
1193.00,49.864
1194.00,49.855
1195.00,49.844
1196.00,49.876
1197.00,49.844
1198.00,49.824
1199.00,49.831
1200.00,49.848
1201.00,49.881
1202.00,49.849
1203.00,49.847
1204.00,49.845
1205.00,49.849
1206.00,49.833
1207.00,49.857
1208.00,49.858
1209.00,49.871
1210.00,49.878
1211.00,49.845
1212.00,49.846
1213.00,49.805
1214.00,49.843
1215.00,49.823
1216.00,49.809
1217.00,49.826
1218.00,49.808
1219.00,49.809
1220.00,49.786
1221.00,49.826
1222.00,49.802
1223.00,49.836
1224.00,49.827
1225.00,49.816
1226.00,49.826
1227.00,49.803
1228.00,49.834
1229.00,49.838
1230.00,49.868
1231.00,49.845
1232.00,49.862
1233.00,49.862
1234.00,49.865
1235.00,49.866
1236.00,49.859
1237.00,49.881
1238.00,49.860
1239.00,49.877
1240.00,49.872
1241.00,49.855
1242.00,49.880
1243.00,49.876
1244.00,49.842
1245.00,49.884
1246.00,49.887
1247.00,49.871
1248.00,49.881
1249.00,49.877
1250.00,49.889
1251.00,49.879
1252.00,49.883
1253.00,49.884
1254.00,49.927
1255.00,49.883
1256.00,49.887
1257.00,49.884
1258.00,49.916
1259.00,49.898
1260.00,49.909
1261.00,49.915
1262.00,49.918
1263.00,49.900
1264.00,49.920
1265.00,49.922
1266.00,49.915
1267.00,49.949
1268.00,49.948
1269.00,49.950
1270.00,49.968
1271.00,49.942
1272.00,49.951
1273.00,49.954
1274.00,49.941
1275.00,49.974
1276.00,49.957
1277.00,49.949
1278.00,49.972
1279.00,49.972
1280.00,49.974
1281.00,49.990
1282.00,49.989
1283.00,49.976
1284.00,49.988
1285.00,49.974
1286.00,50.002
1287.00,49.991
1288.00,49.994
1289.00,49.996
1290.00,50.016
1291.00,50.008
1292.00,50.009
1293.00,50.005
1294.00,50.048
1295.00,50.040
1296.00,50.014
1297.00,50.019
1298.00,50.028
1299.00,50.017
1300.00,50.063
1301.00,50.031
1302.00,50.046
1303.00,50.053
1304.00,50.019
1305.00,50.050
1306.00,50.075
1307.00,50.081
1308.00,50.081
1309.00,50.088
1310.00,50.087
1311.00,50.090
1312.00,50.101
1313.00,50.114
1314.00,50.132
1315.00,50.139
1316.00,50.132
1317.00,50.175
1318.00,50.142
1319.00,50.163
1320.00,50.179
1321.00,50.327
1322.00,50.330
1323.00,50.318
1324.00,50.287
1325.00,50.294
1326.00,50.329
1327.00,50.294
1328.00,50.298
1329.00,50.282
1330.00,50.305
1331.00,50.291
1332.00,50.259
1333.00,50.378
1334.00,50.311
1335.00,50.341
1336.00,50.358
1337.00,50.389
1338.00,50.445
1339.00,50.501
1340.00,50.557
1341.00,50.613
1342.00,50.674
1343.00,50.731
1344.00,50.762
1345.00,50.822
1346.00,50.860
1347.00,50.884
1348.00,50.894
1349.00,50.907
1350.00,50.934
1351.00,50.962
1352.00,50.946
1353.00,51.000
1354.00,50.994
1355.00,50.939
1356.00,51.033
1357.00,50.980
1358.00,50.997
1359.00,51.019
1360.00,51.001
1361.00,51.060
1362.00,51.002
1363.00,51.073
1364.00,51.068
1365.00,50.985
1366.00,51.016
1367.00,51.000
1368.00,51.005
1369.00,51.021
1370.00,50.994
1371.00,50.924
1372.00,50.971
1373.00,50.975
1374.00,50.997
1375.00,50.985
1376.00,50.965
1377.00,50.950
1378.00,51.001
1379.00,50.983
1380.00,50.987
1381.00,51.001
1382.00,50.883
1383.00,50.975
1384.00,50.900
1385.00,50.951
1386.00,51.056
1387.00,50.932
1388.00,50.936
1389.00,50.943
1390.00,51.151
1391.00,50.972
1392.00,50.929
1393.00,50.902
1394.00,50.966
1395.00,50.955
1396.00,50.756
1397.00,50.840
1398.00,50.953
1399.00,50.980
1400.00,50.861
1401.00,50.957
1402.00,51.020
1403.00,50.933
1404.00,50.986
1405.00,50.996
1406.00,51.035
1407.00,51.007
1408.00,51.045
1409.00,50.965
1410.00,51.039
1411.00,51.029
1412.00,51.068
1413.00,50.987
1414.00,51.026
1415.00,51.057
1416.00,51.098
1417.00,51.102
1418.00,51.049
1419.00,51.073
1420.00,51.096
1421.00,51.134
1422.00,51.124
1423.00,51.136
1424.00,51.153
1425.00,51.158
1426.00,51.161
1427.00,51.208
1428.00,51.186
1429.00,51.229
1430.00,51.232
1431.00,51.237
1432.00,51.257
1433.00,51.284
1434.00,51.270
1435.00,51.327
1436.00,51.334
1437.00,51.309
1438.00,51.344
1439.00,51.364
1440.00,51.368
1441.00,51.380
1442.00,51.369
1443.00,51.393
1444.00,51.452
1445.00,51.380
1446.00,51.433
1447.00,51.471
1448.00,51.511
1449.00,51.508
1450.00,51.509
1451.00,51.519
1452.00,51.545
1453.00,51.538
1454.00,51.557
1455.00,51.596
1456.00,51.590
1457.00,51.613
1458.00,51.624
1459.00,51.638
1460.00,51.669
1461.00,51.655
1462.00,51.695
1463.00,51.690
1464.00,51.703
1465.00,51.719
1466.00,51.719
1467.00,51.733
1468.00,51.787
1469.00,51.761
1470.00,51.767
1471.00,51.806
1472.00,51.797
1473.00,51.825
1474.00,51.846
1475.00,51.843
1476.00,51.865
1477.00,51.836
1478.00,51.853
1479.00,51.874
1480.00,51.867
1481.00,51.867
1482.00,51.920
1483.00,51.932
1484.00,51.942
1485.00,51.958
1486.00,51.948
1487.00,51.978
1488.00,52.007
1489.00,51.989
1490.00,52.021
1491.00,52.023
1492.00,52.047
1493.00,52.036
1494.00,52.073
1495.00,52.064
1496.00,52.084
1497.00,52.079
1498.00,52.087
1499.00,52.108
1500.00,52.117
1501.00, 
1502.00, 
1503.00, 
1504.00, 
1505.00, 
1506.00, 
1507.00, 
1508.00, 
1509.00, 
1510.00, 
1511.00, 
1512.00, 
1513.00, 
1514.00, 
1515.00, 
1516.00, 
1517.00, 
1518.00, 
1519.00, 
1520.00, 
1521.00, 
1522.00, 
1523.00, 
1524.00, 
1525.00, 
1526.00, 
1527.00, 
1528.00, 
1529.00, 
1530.00, 
1531.00, 
1532.00, 
1533.00, 
1534.00, 
1535.00, 
1536.00, 
1537.00, 
1538.00, 
1539.00, 
1540.00, 
1541.00, 
1542.00, 
1543.00, 
1544.00, 
1545.00, 
1546.00, 
1547.00, 
1548.00, 
1549.00, 
1550.00, 
1551.00, 
1552.00, 
1553.00, 
1554.00, 
1555.00, 
1556.00, 
1557.00, 
1558.00, 
1559.00, 
1560.00, 
1561.00, 
1562.00, 
1563.00, 
1564.00, 
1565.00, 
1566.00, 
1567.00, 
1568.00, 
1569.00, 
1570.00, 
1571.00, 
1572.00, 
1573.00, 
1574.00, 
1575.00, 
1576.00, 
1577.00, 
1578.00, 
1579.00, 
1580.00, 
1581.00, 
1582.00, 
1583.00, 
1584.00, 
1585.00, 
1586.00, 
1587.00, 
1588.00, 
1589.00, 
1590.00, 
1591.00, 
1592.00, 
1593.00, 
1594.00, 
1595.00, 
1596.00, 
1597.00, 
1598.00, 
1599.00, 
1600.00, 
1601.00, 
1602.00, 
1603.00, 
1604.00, 
1605.00, 
1606.00, 
1607.00, 
1608.00, 
1609.00, 
1610.00, 
1611.00, 
1612.00, 
1613.00, 
1614.00, 
1615.00, 
1616.00, 
1617.00, 
1618.00, 
1619.00, 
1620.00, 
1621.00, 
1622.00, 
1623.00, 
1624.00, 
1625.00, 
1626.00, 
1627.00, 
1628.00, 
1629.00, 
1630.00, 
1631.00, 
1632.00, 
1633.00, 
1634.00, 
1635.00, 
1636.00, 
1637.00, 
1638.00, 
1639.00, 
1640.00, 
1641.00, 
1642.00, 
1643.00, 
1644.00, 
1645.00, 
1646.00, 
1647.00, 
1648.00, 
1649.00, 
1650.00, 
1651.00, 
1652.00, 
1653.00, 
1654.00, 
1655.00, 
1656.00, 
1657.00, 
1658.00, 
1659.00, 
1660.00, 
1661.00, 
1662.00, 
1663.00, 
1664.00, 
1665.00, 
1666.00, 
1667.00, 
1668.00, 
1669.00, 
1670.00, 
1671.00, 
1672.00, 
1673.00, 
1674.00, 
1675.00, 
1676.00, 
1677.00, 
1678.00, 
1679.00, 
1680.00, 
1681.00, 
1682.00, 
1683.00, 
1684.00, 
1685.00, 
1686.00, 
1687.00, 
1688.00, 
1689.00, 
1690.00, 
1691.00, 
1692.00, 
1693.00, 
1694.00, 
1695.00, 
1696.00, 
1697.00, 
1698.00, 
1699.00, 
1700.00, 
1701.00, 
1702.00, 
1703.00, 
1704.00, 
1705.00, 
1706.00, 
1707.00, 
1708.00, 
1709.00, 
1710.00, 
1711.00, 
1712.00, 
1713.00, 
1714.00, 
1715.00, 
1716.00, 
1717.00, 
1718.00, 
1719.00, 
1720.00, 
1721.00, 
1722.00, 
1723.00, 
1724.00, 
1725.00, 
1726.00, 
1727.00, 
1728.00, 
1729.00, 
1730.00, 
1731.00, 
1732.00, 
1733.00, 
1734.00, 
1735.00, 
1736.00, 
1737.00, 
1738.00, 
1739.00, 
1740.00, 
1741.00, 
1742.00, 
1743.00, 
1744.00, 
1745.00, 
1746.00, 
1747.00, 
1748.00, 
1749.00, 
1750.00, 
1751.00, 
1752.00, 
1753.00, 
1754.00, 
1755.00, 
1756.00, 
1757.00, 
1758.00, 
1759.00, 
1760.00, 
1761.00, 
1762.00, 
1763.00, 
1764.00, 
1765.00, 
1766.00, 
1767.00, 
1768.00, 
1769.00, 
1770.00, 
1771.00, 
1772.00, 
1773.00, 
1774.00, 
1775.00, 
1776.00, 
1777.00, 
1778.00, 
1779.00, 
1780.00, 
1781.00, 
1782.00, 
1783.00, 
1784.00, 
1785.00, 
1786.00, 
1787.00, 
1788.00, 
1789.00, 
1790.00, 
1791.00, 
1792.00, 
1793.00, 
1794.00, 
1795.00, 
1796.00, 
1797.00, 
1798.00, 
1799.00, 
1800.00, 
1801.00, 
1802.00, 
1803.00, 
1804.00, 
1805.00, 
1806.00, 
1807.00, 
1808.00, 
1809.00, 
1810.00, 
1811.00, 
1812.00, 
1813.00, 
1814.00, 
1815.00, 
1816.00, 
1817.00, 
1818.00, 
1819.00, 
1820.00, 
1821.00, 
1822.00, 
1823.00, 
1824.00, 
1825.00, 
1826.00, 
1827.00, 
1828.00, 
1829.00, 
1830.00, 
1831.00, 
1832.00, 
1833.00, 
1834.00, 
1835.00, 
1836.00, 
1837.00, 
1838.00, 
1839.00, 
1840.00, 
1841.00, 
1842.00, 
1843.00, 
1844.00, 
1845.00, 
1846.00, 
1847.00, 
1848.00, 
1849.00, 
1850.00, 
1851.00, 
1852.00, 
1853.00, 
1854.00, 
1855.00, 
1856.00, 
1857.00, 
1858.00, 
1859.00, 
1860.00, 
1861.00, 
1862.00, 
1863.00, 
1864.00, 
1865.00, 
1866.00, 
1867.00, 
1868.00, 
1869.00, 
1870.00, 
1871.00, 
1872.00, 
1873.00, 
1874.00, 
1875.00, 
1876.00, 
1877.00, 
1878.00, 
1879.00, 
1880.00, 
1881.00, 
1882.00, 
1883.00, 
1884.00, 
1885.00, 
1886.00, 
1887.00, 
1888.00, 
1889.00, 
1890.00, 
1891.00, 
1892.00, 
1893.00, 
1894.00, 
1895.00, 
1896.00, 
1897.00, 
1898.00, 
1899.00, 
1900.00, 
1901.00, 
1902.00, 
1903.00, 
1904.00, 
1905.00, 
1906.00, 
1907.00, 
1908.00, 
1909.00, 
1910.00, 
1911.00, 
1912.00, 
1913.00, 
1914.00, 
1915.00, 
1916.00, 
1917.00, 
1918.00, 
1919.00, 
1920.00, 
1921.00, 
1922.00, 
1923.00, 
1924.00, 
1925.00, 
1926.00, 
1927.00, 
1928.00, 
1929.00, 
1930.00, 
1931.00, 
1932.00, 
1933.00, 
1934.00, 
1935.00, 
1936.00, 
1937.00, 
1938.00, 
1939.00, 
1940.00, 
1941.00, 
1942.00, 
1943.00, 
1944.00, 
1945.00, 
1946.00, 
1947.00, 
1948.00, 
1949.00, 
1950.00, 
1951.00, 
1952.00, 
1953.00, 
1954.00, 
1955.00, 
1956.00, 
1957.00, 
1958.00, 
1959.00, 
1960.00, 
1961.00, 
1962.00, 
1963.00, 
1964.00, 
1965.00, 
1966.00, 
1967.00, 
1968.00, 
1969.00, 
1970.00, 
1971.00, 
1972.00, 
1973.00, 
1974.00, 
1975.00, 
1976.00, 
1977.00, 
1978.00, 
1979.00, 
1980.00, 
1981.00, 
1982.00, 
1983.00, 
1984.00, 
1985.00, 
1986.00, 
1987.00, 
1988.00, 
1989.00, 
1990.00, 
1991.00, 
1992.00, 
1993.00, 
1994.00, 
1995.00, 
1996.00, 
1997.00, 
1998.00, 
1999.00, 
2000.00, 
2001.00, 
2002.00, 
2003.00, 
2004.00, 
2005.00, 
2006.00, 
2007.00, 
2008.00, 
2009.00, 
2010.00, 
2011.00, 
2012.00, 
2013.00, 
2014.00, 
2015.00, 
2016.00, 
2017.00, 
2018.00, 
2019.00, 
2020.00, 
2021.00, 
2022.00, 
2023.00, 
2024.00, 
2025.00, 
2026.00, 
2027.00, 
2028.00, 
2029.00, 
2030.00, 
2031.00, 
2032.00, 
2033.00, 
2034.00, 
2035.00, 
2036.00, 
2037.00, 
2038.00, 
2039.00, 
2040.00, 
2041.00, 
2042.00, 
2043.00, 
2044.00, 
2045.00, 
2046.00, 
2047.00, 
2048.00, 
2049.00, 
2050.00, 
2051.00, 
2052.00, 
2053.00, 
2054.00, 
2055.00, 
2056.00, 
2057.00, 
2058.00, 
2059.00, 
2060.00, 
2061.00, 
2062.00, 
2063.00, 
2064.00, 
2065.00, 
2066.00, 
2067.00, 
2068.00, 
2069.00, 
2070.00, 
2071.00, 
2072.00, 
2073.00, 
2074.00, 
2075.00, 
2076.00, 
2077.00, 
2078.00, 
2079.00, 
2080.00, 
2081.00, 
2082.00, 
2083.00, 
2084.00, 
2085.00, 
2086.00, 
2087.00, 
2088.00, 
2089.00, 
2090.00, 
2091.00, 
2092.00, 
2093.00, 
2094.00, 
2095.00, 
2096.00, 
2097.00, 
2098.00, 
2099.00, 
2100.00, 
2101.00, 
2102.00, 
2103.00, 
2104.00, 
2105.00, 
2106.00, 
2107.00, 
2108.00, 
2109.00, 
2110.00, 
2111.00, 
2112.00, 
2113.00, 
2114.00, 
2115.00, 
2116.00, 
2117.00, 
2118.00, 
2119.00, 
2120.00, 
2121.00, 
2122.00, 
2123.00, 
2124.00, 
2125.00, 
2126.00, 
2127.00, 
2128.00, 
2129.00, 
2130.00, 
2131.00, 
2132.00, 
2133.00, 
2134.00, 
2135.00, 
2136.00, 
2137.00, 
2138.00, 
2139.00, 
2140.00, 
2141.00, 
2142.00, 
2143.00, 
2144.00, 
2145.00, 
2146.00, 
2147.00, 
2148.00, 
2149.00, 
2150.00, 
2151.00, 
2152.00, 
2153.00, 
2154.00, 
2155.00, 
2156.00, 
2157.00, 
2158.00, 
2159.00, 
2160.00, 
2161.00, 
2162.00, 
2163.00, 
2164.00, 
2165.00, 
2166.00, 
2167.00, 
2168.00, 
2169.00, 
2170.00, 
2171.00, 
2172.00, 
2173.00, 
2174.00, 
2175.00, 
2176.00, 
2177.00, 
2178.00, 
2179.00, 
2180.00, 
2181.00, 
2182.00, 
2183.00, 
2184.00, 
2185.00, 
2186.00, 
2187.00, 
2188.00, 
2189.00, 
2190.00, 
2191.00, 
2192.00, 
2193.00, 
2194.00, 
2195.00, 
2196.00, 
2197.00, 
2198.00, 
2199.00, 
2200.00, 
2201.00, 
2202.00, 
2203.00, 
2204.00, 
2205.00, 
2206.00, 
2207.00, 
2208.00, 
2209.00, 
2210.00, 
2211.00, 
2212.00, 
2213.00, 
2214.00, 
2215.00, 
2216.00, 
2217.00, 
2218.00, 
2219.00, 
2220.00, 
2221.00, 
2222.00, 
2223.00, 
2224.00, 
2225.00, 
2226.00, 
2227.00, 
2228.00, 
2229.00, 
2230.00, 
2231.00, 
2232.00, 
2233.00, 
2234.00, 
2235.00, 
2236.00, 
2237.00, 
2238.00, 
2239.00, 
2240.00, 
2241.00, 
2242.00, 
2243.00, 
2244.00, 
2245.00, 
2246.00, 
2247.00, 
2248.00, 
2249.00, 
2250.00, 
2251.00, 
2252.00, 
2253.00, 
2254.00, 
2255.00, 
2256.00, 
2257.00, 
2258.00, 
2259.00, 
2260.00, 
2261.00, 
2262.00, 
2263.00, 
2264.00, 
2265.00, 
2266.00, 
2267.00, 
2268.00, 
2269.00, 
2270.00, 
2271.00, 
2272.00, 
2273.00, 
2274.00, 
2275.00, 
2276.00, 
2277.00, 
2278.00, 
2279.00, 
2280.00, 
2281.00, 
2282.00, 
2283.00, 
2284.00, 
2285.00, 
2286.00, 
2287.00, 
2288.00, 
2289.00, 
2290.00, 
2291.00, 
2292.00, 
2293.00, 
2294.00, 
2295.00, 
2296.00, 
2297.00, 
2298.00, 
2299.00, 
2300.00, 
2301.00, 
2302.00, 
2303.00, 
2304.00, 
2305.00, 
2306.00, 
2307.00, 
2308.00, 
2309.00, 
2310.00, 
2311.00, 
2312.00, 
2313.00, 
2314.00, 
2315.00, 
2316.00, 
2317.00, 
2318.00, 
2319.00, 
2320.00, 
2321.00, 
2322.00, 
2323.00, 
2324.00, 
2325.00, 
2326.00, 
2327.00, 
2328.00, 
2329.00, 
2330.00, 
2331.00, 
2332.00, 
2333.00, 
2334.00, 
2335.00, 
2336.00, 
2337.00, 
2338.00, 
2339.00, 
2340.00, 
2341.00, 
2342.00, 
2343.00, 
2344.00, 
2345.00, 
2346.00, 
2347.00, 
2348.00, 
2349.00, 
2350.00, 
2351.00, 
2352.00, 
2353.00, 
2354.00, 
2355.00, 
2356.00, 
2357.00, 
2358.00, 
2359.00, 
2360.00, 
2361.00, 
2362.00, 
2363.00, 
2364.00, 
2365.00, 
2366.00, 
2367.00, 
2368.00, 
2369.00, 
2370.00, 
2371.00, 
2372.00, 
2373.00, 
2374.00, 
2375.00, 
2376.00, 
2377.00, 
2378.00, 
2379.00, 
2380.00, 
2381.00, 
2382.00, 
2383.00, 
2384.00, 
2385.00, 
2386.00, 
2387.00, 
2388.00, 
2389.00, 
2390.00, 
2391.00, 
2392.00, 
2393.00, 
2394.00, 
2395.00, 
2396.00, 
2397.00, 
2398.00, 
2399.00, 
2400.00, 
2401.00, 
2402.00, 
2403.00, 
2404.00, 
2405.00, 
2406.00, 
2407.00, 
2408.00, 
2409.00, 
2410.00, 
2411.00, 
2412.00, 
2413.00, 
2414.00, 
2415.00, 
2416.00, 
2417.00, 
2418.00, 
2419.00, 
2420.00, 
2421.00, 
2422.00, 
2423.00, 
2424.00, 
2425.00, 
2426.00, 
2427.00, 
2428.00, 
2429.00, 
2430.00, 
2431.00, 
2432.00, 
2433.00, 
2434.00, 
2435.00, 
2436.00, 
2437.00, 
2438.00, 
2439.00, 
2440.00, 
2441.00, 
2442.00, 
2443.00, 
2444.00, 
2445.00, 
2446.00, 
2447.00, 
2448.00, 
2449.00, 
2450.00, 
2451.00, 
2452.00, 
2453.00, 
2454.00, 
2455.00, 
2456.00, 
2457.00, 
2458.00, 
2459.00, 
2460.00, 
2461.00, 
2462.00, 
2463.00, 
2464.00, 
2465.00, 
2466.00, 
2467.00, 
2468.00, 
2469.00, 
2470.00, 
2471.00, 
2472.00, 
2473.00, 
2474.00, 
2475.00, 
2476.00, 
2477.00, 
2478.00, 
2479.00, 
2480.00, 
2481.00, 
2482.00, 
2483.00, 
2484.00, 
2485.00, 
2486.00, 
2487.00, 
2488.00, 
2489.00, 
2490.00, 
2491.00, 
2492.00, 
2493.00, 
2494.00, 
2495.00, 
2496.00, 
2497.00, 
2498.00, 
2499.00, 
2500.00, 
2501.00, 
2502.00, 
2503.00, 
2504.00, 
2505.00, 
2506.00, 
2507.00, 
2508.00, 
2509.00, 
2510.00, 
2511.00, 
2512.00, 
2513.00, 
2514.00, 
2515.00, 
2516.00, 
2517.00, 
2518.00, 
2519.00, 
2520.00, 
2521.00, 
2522.00, 
2523.00, 
2524.00, 
2525.00, 
2526.00, 
2527.00, 
2528.00, 
2529.00, 
2530.00, 
2531.00, 
2532.00, 
2533.00, 
2534.00, 
2535.00, 
2536.00, 
2537.00, 
2538.00, 
2539.00, 
2540.00, 
2541.00, 
2542.00, 
2543.00, 
2544.00, 
2545.00, 
2546.00, 
2547.00, 
2548.00, 
2549.00, 
2550.00, 
2551.00, 
2552.00, 
2553.00, 
2554.00, 
2555.00, 
2556.00, 
2557.00, 
2558.00, 
2559.00, 
2560.00, 
2561.00, 
2562.00, 
2563.00, 
2564.00, 
2565.00, 
2566.00, 
2567.00, 
2568.00, 
2569.00, 
2570.00, 
2571.00, 
2572.00, 
2573.00, 
2574.00, 
2575.00, 
2576.00, 
2577.00, 
2578.00, 
2579.00, 
2580.00, 
2581.00, 
2582.00, 
2583.00, 
2584.00, 
2585.00, 
2586.00, 
2587.00, 
2588.00, 
2589.00, 
2590.00, 
2591.00, 
2592.00, 
2593.00, 
2594.00, 
2595.00, 
2596.00, 
2597.00, 
2598.00, 
2599.00, 
2600.00, 
