"1cP2 - RawData"
"Wavelength nm.","T%"
200.00,0.003
201.00,0.004
202.00,0.005
203.00,0.004
204.00,0.004
205.00,0.000
206.00,-0.001
207.00,-0.000
208.00,0.002
209.00,0.002
210.00,0.002
211.00,0.003
212.00,-0.001
213.00,0.002
214.00,0.001
215.00,0.004
216.00,0.002
217.00,0.002
218.00,0.000
219.00,0.003
220.00,0.003
221.00,-0.000
222.00,-0.001
223.00,0.001
224.00,-0.000
225.00,0.001
226.00,0.000
227.00,-0.000
228.00,0.000
229.00,-0.001
230.00,-0.000
231.00,0.001
232.00,0.001
233.00,0.001
234.00,-0.000
235.00,0.002
236.00,0.001
237.00,0.002
238.00,0.001
239.00,-0.001
240.00,-0.000
241.00,0.002
242.00,-0.001
243.00,0.001
244.00,0.001
245.00,0.002
246.00,0.001
247.00,-0.000
248.00,-0.001
249.00,0.000
250.00,0.000
251.00,0.001
252.00,0.001
253.00,-0.001
254.00,-0.001
255.00,0.002
256.00,-0.001
257.00,0.001
258.00,0.000
259.00,0.000
260.00,-0.002
261.00,0.001
262.00,0.000
263.00,0.002
264.00,-0.000
265.00,0.003
266.00,0.001
267.00,0.003
268.00,0.000
269.00,0.001
270.00,-0.000
271.00,0.001
272.00,0.000
273.00,-0.001
274.00,-0.001
275.00,-0.001
276.00,0.002
277.00,0.002
278.00,0.001
279.00,0.000
280.00,0.000
281.00,0.000
282.00,0.001
283.00,0.000
284.00,0.001
285.00,0.001
286.00,-0.000
287.00,0.001
288.00,-0.001
289.00,0.000
290.00,-0.000
291.00,0.000
292.00,0.002
293.00,-0.002
294.00,0.000
295.00,-0.000
296.00,0.000
297.00,-0.000
298.00,0.001
299.00,0.002
300.00,0.000
301.00,-0.001
302.00,0.002
303.00,0.000
304.00,0.002
305.00,0.003
306.00,0.002
307.00,0.006
308.00,0.011
309.00,0.018
310.00,0.027
311.00,0.043
312.00,0.071
313.00,0.110
314.00,0.167
315.00,0.238
316.00,0.337
317.00,0.482
318.00,0.654
319.00,0.895
320.00,1.171
321.00,1.542
322.00,1.976
323.00,2.443
324.00,3.089
325.00,3.706
326.00,4.411
327.00,5.251
328.00,6.164
329.00,7.098
330.00,8.156
331.00,9.250
332.00,10.352
333.00,11.652
334.00,12.825
335.00,14.150
336.00,15.385
337.00,16.765
338.00,18.004
339.00,19.392
340.00,20.693
341.00,22.010
342.00,23.169
343.00,24.342
344.00,25.502
345.00,26.683
346.00,27.743
347.00,28.767
348.00,29.782
349.00,30.639
350.00,31.633
351.00,32.445
352.00,33.150
353.00,33.891
354.00,34.691
355.00,35.381
356.00,35.982
357.00,36.552
358.00,37.163
359.00,37.794
360.00,38.280
361.00,38.625
362.00,39.195
363.00,39.435
364.00,39.883
365.00,40.223
366.00,40.514
367.00,40.755
368.00,40.943
369.00,41.109
370.00,41.305
371.00,41.435
372.00,41.422
373.00,41.571
374.00,41.655
375.00,41.625
376.00,41.488
377.00,41.466
378.00,41.339
379.00,41.279
380.00,41.339
381.00,41.383
382.00,41.418
383.00,41.559
384.00,41.744
385.00,41.935
386.00,42.135
387.00,42.330
388.00,42.584
389.00,42.628
390.00,42.922
391.00,43.043
392.00,43.178
393.00,43.293
394.00,43.429
395.00,43.577
396.00,43.601
397.00,43.690
398.00,43.788
399.00,43.817
400.00,43.913
401.00,43.975
402.00,44.025
403.00,44.013
404.00,44.042
405.00,44.098
406.00,43.954
407.00,43.975
408.00,43.986
409.00,43.922
410.00,43.812
411.00,43.815
412.00,43.741
413.00,43.773
414.00,43.656
415.00,43.671
416.00,43.776
417.00,43.629
418.00,43.698
419.00,43.842
420.00,43.887
421.00,43.880
422.00,43.896
423.00,43.922
424.00,44.027
425.00,43.993
426.00,43.981
427.00,44.061
428.00,44.080
429.00,44.075
430.00,44.134
431.00,44.051
432.00,44.041
433.00,44.001
434.00,44.207
435.00,44.227
436.00,44.245
437.00,44.249
438.00,44.290
439.00,44.281
440.00,44.292
441.00,44.383
442.00,44.437
443.00,44.467
444.00,44.568
445.00,44.557
446.00,44.596
447.00,44.698
448.00,44.685
449.00,44.820
450.00,44.889
451.00,44.883
452.00,44.962
453.00,45.044
454.00,45.072
455.00,45.106
456.00,45.236
457.00,45.296
458.00,45.265
459.00,45.317
460.00,45.488
461.00,45.503
462.00,45.599
463.00,45.700
464.00,45.789
465.00,45.818
466.00,45.869
467.00,45.986
468.00,45.921
469.00,45.981
470.00,46.007
471.00,46.008
472.00,46.046
473.00,46.073
474.00,46.130
475.00,46.154
476.00,46.155
477.00,46.115
478.00,46.234
479.00,46.358
480.00,46.452
481.00,46.469
482.00,46.545
483.00,46.675
484.00,46.703
485.00,46.832
486.00,46.898
487.00,46.995
488.00,47.026
489.00,47.100
490.00,47.195
491.00,47.265
492.00,47.494
493.00,47.530
494.00,47.363
495.00,47.487
496.00,47.559
497.00,47.635
498.00,47.772
499.00,47.921
500.00,47.850
501.00,47.881
502.00,47.913
503.00,47.957
504.00,47.891
505.00,47.948
506.00,48.049
507.00,48.060
508.00,48.136
509.00,48.191
510.00,48.253
511.00,48.265
512.00,48.421
513.00,48.501
514.00,48.535
515.00,48.656
516.00,48.722
517.00,48.657
518.00,48.732
519.00,48.748
520.00,48.722
521.00,48.793
522.00,48.849
523.00,48.792
524.00,48.851
525.00,48.995
526.00,48.979
527.00,48.979
528.00,48.952
529.00,49.132
530.00,49.287
531.00,49.359
532.00,49.342
533.00,49.394
534.00,49.456
535.00,49.510
536.00,49.531
537.00,49.556
538.00,49.574
539.00,49.585
540.00,49.620
541.00,49.617
542.00,49.610
543.00,49.627
544.00,49.743
545.00,49.746
546.00,49.716
547.00,49.798
548.00,49.884
549.00,49.847
550.00,49.984
551.00,50.073
552.00,50.071
553.00,50.028
554.00,50.092
555.00,50.106
556.00,50.156
557.00,50.188
558.00,50.160
559.00,50.234
560.00,50.231
561.00,50.295
562.00,50.329
563.00,50.384
564.00,50.361
565.00,50.354
566.00,50.345
567.00,50.311
568.00,50.391
569.00,50.392
570.00,50.381
571.00,50.380
572.00,50.360
573.00,50.322
574.00,50.363
575.00,50.232
576.00,50.209
577.00,50.195
578.00,50.442
579.00,50.459
580.00,50.411
581.00,50.585
582.00,50.666
583.00,50.671
584.00,50.730
585.00,50.823
586.00,50.782
587.00,50.779
588.00,50.749
589.00,50.643
590.00,50.775
591.00,50.825
592.00,50.667
593.00,50.516
594.00,50.829
595.00,51.015
596.00,50.914
597.00,50.975
598.00,51.038
599.00,50.964
600.00,51.004
601.00,50.946
602.00,50.859
603.00,50.898
604.00,50.941
605.00,50.962
606.00,50.986
607.00,50.919
608.00,51.076
609.00,51.169
610.00,50.928
611.00,50.996
612.00,51.038
613.00,51.063
614.00,51.009
615.00,51.038
616.00,51.187
617.00,51.080
618.00,50.957
619.00,51.047
620.00,51.049
621.00,51.124
622.00,51.091
623.00,51.107
624.00,51.162
625.00,51.232
626.00,51.159
627.00,51.187
628.00,51.127
629.00,51.116
630.00,51.100
631.00,51.141
632.00,51.158
633.00,51.140
634.00,51.270
635.00,51.275
636.00,51.105
637.00,51.090
638.00,51.194
639.00,51.233
640.00,51.142
641.00,51.169
642.00,51.138
643.00,50.963
644.00,51.239
645.00,51.211
646.00,51.293
647.00,51.328
648.00,51.227
649.00,51.145
650.00,51.053
651.00,51.338
652.00,51.391
653.00,51.201
654.00,51.204
655.00,51.312
656.00,51.537
657.00,51.159
658.00,51.109
659.00,51.223
660.00,51.452
661.00,50.721
662.00,51.298
663.00,51.271
664.00,51.567
665.00,51.616
666.00,51.541
667.00,51.530
668.00,51.227
669.00,51.526
670.00,51.791
671.00,51.468
672.00,51.546
673.00,51.508
674.00,51.454
675.00,51.480
676.00,51.644
677.00,51.678
678.00,51.340
679.00,51.519
680.00,51.570
681.00,51.691
682.00,51.602
683.00,51.411
684.00,51.496
685.00,51.500
686.00,51.300
687.00,51.481
688.00,51.456
689.00,51.304
690.00,51.607
691.00,51.782
692.00,51.352
693.00,51.334
694.00,51.469
695.00,51.559
696.00,51.526
697.00,51.354
698.00,51.191
699.00,51.544
700.00,51.706
701.00,51.458
702.00,51.490
703.00,51.544
704.00,51.482
705.00,51.400
706.00,51.439
707.00,51.415
708.00,51.259
709.00,51.621
710.00,51.877
711.00,51.195
712.00,51.257
713.00,51.345
714.00,51.389
715.00,51.322
716.00,51.210
717.00,51.357
718.00,51.421
719.00,51.339
720.00,51.223
721.00,56.192
722.00,56.005
723.00,56.014
724.00,55.894
725.00,55.840
726.00,55.759
727.00,55.688
728.00,55.622
729.00,55.638
730.00,55.583
731.00,55.546
732.00,55.419
733.00,55.393
734.00,55.423
735.00,55.381
736.00,55.424
737.00,55.282
738.00,55.222
739.00,55.287
740.00,55.194
741.00,55.181
742.00,55.165
743.00,55.070
744.00,54.976
745.00,55.028
746.00,54.913
747.00,54.863
748.00,54.800
749.00,54.772
750.00,54.663
751.00,54.562
752.00,54.564
753.00,54.555
754.00,54.463
755.00,54.423
756.00,54.387
757.00,54.384
758.00,54.325
759.00,54.193
760.00,54.183
761.00,54.128
762.00,54.092
763.00,54.144
764.00,54.057
765.00,54.050
766.00,53.973
767.00,54.044
768.00,53.962
769.00,53.855
770.00,53.901
771.00,53.805
772.00,53.812
773.00,53.765
774.00,53.797
775.00,53.640
776.00,53.566
777.00,53.577
778.00,53.608
779.00,53.670
780.00,53.515
781.00,53.495
782.00,53.515
783.00,53.445
784.00,53.392
785.00,53.349
786.00,53.378
787.00,53.228
788.00,53.273
789.00,53.158
790.00,53.165
791.00,53.080
792.00,53.061
793.00,53.002
794.00,52.940
795.00,52.955
796.00,52.938
797.00,52.841
798.00,52.837
799.00,52.815
800.00,52.719
801.00,52.679
802.00,52.706
803.00,52.681
804.00,52.567
805.00,52.590
806.00,52.538
807.00,52.510
808.00,52.445
809.00,52.489
810.00,52.371
811.00,52.340
812.00,52.423
813.00,52.213
814.00,52.253
815.00,52.214
816.00,52.274
817.00,52.172
818.00,52.075
819.00,52.108
820.00,51.990
821.00,52.038
822.00,51.999
823.00,51.960
824.00,51.977
825.00,51.806
826.00,51.925
827.00,51.851
828.00,51.867
829.00,51.787
830.00,51.776
831.00,54.130
832.00,54.099
833.00,54.044
834.00,54.029
835.00,53.966
836.00,53.986
837.00,53.886
838.00,53.917
839.00,53.873
840.00,53.837
841.00,53.793
842.00,53.743
843.00,53.747
844.00,53.704
845.00,53.669
846.00,53.663
847.00,53.604
848.00,53.584
849.00,53.538
850.00,53.505
851.00,53.380
852.00,53.427
853.00,53.498
854.00,53.320
855.00,53.290
856.00,53.264
857.00,53.192
858.00,53.173
859.00,53.170
860.00,53.132
861.00,53.112
862.00,53.051
863.00,53.078
864.00,52.978
865.00,53.038
866.00,52.972
867.00,52.980
868.00,52.973
869.00,52.912
870.00,52.906
871.00,52.897
872.00,52.886
873.00,52.846
874.00,52.857
875.00,52.813
876.00,52.821
877.00,52.779
878.00,52.775
879.00,52.760
880.00,52.708
881.00,52.687
882.00,52.758
883.00,52.666
884.00,52.656
885.00,52.604
886.00,52.590
887.00,52.547
888.00,52.540
889.00,52.488
890.00,52.480
891.00,52.429
892.00,52.428
893.00,52.396
894.00,52.393
895.00,52.351
896.00,52.324
897.00,52.299
898.00,52.273
899.00,52.281
900.00,52.253
901.00,52.238
902.00,52.230
903.00,52.169
904.00,52.159
905.00,52.153
906.00,52.145
907.00,52.089
908.00,52.050
909.00,52.059
910.00,51.987
911.00,51.992
912.00,51.984
913.00,51.945
914.00,51.929
915.00,51.913
916.00,51.868
917.00,51.857
918.00,51.845
919.00,51.808
920.00,51.804
921.00,51.771
922.00,51.757
923.00,51.749
924.00,51.704
925.00,51.700
926.00,51.681
927.00,51.665
928.00,51.622
929.00,51.605
930.00,51.547
931.00,51.580
932.00,51.453
933.00,51.526
934.00,51.510
935.00,51.473
936.00,51.446
937.00,51.428
938.00,51.396
939.00,51.407
940.00,51.377
941.00,51.361
942.00,51.356
943.00,51.346
944.00,51.276
945.00,51.289
946.00,51.278
947.00,51.206
948.00,51.198
949.00,51.177
950.00,51.173
951.00,51.149
952.00,51.121
953.00,51.131
954.00,51.042
955.00,51.009
956.00,51.002
957.00,50.959
958.00,50.971
959.00,50.921
960.00,50.898
961.00,50.886
962.00,50.878
963.00,50.840
964.00,50.848
965.00,50.840
966.00,50.822
967.00,50.804
968.00,50.785
969.00,50.822
970.00,50.797
971.00,50.806
972.00,50.755
973.00,50.802
974.00,50.803
975.00,50.757
976.00,50.779
977.00,50.760
978.00,50.798
979.00,50.764
980.00,50.786
981.00,50.787
982.00,50.720
983.00,50.822
984.00,50.728
985.00,50.742
986.00,50.705
987.00,50.722
988.00,50.691
989.00,50.676
990.00,50.672
991.00,50.648
992.00,50.663
993.00,50.622
994.00,50.611
995.00,50.601
996.00,50.597
997.00,50.584
998.00,50.543
999.00,50.578
1000.00,50.535
1001.00,50.526
1002.00,50.518
1003.00,50.498
1004.00,50.467
1005.00,50.444
1006.00,50.486
1007.00,50.452
1008.00,50.440
1009.00,50.419
1010.00,50.411
1011.00,50.405
1012.00,50.403
1013.00,50.391
1014.00,50.362
1015.00,50.378
1016.00,50.304
1017.00,50.309
1018.00,50.300
1019.00,50.265
1020.00,50.257
1021.00,50.235
1022.00,50.229
1023.00,50.184
1024.00,50.187
1025.00,50.167
1026.00,50.143
1027.00,50.135
1028.00,50.136
1029.00,50.101
1030.00,50.076
1031.00,50.097
1032.00,50.062
1033.00,50.067
1034.00,50.039
1035.00,50.004
1036.00,49.984
1037.00,49.952
1038.00,49.950
1039.00,49.918
1040.00,49.906
1041.00,49.877
1042.00,49.883
1043.00,49.863
1044.00,49.890
1045.00,49.857
1046.00,49.845
1047.00,49.867
1048.00,49.860
1049.00,49.878
1050.00,49.886
1051.00,49.929
1052.00,49.919
1053.00,49.921
1054.00,49.922
1055.00,49.942
1056.00,49.949
1057.00,49.959
1058.00,49.960
1059.00,49.945
1060.00,49.986
1061.00,49.944
1062.00,49.920
1063.00,49.939
1064.00,49.932
1065.00,49.929
1066.00,49.915
1067.00,49.904
1068.00,49.936
1069.00,49.901
1070.00,49.864
1071.00,49.860
1072.00,49.881
1073.00,49.861
1074.00,49.852
1075.00,49.842
1076.00,49.857
1077.00,49.819
1078.00,49.797
1079.00,49.800
1080.00,49.802
1081.00,49.776
1082.00,49.779
1083.00,49.772
1084.00,49.755
1085.00,49.776
1086.00,49.757
1087.00,49.742
1088.00,49.740
1089.00,49.724
1090.00,49.728
1091.00,49.765
1092.00,49.710
1093.00,49.704
1094.00,49.683
1095.00,49.676
1096.00,49.651
1097.00,49.647
1098.00,49.636
1099.00,49.639
1100.00,49.618
1101.00,49.613
1102.00,49.607
1103.00,49.593
1104.00,49.604
1105.00,49.605
1106.00,49.591
1107.00,49.578
1108.00,49.563
1109.00,49.549
1110.00,49.548
1111.00,49.539
1112.00,49.530
1113.00,49.526
1114.00,49.509
1115.00,49.525
1116.00,49.511
1117.00,49.485
1118.00,49.499
1119.00,49.498
1120.00,49.488
1121.00,49.486
1122.00,49.458
1123.00,49.444
1124.00,49.450
1125.00,49.444
1126.00,49.447
1127.00,49.444
1128.00,49.425
1129.00,49.417
1130.00,49.400
1131.00,49.404
1132.00,49.414
1133.00,49.405
1134.00,49.377
1135.00,49.383
1136.00,49.368
1137.00,49.385
1138.00,49.380
1139.00,49.374
1140.00,49.374
1141.00,49.367
1142.00,49.359
1143.00,49.378
1144.00,49.351
1145.00,49.354
1146.00,49.346
1147.00,49.327
1148.00,49.339
1149.00,49.350
1150.00,49.326
1151.00,49.342
1152.00,49.336
1153.00,49.317
1154.00,49.303
1155.00,49.327
1156.00,49.312
1157.00,49.311
1158.00,49.295
1159.00,49.313
1160.00,49.319
1161.00,49.328
1162.00,49.335
1163.00,49.327
1164.00,49.326
1165.00,49.337
1166.00,49.329
1167.00,49.314
1168.00,49.354
1169.00,49.314
1170.00,49.317
1171.00,49.301
1172.00,49.293
1173.00,49.303
1174.00,49.302
1175.00,49.301
1176.00,49.313
1177.00,49.291
1178.00,49.296
1179.00,49.314
1180.00,49.310
1181.00,49.315
1182.00,49.310
1183.00,49.324
1184.00,49.305
1185.00,49.316
1186.00,49.296
1187.00,49.307
1188.00,49.302
1189.00,49.292
1190.00,49.295
1191.00,49.284
1192.00,49.308
1193.00,49.299
1194.00,49.302
1195.00,49.281
1196.00,49.309
1197.00,49.303
1198.00,49.296
1199.00,49.305
1200.00,49.306
1201.00,49.313
1202.00,49.271
1203.00,49.288
1204.00,49.267
1205.00,49.291
1206.00,49.284
1207.00,49.286
1208.00,49.274
1209.00,49.303
1210.00,49.305
1211.00,49.302
1212.00,49.319
1213.00,49.273
1214.00,49.313
1215.00,49.275
1216.00,49.283
1217.00,49.302
1218.00,49.279
1219.00,49.295
1220.00,49.287
1221.00,49.315
1222.00,49.298
1223.00,49.326
1224.00,49.319
1225.00,49.300
1226.00,49.306
1227.00,49.308
1228.00,49.338
1229.00,49.356
1230.00,49.353
1231.00,49.359
1232.00,49.382
1233.00,49.379
1234.00,49.383
1235.00,49.373
1236.00,49.368
1237.00,49.378
1238.00,49.372
1239.00,49.364
1240.00,49.341
1241.00,49.367
1242.00,49.379
1243.00,49.382
1244.00,49.367
1245.00,49.408
1246.00,49.409
1247.00,49.415
1248.00,49.412
1249.00,49.416
1250.00,49.422
1251.00,49.405
1252.00,49.423
1253.00,49.415
1254.00,49.445
1255.00,49.436
1256.00,49.431
1257.00,49.431
1258.00,49.472
1259.00,49.450
1260.00,49.459
1261.00,49.463
1262.00,49.453
1263.00,49.452
1264.00,49.484
1265.00,49.485
1266.00,49.479
1267.00,49.500
1268.00,49.494
1269.00,49.502
1270.00,49.511
1271.00,49.512
1272.00,49.526
1273.00,49.531
1274.00,49.541
1275.00,49.559
1276.00,49.545
1277.00,49.544
1278.00,49.564
1279.00,49.545
1280.00,49.561
1281.00,49.578
1282.00,49.591
1283.00,49.585
1284.00,49.590
1285.00,49.589
1286.00,49.604
1287.00,49.614
1288.00,49.610
1289.00,49.621
1290.00,49.659
1291.00,49.636
1292.00,49.633
1293.00,49.624
1294.00,49.647
1295.00,49.650
1296.00,49.653
1297.00,49.676
1298.00,49.705
1299.00,49.672
1300.00,49.701
1301.00,49.679
1302.00,49.704
1303.00,49.711
1304.00,49.688
1305.00,49.727
1306.00,49.733
1307.00,49.744
1308.00,49.746
1309.00,49.760
1310.00,49.747
1311.00,49.746
1312.00,49.737
1313.00,49.761
1314.00,49.788
1315.00,49.793
1316.00,49.798
1317.00,49.828
1318.00,49.833
1319.00,49.844
1320.00,49.837
1321.00,50.014
1322.00,50.011
1323.00,49.996
1324.00,49.985
1325.00,49.980
1326.00,50.006
1327.00,49.983
1328.00,49.988
1329.00,49.975
1330.00,49.962
1331.00,50.002
1332.00,50.004
1333.00,49.978
1334.00,50.056
1335.00,50.046
1336.00,50.094
1337.00,50.130
1338.00,50.181
1339.00,50.237
1340.00,50.291
1341.00,50.356
1342.00,50.425
1343.00,50.459
1344.00,50.508
1345.00,50.563
1346.00,50.590
1347.00,50.634
1348.00,50.656
1349.00,50.659
1350.00,50.704
1351.00,50.699
1352.00,50.712
1353.00,50.736
1354.00,50.730
1355.00,50.682
1356.00,50.754
1357.00,50.759
1358.00,50.817
1359.00,50.826
1360.00,50.790
1361.00,50.695
1362.00,50.818
1363.00,50.812
1364.00,50.852
1365.00,50.784
1366.00,50.906
1367.00,50.786
1368.00,50.726
1369.00,50.846
1370.00,50.749
1371.00,50.709
1372.00,50.750
1373.00,50.805
1374.00,50.797
1375.00,50.785
1376.00,50.776
1377.00,50.831
1378.00,50.878
1379.00,50.926
1380.00,50.946
1381.00,50.773
1382.00,50.764
1383.00,50.825
1384.00,50.712
1385.00,50.754
1386.00,50.820
1387.00,50.705
1388.00,50.702
1389.00,50.778
1390.00,50.795
1391.00,50.729
1392.00,50.778
1393.00,50.969
1394.00,50.776
1395.00,50.685
1396.00,50.630
1397.00,50.751
1398.00,50.801
1399.00,50.739
1400.00,50.725
1401.00,50.719
1402.00,50.843
1403.00,50.749
1404.00,50.769
1405.00,50.838
1406.00,50.804
1407.00,50.855
1408.00,50.844
1409.00,50.910
1410.00,50.902
1411.00,50.859
1412.00,50.921
1413.00,50.835
1414.00,50.853
1415.00,50.888
1416.00,50.935
1417.00,50.961
1418.00,50.941
1419.00,50.932
1420.00,50.957
1421.00,51.026
1422.00,51.026
1423.00,51.030
1424.00,51.040
1425.00,51.076
1426.00,51.065
1427.00,51.088
1428.00,51.076
1429.00,51.094
1430.00,51.102
1431.00,51.095
1432.00,51.133
1433.00,51.151
1434.00,51.141
1435.00,51.218
1436.00,51.236
1437.00,51.218
1438.00,51.253
1439.00,51.281
1440.00,51.324
1441.00,51.309
1442.00,51.287
1443.00,51.335
1444.00,51.415
1445.00,51.338
1446.00,51.365
1447.00,51.388
1448.00,51.433
1449.00,51.439
1450.00,51.425
1451.00,51.457
1452.00,51.463
1453.00,51.496
1454.00,51.494
1455.00,51.535
1456.00,51.565
1457.00,51.543
1458.00,51.572
1459.00,51.600
1460.00,51.626
1461.00,51.614
1462.00,51.665
1463.00,51.674
1464.00,51.686
1465.00,51.722
1466.00,51.714
1467.00,51.739
1468.00,51.794
1469.00,51.767
1470.00,51.796
1471.00,51.800
1472.00,51.812
1473.00,51.840
1474.00,51.857
1475.00,51.880
1476.00,51.901
1477.00,51.885
1478.00,51.901
1479.00,51.936
1480.00,51.928
1481.00,51.932
1482.00,51.968
1483.00,51.997
1484.00,52.013
1485.00,52.021
1486.00,52.030
1487.00,52.026
1488.00,52.068
1489.00,52.065
1490.00,52.100
1491.00,52.093
1492.00,52.103
1493.00,52.092
1494.00,52.121
1495.00,52.125
1496.00,52.140
1497.00,52.135
1498.00,52.166
1499.00,52.171
1500.00,52.185
1501.00, 
1502.00, 
1503.00, 
1504.00, 
1505.00, 
1506.00, 
1507.00, 
1508.00, 
1509.00, 
1510.00, 
1511.00, 
1512.00, 
1513.00, 
1514.00, 
1515.00, 
1516.00, 
1517.00, 
1518.00, 
1519.00, 
1520.00, 
1521.00, 
1522.00, 
1523.00, 
1524.00, 
1525.00, 
1526.00, 
1527.00, 
1528.00, 
1529.00, 
1530.00, 
1531.00, 
1532.00, 
1533.00, 
1534.00, 
1535.00, 
1536.00, 
1537.00, 
1538.00, 
1539.00, 
1540.00, 
1541.00, 
1542.00, 
1543.00, 
1544.00, 
1545.00, 
1546.00, 
1547.00, 
1548.00, 
1549.00, 
1550.00, 
1551.00, 
1552.00, 
1553.00, 
1554.00, 
1555.00, 
1556.00, 
1557.00, 
1558.00, 
1559.00, 
1560.00, 
1561.00, 
1562.00, 
1563.00, 
1564.00, 
1565.00, 
1566.00, 
1567.00, 
1568.00, 
1569.00, 
1570.00, 
1571.00, 
1572.00, 
1573.00, 
1574.00, 
1575.00, 
1576.00, 
1577.00, 
1578.00, 
1579.00, 
1580.00, 
1581.00, 
1582.00, 
1583.00, 
1584.00, 
1585.00, 
1586.00, 
1587.00, 
1588.00, 
1589.00, 
1590.00, 
1591.00, 
1592.00, 
1593.00, 
1594.00, 
1595.00, 
1596.00, 
1597.00, 
1598.00, 
1599.00, 
1600.00, 
1601.00, 
1602.00, 
1603.00, 
1604.00, 
1605.00, 
1606.00, 
1607.00, 
1608.00, 
1609.00, 
1610.00, 
1611.00, 
1612.00, 
1613.00, 
1614.00, 
1615.00, 
1616.00, 
1617.00, 
1618.00, 
1619.00, 
1620.00, 
1621.00, 
1622.00, 
1623.00, 
1624.00, 
1625.00, 
1626.00, 
1627.00, 
1628.00, 
1629.00, 
1630.00, 
1631.00, 
1632.00, 
1633.00, 
1634.00, 
1635.00, 
1636.00, 
1637.00, 
1638.00, 
1639.00, 
1640.00, 
1641.00, 
1642.00, 
1643.00, 
1644.00, 
1645.00, 
1646.00, 
1647.00, 
1648.00, 
1649.00, 
1650.00, 
1651.00, 
1652.00, 
1653.00, 
1654.00, 
1655.00, 
1656.00, 
1657.00, 
1658.00, 
1659.00, 
1660.00, 
1661.00, 
1662.00, 
1663.00, 
1664.00, 
1665.00, 
1666.00, 
1667.00, 
1668.00, 
1669.00, 
1670.00, 
1671.00, 
1672.00, 
1673.00, 
1674.00, 
1675.00, 
1676.00, 
1677.00, 
1678.00, 
1679.00, 
1680.00, 
1681.00, 
1682.00, 
1683.00, 
1684.00, 
1685.00, 
1686.00, 
1687.00, 
1688.00, 
1689.00, 
1690.00, 
1691.00, 
1692.00, 
1693.00, 
1694.00, 
1695.00, 
1696.00, 
1697.00, 
1698.00, 
1699.00, 
1700.00, 
1701.00, 
1702.00, 
1703.00, 
1704.00, 
1705.00, 
1706.00, 
1707.00, 
1708.00, 
1709.00, 
1710.00, 
1711.00, 
1712.00, 
1713.00, 
1714.00, 
1715.00, 
1716.00, 
1717.00, 
1718.00, 
1719.00, 
1720.00, 
1721.00, 
1722.00, 
1723.00, 
1724.00, 
1725.00, 
1726.00, 
1727.00, 
1728.00, 
1729.00, 
1730.00, 
1731.00, 
1732.00, 
1733.00, 
1734.00, 
1735.00, 
1736.00, 
1737.00, 
1738.00, 
1739.00, 
1740.00, 
1741.00, 
1742.00, 
1743.00, 
1744.00, 
1745.00, 
1746.00, 
1747.00, 
1748.00, 
1749.00, 
1750.00, 
1751.00, 
1752.00, 
1753.00, 
1754.00, 
1755.00, 
1756.00, 
1757.00, 
1758.00, 
1759.00, 
1760.00, 
1761.00, 
1762.00, 
1763.00, 
1764.00, 
1765.00, 
1766.00, 
1767.00, 
1768.00, 
1769.00, 
1770.00, 
1771.00, 
1772.00, 
1773.00, 
1774.00, 
1775.00, 
1776.00, 
1777.00, 
1778.00, 
1779.00, 
1780.00, 
1781.00, 
1782.00, 
1783.00, 
1784.00, 
1785.00, 
1786.00, 
1787.00, 
1788.00, 
1789.00, 
1790.00, 
1791.00, 
1792.00, 
1793.00, 
1794.00, 
1795.00, 
1796.00, 
1797.00, 
1798.00, 
1799.00, 
1800.00, 
1801.00, 
1802.00, 
1803.00, 
1804.00, 
1805.00, 
1806.00, 
1807.00, 
1808.00, 
1809.00, 
1810.00, 
1811.00, 
1812.00, 
1813.00, 
1814.00, 
1815.00, 
1816.00, 
1817.00, 
1818.00, 
1819.00, 
1820.00, 
1821.00, 
1822.00, 
1823.00, 
1824.00, 
1825.00, 
1826.00, 
1827.00, 
1828.00, 
1829.00, 
1830.00, 
1831.00, 
1832.00, 
1833.00, 
1834.00, 
1835.00, 
1836.00, 
1837.00, 
1838.00, 
1839.00, 
1840.00, 
1841.00, 
1842.00, 
1843.00, 
1844.00, 
1845.00, 
1846.00, 
1847.00, 
1848.00, 
1849.00, 
1850.00, 
1851.00, 
1852.00, 
1853.00, 
1854.00, 
1855.00, 
1856.00, 
1857.00, 
1858.00, 
1859.00, 
1860.00, 
1861.00, 
1862.00, 
1863.00, 
1864.00, 
1865.00, 
1866.00, 
1867.00, 
1868.00, 
1869.00, 
1870.00, 
1871.00, 
1872.00, 
1873.00, 
1874.00, 
1875.00, 
1876.00, 
1877.00, 
1878.00, 
1879.00, 
1880.00, 
1881.00, 
1882.00, 
1883.00, 
1884.00, 
1885.00, 
1886.00, 
1887.00, 
1888.00, 
1889.00, 
1890.00, 
1891.00, 
1892.00, 
1893.00, 
1894.00, 
1895.00, 
1896.00, 
1897.00, 
1898.00, 
1899.00, 
1900.00, 
1901.00, 
1902.00, 
1903.00, 
1904.00, 
1905.00, 
1906.00, 
1907.00, 
1908.00, 
1909.00, 
1910.00, 
1911.00, 
1912.00, 
1913.00, 
1914.00, 
1915.00, 
1916.00, 
1917.00, 
1918.00, 
1919.00, 
1920.00, 
1921.00, 
1922.00, 
1923.00, 
1924.00, 
1925.00, 
1926.00, 
1927.00, 
1928.00, 
1929.00, 
1930.00, 
1931.00, 
1932.00, 
1933.00, 
1934.00, 
1935.00, 
1936.00, 
1937.00, 
1938.00, 
1939.00, 
1940.00, 
1941.00, 
1942.00, 
1943.00, 
1944.00, 
1945.00, 
1946.00, 
1947.00, 
1948.00, 
1949.00, 
1950.00, 
1951.00, 
1952.00, 
1953.00, 
1954.00, 
1955.00, 
1956.00, 
1957.00, 
1958.00, 
1959.00, 
1960.00, 
1961.00, 
1962.00, 
1963.00, 
1964.00, 
1965.00, 
1966.00, 
1967.00, 
1968.00, 
1969.00, 
1970.00, 
1971.00, 
1972.00, 
1973.00, 
1974.00, 
1975.00, 
1976.00, 
1977.00, 
1978.00, 
1979.00, 
1980.00, 
1981.00, 
1982.00, 
1983.00, 
1984.00, 
1985.00, 
1986.00, 
1987.00, 
1988.00, 
1989.00, 
1990.00, 
1991.00, 
1992.00, 
1993.00, 
1994.00, 
1995.00, 
1996.00, 
1997.00, 
1998.00, 
1999.00, 
2000.00, 
2001.00, 
2002.00, 
2003.00, 
2004.00, 
2005.00, 
2006.00, 
2007.00, 
2008.00, 
2009.00, 
2010.00, 
2011.00, 
2012.00, 
2013.00, 
2014.00, 
2015.00, 
2016.00, 
2017.00, 
2018.00, 
2019.00, 
2020.00, 
2021.00, 
2022.00, 
2023.00, 
2024.00, 
2025.00, 
2026.00, 
2027.00, 
2028.00, 
2029.00, 
2030.00, 
2031.00, 
2032.00, 
2033.00, 
2034.00, 
2035.00, 
2036.00, 
2037.00, 
2038.00, 
2039.00, 
2040.00, 
2041.00, 
2042.00, 
2043.00, 
2044.00, 
2045.00, 
2046.00, 
2047.00, 
2048.00, 
2049.00, 
2050.00, 
2051.00, 
2052.00, 
2053.00, 
2054.00, 
2055.00, 
2056.00, 
2057.00, 
2058.00, 
2059.00, 
2060.00, 
2061.00, 
2062.00, 
2063.00, 
2064.00, 
2065.00, 
2066.00, 
2067.00, 
2068.00, 
2069.00, 
2070.00, 
2071.00, 
2072.00, 
2073.00, 
2074.00, 
2075.00, 
2076.00, 
2077.00, 
2078.00, 
2079.00, 
2080.00, 
2081.00, 
2082.00, 
2083.00, 
2084.00, 
2085.00, 
2086.00, 
2087.00, 
2088.00, 
2089.00, 
2090.00, 
2091.00, 
2092.00, 
2093.00, 
2094.00, 
2095.00, 
2096.00, 
2097.00, 
2098.00, 
2099.00, 
2100.00, 
2101.00, 
2102.00, 
2103.00, 
2104.00, 
2105.00, 
2106.00, 
2107.00, 
2108.00, 
2109.00, 
2110.00, 
2111.00, 
2112.00, 
2113.00, 
2114.00, 
2115.00, 
2116.00, 
2117.00, 
2118.00, 
2119.00, 
2120.00, 
2121.00, 
2122.00, 
2123.00, 
2124.00, 
2125.00, 
2126.00, 
2127.00, 
2128.00, 
2129.00, 
2130.00, 
2131.00, 
2132.00, 
2133.00, 
2134.00, 
2135.00, 
2136.00, 
2137.00, 
2138.00, 
2139.00, 
2140.00, 
2141.00, 
2142.00, 
2143.00, 
2144.00, 
2145.00, 
2146.00, 
2147.00, 
2148.00, 
2149.00, 
2150.00, 
2151.00, 
2152.00, 
2153.00, 
2154.00, 
2155.00, 
2156.00, 
2157.00, 
2158.00, 
2159.00, 
2160.00, 
2161.00, 
2162.00, 
2163.00, 
2164.00, 
2165.00, 
2166.00, 
2167.00, 
2168.00, 
2169.00, 
2170.00, 
2171.00, 
2172.00, 
2173.00, 
2174.00, 
2175.00, 
2176.00, 
2177.00, 
2178.00, 
2179.00, 
2180.00, 
2181.00, 
2182.00, 
2183.00, 
2184.00, 
2185.00, 
2186.00, 
2187.00, 
2188.00, 
2189.00, 
2190.00, 
2191.00, 
2192.00, 
2193.00, 
2194.00, 
2195.00, 
2196.00, 
2197.00, 
2198.00, 
2199.00, 
2200.00, 
2201.00, 
2202.00, 
2203.00, 
2204.00, 
2205.00, 
2206.00, 
2207.00, 
2208.00, 
2209.00, 
2210.00, 
2211.00, 
2212.00, 
2213.00, 
2214.00, 
2215.00, 
2216.00, 
2217.00, 
2218.00, 
2219.00, 
2220.00, 
2221.00, 
2222.00, 
2223.00, 
2224.00, 
2225.00, 
2226.00, 
2227.00, 
2228.00, 
2229.00, 
2230.00, 
2231.00, 
2232.00, 
2233.00, 
2234.00, 
2235.00, 
2236.00, 
2237.00, 
2238.00, 
2239.00, 
2240.00, 
2241.00, 
2242.00, 
2243.00, 
2244.00, 
2245.00, 
2246.00, 
2247.00, 
2248.00, 
2249.00, 
2250.00, 
2251.00, 
2252.00, 
2253.00, 
2254.00, 
2255.00, 
2256.00, 
2257.00, 
2258.00, 
2259.00, 
2260.00, 
2261.00, 
2262.00, 
2263.00, 
2264.00, 
2265.00, 
2266.00, 
2267.00, 
2268.00, 
2269.00, 
2270.00, 
2271.00, 
2272.00, 
2273.00, 
2274.00, 
2275.00, 
2276.00, 
2277.00, 
2278.00, 
2279.00, 
2280.00, 
2281.00, 
2282.00, 
2283.00, 
2284.00, 
2285.00, 
2286.00, 
2287.00, 
2288.00, 
2289.00, 
2290.00, 
2291.00, 
2292.00, 
2293.00, 
2294.00, 
2295.00, 
2296.00, 
2297.00, 
2298.00, 
2299.00, 
2300.00, 
2301.00, 
2302.00, 
2303.00, 
2304.00, 
2305.00, 
2306.00, 
2307.00, 
2308.00, 
2309.00, 
2310.00, 
2311.00, 
2312.00, 
2313.00, 
2314.00, 
2315.00, 
2316.00, 
2317.00, 
2318.00, 
2319.00, 
2320.00, 
2321.00, 
2322.00, 
2323.00, 
2324.00, 
2325.00, 
2326.00, 
2327.00, 
2328.00, 
2329.00, 
2330.00, 
2331.00, 
2332.00, 
2333.00, 
2334.00, 
2335.00, 
2336.00, 
2337.00, 
2338.00, 
2339.00, 
2340.00, 
2341.00, 
2342.00, 
2343.00, 
2344.00, 
2345.00, 
2346.00, 
2347.00, 
2348.00, 
2349.00, 
2350.00, 
2351.00, 
2352.00, 
2353.00, 
2354.00, 
2355.00, 
2356.00, 
2357.00, 
2358.00, 
2359.00, 
2360.00, 
2361.00, 
2362.00, 
2363.00, 
2364.00, 
2365.00, 
2366.00, 
2367.00, 
2368.00, 
2369.00, 
2370.00, 
2371.00, 
2372.00, 
2373.00, 
2374.00, 
2375.00, 
2376.00, 
2377.00, 
2378.00, 
2379.00, 
2380.00, 
2381.00, 
2382.00, 
2383.00, 
2384.00, 
2385.00, 
2386.00, 
2387.00, 
2388.00, 
2389.00, 
2390.00, 
2391.00, 
2392.00, 
2393.00, 
2394.00, 
2395.00, 
2396.00, 
2397.00, 
2398.00, 
2399.00, 
2400.00, 
2401.00, 
2402.00, 
2403.00, 
2404.00, 
2405.00, 
2406.00, 
2407.00, 
2408.00, 
2409.00, 
2410.00, 
2411.00, 
2412.00, 
2413.00, 
2414.00, 
2415.00, 
2416.00, 
2417.00, 
2418.00, 
2419.00, 
2420.00, 
2421.00, 
2422.00, 
2423.00, 
2424.00, 
2425.00, 
2426.00, 
2427.00, 
2428.00, 
2429.00, 
2430.00, 
2431.00, 
2432.00, 
2433.00, 
2434.00, 
2435.00, 
2436.00, 
2437.00, 
2438.00, 
2439.00, 
2440.00, 
2441.00, 
2442.00, 
2443.00, 
2444.00, 
2445.00, 
2446.00, 
2447.00, 
2448.00, 
2449.00, 
2450.00, 
2451.00, 
2452.00, 
2453.00, 
2454.00, 
2455.00, 
2456.00, 
2457.00, 
2458.00, 
2459.00, 
2460.00, 
2461.00, 
2462.00, 
2463.00, 
2464.00, 
2465.00, 
2466.00, 
2467.00, 
2468.00, 
2469.00, 
2470.00, 
2471.00, 
2472.00, 
2473.00, 
2474.00, 
2475.00, 
2476.00, 
2477.00, 
2478.00, 
2479.00, 
2480.00, 
2481.00, 
2482.00, 
2483.00, 
2484.00, 
2485.00, 
2486.00, 
2487.00, 
2488.00, 
2489.00, 
2490.00, 
2491.00, 
2492.00, 
2493.00, 
2494.00, 
2495.00, 
2496.00, 
2497.00, 
2498.00, 
2499.00, 
2500.00, 
2501.00, 
2502.00, 
2503.00, 
2504.00, 
2505.00, 
2506.00, 
2507.00, 
2508.00, 
2509.00, 
2510.00, 
2511.00, 
2512.00, 
2513.00, 
2514.00, 
2515.00, 
2516.00, 
2517.00, 
2518.00, 
2519.00, 
2520.00, 
2521.00, 
2522.00, 
2523.00, 
2524.00, 
2525.00, 
2526.00, 
2527.00, 
2528.00, 
2529.00, 
2530.00, 
2531.00, 
2532.00, 
2533.00, 
2534.00, 
2535.00, 
2536.00, 
2537.00, 
2538.00, 
2539.00, 
2540.00, 
2541.00, 
2542.00, 
2543.00, 
2544.00, 
2545.00, 
2546.00, 
2547.00, 
2548.00, 
2549.00, 
2550.00, 
2551.00, 
2552.00, 
2553.00, 
2554.00, 
2555.00, 
2556.00, 
2557.00, 
2558.00, 
2559.00, 
2560.00, 
2561.00, 
2562.00, 
2563.00, 
2564.00, 
2565.00, 
2566.00, 
2567.00, 
2568.00, 
2569.00, 
2570.00, 
2571.00, 
2572.00, 
2573.00, 
2574.00, 
2575.00, 
2576.00, 
2577.00, 
2578.00, 
2579.00, 
2580.00, 
2581.00, 
2582.00, 
2583.00, 
2584.00, 
2585.00, 
2586.00, 
2587.00, 
2588.00, 
2589.00, 
2590.00, 
2591.00, 
2592.00, 
2593.00, 
2594.00, 
2595.00, 
2596.00, 
2597.00, 
2598.00, 
2599.00, 
2600.00, 
