"1cP3 - RawData"
"Wavelength nm.","T%"
200.00,0.000
201.00,-0.002
202.00,0.002
203.00,0.001
204.00,-0.001
205.00,0.003
206.00,0.002
207.00,-0.001
208.00,0.003
209.00,-0.001
210.00,-0.000
211.00,0.000
212.00,0.001
213.00,0.002
214.00,0.002
215.00,0.001
216.00,0.002
217.00,0.002
218.00,0.001
219.00,-0.001
220.00,0.002
221.00,0.003
222.00,0.001
223.00,0.002
224.00,0.004
225.00,-0.000
226.00,0.001
227.00,-0.002
228.00,0.002
229.00,0.001
230.00,0.001
231.00,-0.001
232.00,0.000
233.00,-0.001
234.00,0.001
235.00,0.002
236.00,-0.001
237.00,0.002
238.00,0.001
239.00,-0.001
240.00,0.001
241.00,0.000
242.00,0.001
243.00,0.003
244.00,0.000
245.00,-0.000
246.00,-0.000
247.00,0.002
248.00,0.002
249.00,0.000
250.00,-0.000
251.00,0.001
252.00,-0.000
253.00,0.000
254.00,-0.001
255.00,0.001
256.00,0.002
257.00,0.001
258.00,-0.000
259.00,0.001
260.00,-0.000
261.00,0.004
262.00,0.001
263.00,-0.000
264.00,0.001
265.00,0.000
266.00,-0.001
267.00,0.000
268.00,0.001
269.00,-0.001
270.00,-0.000
271.00,0.000
272.00,0.001
273.00,0.001
274.00,-0.000
275.00,-0.001
276.00,0.000
277.00,-0.001
278.00,-0.000
279.00,-0.001
280.00,-0.001
281.00,-0.001
282.00,0.002
283.00,0.001
284.00,-0.000
285.00,0.002
286.00,-0.000
287.00,-0.000
288.00,-0.000
289.00,-0.000
290.00,0.001
291.00,0.000
292.00,-0.002
293.00,0.000
294.00,0.000
295.00,0.002
296.00,-0.000
297.00,-0.000
298.00,-0.000
299.00,-0.001
300.00,0.002
301.00,0.002
302.00,-0.000
303.00,0.002
304.00,-0.000
305.00,0.002
306.00,0.001
307.00,0.005
308.00,0.006
309.00,0.014
310.00,0.021
311.00,0.032
312.00,0.050
313.00,0.080
314.00,0.120
315.00,0.170
316.00,0.248
317.00,0.352
318.00,0.477
319.00,0.646
320.00,0.864
321.00,1.118
322.00,1.377
323.00,1.814
324.00,2.232
325.00,2.705
326.00,3.197
327.00,3.822
328.00,4.455
329.00,5.133
330.00,5.888
331.00,6.706
332.00,7.494
333.00,8.403
334.00,9.294
335.00,10.217
336.00,11.139
337.00,12.109
338.00,13.066
339.00,13.968
340.00,14.919
341.00,15.845
342.00,16.674
343.00,17.526
344.00,18.361
345.00,19.244
346.00,19.959
347.00,20.709
348.00,21.302
349.00,22.031
350.00,22.668
351.00,23.265
352.00,23.796
353.00,24.339
354.00,24.825
355.00,25.352
356.00,25.785
357.00,26.176
358.00,26.539
359.00,26.967
360.00,27.358
361.00,27.625
362.00,27.956
363.00,28.162
364.00,28.397
365.00,28.565
366.00,28.804
367.00,28.941
368.00,29.101
369.00,29.147
370.00,29.274
371.00,29.337
372.00,29.334
373.00,29.367
374.00,29.406
375.00,29.420
376.00,29.261
377.00,29.226
378.00,29.148
379.00,29.074
380.00,28.986
381.00,29.081
382.00,29.035
383.00,29.166
384.00,29.248
385.00,29.388
386.00,29.373
387.00,29.596
388.00,29.690
389.00,29.767
390.00,29.913
391.00,30.014
392.00,30.084
393.00,30.119
394.00,30.230
395.00,30.302
396.00,30.258
397.00,30.368
398.00,30.401
399.00,30.405
400.00,30.440
401.00,30.497
402.00,30.466
403.00,30.472
404.00,30.507
405.00,30.489
406.00,30.430
407.00,30.401
408.00,30.417
409.00,30.334
410.00,30.251
411.00,30.291
412.00,30.229
413.00,30.235
414.00,30.194
415.00,30.208
416.00,30.276
417.00,30.223
418.00,30.207
419.00,30.355
420.00,30.402
421.00,30.371
422.00,30.360
423.00,30.406
424.00,30.493
425.00,30.515
426.00,30.484
427.00,30.561
428.00,30.609
429.00,30.619
430.00,30.662
431.00,30.698
432.00,30.710
433.00,30.731
434.00,30.826
435.00,30.902
436.00,30.939
437.00,30.997
438.00,31.033
439.00,31.099
440.00,31.094
441.00,31.217
442.00,31.318
443.00,31.360
444.00,31.430
445.00,31.410
446.00,31.528
447.00,31.591
448.00,31.773
449.00,31.874
450.00,31.963
451.00,32.056
452.00,32.139
453.00,32.217
454.00,32.316
455.00,32.371
456.00,32.517
457.00,32.623
458.00,32.700
459.00,32.821
460.00,32.929
461.00,33.045
462.00,33.116
463.00,33.254
464.00,33.408
465.00,33.482
466.00,33.621
467.00,33.730
468.00,33.770
469.00,33.875
470.00,33.953
471.00,34.009
472.00,34.135
473.00,34.181
474.00,34.292
475.00,34.382
476.00,34.438
477.00,34.565
478.00,34.638
479.00,34.811
480.00,34.942
481.00,35.012
482.00,35.163
483.00,35.290
484.00,35.443
485.00,35.576
486.00,35.665
487.00,35.841
488.00,35.911
489.00,36.048
490.00,36.167
491.00,36.302
492.00,36.537
493.00,36.637
494.00,36.571
495.00,36.715
496.00,36.876
497.00,36.983
498.00,37.134
499.00,37.320
500.00,37.309
501.00,37.409
502.00,37.567
503.00,37.598
504.00,37.631
505.00,37.730
506.00,37.879
507.00,37.910
508.00,38.053
509.00,38.212
510.00,38.271
511.00,38.346
512.00,38.527
513.00,38.613
514.00,38.758
515.00,38.915
516.00,38.900
517.00,38.917
518.00,39.167
519.00,39.232
520.00,39.269
521.00,39.321
522.00,39.431
523.00,39.433
524.00,39.523
525.00,39.691
526.00,39.755
527.00,39.777
528.00,39.835
529.00,40.047
530.00,40.172
531.00,40.220
532.00,40.391
533.00,40.368
534.00,40.543
535.00,40.568
536.00,40.656
537.00,40.738
538.00,40.789
539.00,40.851
540.00,40.941
541.00,40.938
542.00,41.010
543.00,41.029
544.00,41.162
545.00,41.218
546.00,41.229
547.00,41.370
548.00,41.435
549.00,41.486
550.00,41.562
551.00,41.717
552.00,41.780
553.00,41.745
554.00,41.889
555.00,41.924
556.00,41.978
557.00,42.022
558.00,42.042
559.00,42.125
560.00,42.255
561.00,42.284
562.00,42.315
563.00,42.408
564.00,42.428
565.00,42.415
566.00,42.468
567.00,42.467
568.00,42.563
569.00,42.608
570.00,42.626
571.00,42.659
572.00,42.595
573.00,42.622
574.00,42.711
575.00,42.635
576.00,42.620
577.00,42.783
578.00,42.917
579.00,42.935
580.00,42.945
581.00,43.123
582.00,43.194
583.00,43.202
584.00,43.278
585.00,43.402
586.00,43.417
587.00,43.446
588.00,43.445
589.00,43.415
590.00,43.522
591.00,43.572
592.00,43.480
593.00,43.567
594.00,43.667
595.00,43.732
596.00,43.762
597.00,43.835
598.00,43.941
599.00,43.962
600.00,43.952
601.00,43.893
602.00,43.898
603.00,43.989
604.00,44.001
605.00,44.108
606.00,44.123
607.00,44.107
608.00,44.297
609.00,44.401
610.00,44.249
611.00,44.211
612.00,44.279
613.00,44.425
614.00,44.358
615.00,44.403
616.00,44.509
617.00,44.411
618.00,44.324
619.00,44.610
620.00,44.862
621.00,44.690
622.00,44.730
623.00,44.752
624.00,44.853
625.00,44.902
626.00,44.872
627.00,44.970
628.00,44.910
629.00,44.930
630.00,44.924
631.00,45.041
632.00,45.125
633.00,45.101
634.00,45.162
635.00,45.381
636.00,45.318
637.00,45.327
638.00,45.445
639.00,45.477
640.00,45.515
641.00,45.532
642.00,45.541
643.00,45.619
644.00,45.661
645.00,45.739
646.00,45.921
647.00,45.938
648.00,45.960
649.00,45.921
650.00,45.875
651.00,46.054
652.00,46.131
653.00,46.115
654.00,46.141
655.00,46.394
656.00,46.573
657.00,46.430
658.00,46.438
659.00,46.533
660.00,46.421
661.00,46.508
662.00,46.613
663.00,46.629
664.00,46.822
665.00,47.029
666.00,46.923
667.00,46.985
668.00,46.877
669.00,47.066
670.00,47.373
671.00,47.133
672.00,47.193
673.00,47.334
674.00,47.315
675.00,47.299
676.00,47.489
677.00,47.650
678.00,47.294
679.00,47.595
680.00,47.751
681.00,47.833
682.00,47.769
683.00,47.733
684.00,47.839
685.00,47.904
686.00,47.827
687.00,47.772
688.00,47.881
689.00,47.862
690.00,48.084
691.00,48.442
692.00,48.164
693.00,48.153
694.00,48.328
695.00,48.357
696.00,48.353
697.00,48.288
698.00,48.295
699.00,48.547
700.00,48.633
701.00,48.637
702.00,48.746
703.00,48.673
704.00,48.726
705.00,48.607
706.00,48.685
707.00,48.776
708.00,48.650
709.00,49.056
710.00,49.329
711.00,48.811
712.00,48.974
713.00,49.047
714.00,49.110
715.00,49.100
716.00,49.005
717.00,49.246
718.00,49.328
719.00,49.282
720.00,49.137
721.00,54.012
722.00,53.796
723.00,53.852
724.00,53.835
725.00,53.792
726.00,53.744
727.00,53.787
728.00,53.751
729.00,53.817
730.00,53.773
731.00,53.767
732.00,53.651
733.00,53.737
734.00,53.749
735.00,53.840
736.00,53.855
737.00,53.782
738.00,53.748
739.00,53.770
740.00,53.769
741.00,53.766
742.00,53.791
743.00,53.749
744.00,53.700
745.00,53.810
746.00,53.704
747.00,53.707
748.00,53.629
749.00,53.632
750.00,53.638
751.00,53.513
752.00,53.557
753.00,53.574
754.00,53.561
755.00,53.504
756.00,53.578
757.00,53.476
758.00,53.465
759.00,53.440
760.00,53.419
761.00,53.435
762.00,53.438
763.00,53.430
764.00,53.404
765.00,53.386
766.00,53.425
767.00,53.407
768.00,53.417
769.00,53.326
770.00,53.361
771.00,53.257
772.00,53.303
773.00,53.290
774.00,53.286
775.00,53.278
776.00,53.225
777.00,53.239
778.00,53.213
779.00,53.340
780.00,53.168
781.00,53.186
782.00,53.220
783.00,53.226
784.00,53.144
785.00,53.084
786.00,53.142
787.00,53.088
788.00,53.059
789.00,53.051
790.00,53.045
791.00,53.013
792.00,52.941
793.00,52.878
794.00,52.814
795.00,52.908
796.00,52.879
797.00,52.803
798.00,52.852
799.00,52.819
800.00,52.748
801.00,52.735
802.00,52.765
803.00,52.747
804.00,52.691
805.00,52.671
806.00,52.638
807.00,52.569
808.00,52.634
809.00,52.554
810.00,52.479
811.00,52.588
812.00,52.543
813.00,52.429
814.00,52.491
815.00,52.465
816.00,52.489
817.00,52.388
818.00,52.292
819.00,52.286
820.00,52.294
821.00,52.270
822.00,52.278
823.00,52.196
824.00,52.262
825.00,52.129
826.00,52.183
827.00,52.133
828.00,52.077
829.00,52.146
830.00,52.096
831.00,54.469
832.00,54.440
833.00,54.419
834.00,54.399
835.00,54.369
836.00,54.391
837.00,54.283
838.00,54.306
839.00,54.308
840.00,54.258
841.00,54.225
842.00,54.182
843.00,54.180
844.00,54.192
845.00,54.083
846.00,54.088
847.00,54.074
848.00,54.085
849.00,54.014
850.00,53.998
851.00,53.921
852.00,53.923
853.00,53.870
854.00,53.831
855.00,53.789
856.00,53.801
857.00,53.740
858.00,53.726
859.00,53.677
860.00,53.665
861.00,53.657
862.00,53.643
863.00,53.618
864.00,53.543
865.00,53.578
866.00,53.571
867.00,53.555
868.00,53.545
869.00,53.503
870.00,53.506
871.00,53.474
872.00,53.478
873.00,53.454
874.00,53.470
875.00,53.418
876.00,53.421
877.00,53.407
878.00,53.367
879.00,53.364
880.00,53.309
881.00,53.310
882.00,53.327
883.00,53.305
884.00,53.276
885.00,53.245
886.00,53.232
887.00,53.195
888.00,53.182
889.00,53.163
890.00,53.148
891.00,53.120
892.00,53.128
893.00,53.087
894.00,53.070
895.00,53.034
896.00,53.019
897.00,52.997
898.00,52.956
899.00,52.966
900.00,52.959
901.00,52.914
902.00,52.903
903.00,52.869
904.00,52.848
905.00,52.824
906.00,52.844
907.00,52.792
908.00,52.748
909.00,52.777
910.00,52.699
911.00,52.713
912.00,52.706
913.00,52.653
914.00,52.628
915.00,52.592
916.00,52.585
917.00,52.558
918.00,52.553
919.00,52.517
920.00,52.504
921.00,52.498
922.00,52.489
923.00,52.457
924.00,52.413
925.00,52.414
926.00,52.390
927.00,52.377
928.00,52.338
929.00,52.325
930.00,52.289
931.00,52.304
932.00,52.196
933.00,52.273
934.00,52.267
935.00,52.186
936.00,52.315
937.00,52.160
938.00,52.152
939.00,52.154
940.00,52.131
941.00,52.108
942.00,52.092
943.00,52.077
944.00,52.013
945.00,52.035
946.00,52.016
947.00,51.956
948.00,51.955
949.00,51.941
950.00,51.883
951.00,51.947
952.00,51.888
953.00,51.865
954.00,51.824
955.00,51.785
956.00,51.759
957.00,51.721
958.00,51.713
959.00,51.669
960.00,51.669
961.00,51.663
962.00,51.635
963.00,51.622
964.00,51.606
965.00,51.601
966.00,51.586
967.00,51.561
968.00,51.553
969.00,51.566
970.00,51.534
971.00,51.548
972.00,51.489
973.00,51.539
974.00,51.543
975.00,51.530
976.00,51.543
977.00,51.507
978.00,51.550
979.00,51.513
980.00,51.523
981.00,51.509
982.00,51.501
983.00,51.499
984.00,51.474
985.00,51.489
986.00,51.447
987.00,51.467
988.00,51.416
989.00,51.433
990.00,51.415
991.00,51.407
992.00,51.427
993.00,51.382
994.00,51.377
995.00,51.362
996.00,51.334
997.00,51.360
998.00,51.324
999.00,51.338
1000.00,51.292
1001.00,51.296
1002.00,51.288
1003.00,51.285
1004.00,51.255
1005.00,51.222
1006.00,51.257
1007.00,51.217
1008.00,51.216
1009.00,51.190
1010.00,51.179
1011.00,51.178
1012.00,51.185
1013.00,51.146
1014.00,51.098
1015.00,51.122
1016.00,51.085
1017.00,51.074
1018.00,51.059
1019.00,51.030
1020.00,51.021
1021.00,50.985
1022.00,50.993
1023.00,50.950
1024.00,50.941
1025.00,50.926
1026.00,50.922
1027.00,50.897
1028.00,50.898
1029.00,50.881
1030.00,50.850
1031.00,50.861
1032.00,50.812
1033.00,50.823
1034.00,50.804
1035.00,50.768
1036.00,50.741
1037.00,50.727
1038.00,50.720
1039.00,50.679
1040.00,50.667
1041.00,50.648
1042.00,50.675
1043.00,50.627
1044.00,50.659
1045.00,50.640
1046.00,50.620
1047.00,50.634
1048.00,50.663
1049.00,50.661
1050.00,50.663
1051.00,50.707
1052.00,50.697
1053.00,50.694
1054.00,50.689
1055.00,50.717
1056.00,50.706
1057.00,50.712
1058.00,50.735
1059.00,50.711
1060.00,50.722
1061.00,50.701
1062.00,50.682
1063.00,50.692
1064.00,50.686
1065.00,50.677
1066.00,50.656
1067.00,50.651
1068.00,50.664
1069.00,50.656
1070.00,50.625
1071.00,50.607
1072.00,50.638
1073.00,50.603
1074.00,50.608
1075.00,50.596
1076.00,50.592
1077.00,50.579
1078.00,50.568
1079.00,50.557
1080.00,50.559
1081.00,50.553
1082.00,50.549
1083.00,50.546
1084.00,50.540
1085.00,50.551
1086.00,50.530
1087.00,50.520
1088.00,50.517
1089.00,50.496
1090.00,50.488
1091.00,50.492
1092.00,50.481
1093.00,50.473
1094.00,50.452
1095.00,50.450
1096.00,50.429
1097.00,50.425
1098.00,50.421
1099.00,50.402
1100.00,50.388
1101.00,50.389
1102.00,50.384
1103.00,50.388
1104.00,50.397
1105.00,50.364
1106.00,50.350
1107.00,50.341
1108.00,50.331
1109.00,50.319
1110.00,50.317
1111.00,50.317
1112.00,50.302
1113.00,50.293
1114.00,50.285
1115.00,50.291
1116.00,50.291
1117.00,50.269
1118.00,50.264
1119.00,50.253
1120.00,50.236
1121.00,50.245
1122.00,50.229
1123.00,50.218
1124.00,50.213
1125.00,50.220
1126.00,50.206
1127.00,50.197
1128.00,50.171
1129.00,50.162
1130.00,50.155
1131.00,50.152
1132.00,50.166
1133.00,50.175
1134.00,50.134
1135.00,50.123
1136.00,50.122
1137.00,50.135
1138.00,50.131
1139.00,50.144
1140.00,50.137
1141.00,50.141
1142.00,50.115
1143.00,50.127
1144.00,50.104
1145.00,50.096
1146.00,50.102
1147.00,50.091
1148.00,50.094
1149.00,50.127
1150.00,50.114
1151.00,50.102
1152.00,50.094
1153.00,50.088
1154.00,50.081
1155.00,50.094
1156.00,50.074
1157.00,50.069
1158.00,50.070
1159.00,50.081
1160.00,50.064
1161.00,50.068
1162.00,50.065
1163.00,50.057
1164.00,50.068
1165.00,50.078
1166.00,50.053
1167.00,50.031
1168.00,50.053
1169.00,50.042
1170.00,50.043
1171.00,50.023
1172.00,50.022
1173.00,50.022
1174.00,50.034
1175.00,50.026
1176.00,50.034
1177.00,50.021
1178.00,50.025
1179.00,50.055
1180.00,50.038
1181.00,50.060
1182.00,50.052
1183.00,50.045
1184.00,50.045
1185.00,50.057
1186.00,50.036
1187.00,50.040
1188.00,50.054
1189.00,50.044
1190.00,50.032
1191.00,50.035
1192.00,50.051
1193.00,50.042
1194.00,50.040
1195.00,50.027
1196.00,50.067
1197.00,50.048
1198.00,50.039
1199.00,50.041
1200.00,50.035
1201.00,50.060
1202.00,50.041
1203.00,50.050
1204.00,50.027
1205.00,50.057
1206.00,50.026
1207.00,50.023
1208.00,50.022
1209.00,50.042
1210.00,50.051
1211.00,50.047
1212.00,50.052
1213.00,50.008
1214.00,50.037
1215.00,50.013
1216.00,50.032
1217.00,50.050
1218.00,50.039
1219.00,50.049
1220.00,50.031
1221.00,50.072
1222.00,50.054
1223.00,50.070
1224.00,50.068
1225.00,50.049
1226.00,50.067
1227.00,50.046
1228.00,50.069
1229.00,50.066
1230.00,50.090
1231.00,50.094
1232.00,50.121
1233.00,50.123
1234.00,50.122
1235.00,50.124
1236.00,50.117
1237.00,50.116
1238.00,50.117
1239.00,50.117
1240.00,50.105
1241.00,50.111
1242.00,50.115
1243.00,50.125
1244.00,50.097
1245.00,50.133
1246.00,50.142
1247.00,50.132
1248.00,50.124
1249.00,50.158
1250.00,50.182
1251.00,50.171
1252.00,50.188
1253.00,50.182
1254.00,50.201
1255.00,50.177
1256.00,50.155
1257.00,50.155
1258.00,50.184
1259.00,50.183
1260.00,50.208
1261.00,50.210
1262.00,50.206
1263.00,50.200
1264.00,50.221
1265.00,50.222
1266.00,50.210
1267.00,50.227
1268.00,50.235
1269.00,50.249
1270.00,50.254
1271.00,50.260
1272.00,50.265
1273.00,50.273
1274.00,50.267
1275.00,50.267
1276.00,50.273
1277.00,50.274
1278.00,50.291
1279.00,50.291
1280.00,50.298
1281.00,50.319
1282.00,50.333
1283.00,50.339
1284.00,50.346
1285.00,50.334
1286.00,50.362
1287.00,50.360
1288.00,50.367
1289.00,50.363
1290.00,50.395
1291.00,50.389
1292.00,50.383
1293.00,50.386
1294.00,50.410
1295.00,50.418
1296.00,50.417
1297.00,50.428
1298.00,50.457
1299.00,50.421
1300.00,50.444
1301.00,50.434
1302.00,50.462
1303.00,50.464
1304.00,50.442
1305.00,50.474
1306.00,50.486
1307.00,50.500
1308.00,50.498
1309.00,50.519
1310.00,50.502
1311.00,50.511
1312.00,50.503
1313.00,50.532
1314.00,50.546
1315.00,50.548
1316.00,50.556
1317.00,50.597
1318.00,50.587
1319.00,50.590
1320.00,50.601
1321.00,50.780
1322.00,50.777
1323.00,50.758
1324.00,50.734
1325.00,50.734
1326.00,50.769
1327.00,50.759
1328.00,50.760
1329.00,50.750
1330.00,50.741
1331.00,50.778
1332.00,50.781
1333.00,50.738
1334.00,50.824
1335.00,50.809
1336.00,50.854
1337.00,50.902
1338.00,50.946
1339.00,50.984
1340.00,51.039
1341.00,51.109
1342.00,51.161
1343.00,51.201
1344.00,51.269
1345.00,51.336
1346.00,51.372
1347.00,51.396
1348.00,51.424
1349.00,51.432
1350.00,51.446
1351.00,51.466
1352.00,51.492
1353.00,51.468
1354.00,51.489
1355.00,51.477
1356.00,51.550
1357.00,51.400
1358.00,51.567
1359.00,51.550
1360.00,51.434
1361.00,51.522
1362.00,51.508
1363.00,51.093
1364.00,51.592
1365.00,51.525
1366.00,51.636
1367.00,51.563
1368.00,51.505
1369.00,51.598
1370.00,51.507
1371.00,51.472
1372.00,51.526
1373.00,51.573
1374.00,51.580
1375.00,51.569
1376.00,51.550
1377.00,51.581
1378.00,51.691
1379.00,51.584
1380.00,51.591
1381.00,51.561
1382.00,51.523
1383.00,51.590
1384.00,51.479
1385.00,51.516
1386.00,51.584
1387.00,51.494
1388.00,51.520
1389.00,51.546
1390.00,51.627
1391.00,51.455
1392.00,51.555
1393.00,51.815
1394.00,51.612
1395.00,51.595
1396.00,51.422
1397.00,51.584
1398.00,51.579
1399.00,51.597
1400.00,51.512
1401.00,51.503
1402.00,51.631
1403.00,51.586
1404.00,51.563
1405.00,51.641
1406.00,51.625
1407.00,51.638
1408.00,51.625
1409.00,51.626
1410.00,51.660
1411.00,51.661
1412.00,51.731
1413.00,51.646
1414.00,51.638
1415.00,51.677
1416.00,51.708
1417.00,51.752
1418.00,51.722
1419.00,51.717
1420.00,51.744
1421.00,51.791
1422.00,51.803
1423.00,51.799
1424.00,51.841
1425.00,51.858
1426.00,51.862
1427.00,51.893
1428.00,51.890
1429.00,51.910
1430.00,51.913
1431.00,51.924
1432.00,51.965
1433.00,51.991
1434.00,51.985
1435.00,52.038
1436.00,52.066
1437.00,52.038
1438.00,52.057
1439.00,52.100
1440.00,52.101
1441.00,52.103
1442.00,52.115
1443.00,52.151
1444.00,52.233
1445.00,52.167
1446.00,52.189
1447.00,52.233
1448.00,52.257
1449.00,52.281
1450.00,52.272
1451.00,52.283
1452.00,52.310
1453.00,52.328
1454.00,52.352
1455.00,52.384
1456.00,52.392
1457.00,52.390
1458.00,52.430
1459.00,52.435
1460.00,52.468
1461.00,52.464
1462.00,52.493
1463.00,52.505
1464.00,52.508
1465.00,52.522
1466.00,52.523
1467.00,52.553
1468.00,52.609
1469.00,52.606
1470.00,52.631
1471.00,52.632
1472.00,52.651
1473.00,52.666
1474.00,52.683
1475.00,52.707
1476.00,52.722
1477.00,52.702
1478.00,52.730
1479.00,52.763
1480.00,52.771
1481.00,52.762
1482.00,52.798
1483.00,52.831
1484.00,52.867
1485.00,52.843
1486.00,52.865
1487.00,52.893
1488.00,52.933
1489.00,52.907
1490.00,52.933
1491.00,52.938
1492.00,52.953
1493.00,52.948
1494.00,52.988
1495.00,52.983
1496.00,53.008
1497.00,53.013
1498.00,53.027
1499.00,53.055
1500.00,53.063
1501.00, 
1502.00, 
1503.00, 
1504.00, 
1505.00, 
1506.00, 
1507.00, 
1508.00, 
1509.00, 
1510.00, 
1511.00, 
1512.00, 
1513.00, 
1514.00, 
1515.00, 
1516.00, 
1517.00, 
1518.00, 
1519.00, 
1520.00, 
1521.00, 
1522.00, 
1523.00, 
1524.00, 
1525.00, 
1526.00, 
1527.00, 
1528.00, 
1529.00, 
1530.00, 
1531.00, 
1532.00, 
1533.00, 
1534.00, 
1535.00, 
1536.00, 
1537.00, 
1538.00, 
1539.00, 
1540.00, 
1541.00, 
1542.00, 
1543.00, 
1544.00, 
1545.00, 
1546.00, 
1547.00, 
1548.00, 
1549.00, 
1550.00, 
1551.00, 
1552.00, 
1553.00, 
1554.00, 
1555.00, 
1556.00, 
1557.00, 
1558.00, 
1559.00, 
1560.00, 
1561.00, 
1562.00, 
1563.00, 
1564.00, 
1565.00, 
1566.00, 
1567.00, 
1568.00, 
1569.00, 
1570.00, 
1571.00, 
1572.00, 
1573.00, 
1574.00, 
1575.00, 
1576.00, 
1577.00, 
1578.00, 
1579.00, 
1580.00, 
1581.00, 
1582.00, 
1583.00, 
1584.00, 
1585.00, 
1586.00, 
1587.00, 
1588.00, 
1589.00, 
1590.00, 
1591.00, 
1592.00, 
1593.00, 
1594.00, 
1595.00, 
1596.00, 
1597.00, 
1598.00, 
1599.00, 
1600.00, 
1601.00, 
1602.00, 
1603.00, 
1604.00, 
1605.00, 
1606.00, 
1607.00, 
1608.00, 
1609.00, 
1610.00, 
1611.00, 
1612.00, 
1613.00, 
1614.00, 
1615.00, 
1616.00, 
1617.00, 
1618.00, 
1619.00, 
1620.00, 
1621.00, 
1622.00, 
1623.00, 
1624.00, 
1625.00, 
1626.00, 
1627.00, 
1628.00, 
1629.00, 
1630.00, 
1631.00, 
1632.00, 
1633.00, 
1634.00, 
1635.00, 
1636.00, 
1637.00, 
1638.00, 
1639.00, 
1640.00, 
1641.00, 
1642.00, 
1643.00, 
1644.00, 
1645.00, 
1646.00, 
1647.00, 
1648.00, 
1649.00, 
1650.00, 
1651.00, 
1652.00, 
1653.00, 
1654.00, 
1655.00, 
1656.00, 
1657.00, 
1658.00, 
1659.00, 
1660.00, 
1661.00, 
1662.00, 
1663.00, 
1664.00, 
1665.00, 
1666.00, 
1667.00, 
1668.00, 
1669.00, 
1670.00, 
1671.00, 
1672.00, 
1673.00, 
1674.00, 
1675.00, 
1676.00, 
1677.00, 
1678.00, 
1679.00, 
1680.00, 
1681.00, 
1682.00, 
1683.00, 
1684.00, 
1685.00, 
1686.00, 
1687.00, 
1688.00, 
1689.00, 
1690.00, 
1691.00, 
1692.00, 
1693.00, 
1694.00, 
1695.00, 
1696.00, 
1697.00, 
1698.00, 
1699.00, 
1700.00, 
1701.00, 
1702.00, 
1703.00, 
1704.00, 
1705.00, 
1706.00, 
1707.00, 
1708.00, 
1709.00, 
1710.00, 
1711.00, 
1712.00, 
1713.00, 
1714.00, 
1715.00, 
1716.00, 
1717.00, 
1718.00, 
1719.00, 
1720.00, 
1721.00, 
1722.00, 
1723.00, 
1724.00, 
1725.00, 
1726.00, 
1727.00, 
1728.00, 
1729.00, 
1730.00, 
1731.00, 
1732.00, 
1733.00, 
1734.00, 
1735.00, 
1736.00, 
1737.00, 
1738.00, 
1739.00, 
1740.00, 
1741.00, 
1742.00, 
1743.00, 
1744.00, 
1745.00, 
1746.00, 
1747.00, 
1748.00, 
1749.00, 
1750.00, 
1751.00, 
1752.00, 
1753.00, 
1754.00, 
1755.00, 
1756.00, 
1757.00, 
1758.00, 
1759.00, 
1760.00, 
1761.00, 
1762.00, 
1763.00, 
1764.00, 
1765.00, 
1766.00, 
1767.00, 
1768.00, 
1769.00, 
1770.00, 
1771.00, 
1772.00, 
1773.00, 
1774.00, 
1775.00, 
1776.00, 
1777.00, 
1778.00, 
1779.00, 
1780.00, 
1781.00, 
1782.00, 
1783.00, 
1784.00, 
1785.00, 
1786.00, 
1787.00, 
1788.00, 
1789.00, 
1790.00, 
1791.00, 
1792.00, 
1793.00, 
1794.00, 
1795.00, 
1796.00, 
1797.00, 
1798.00, 
1799.00, 
1800.00, 
1801.00, 
1802.00, 
1803.00, 
1804.00, 
1805.00, 
1806.00, 
1807.00, 
1808.00, 
1809.00, 
1810.00, 
1811.00, 
1812.00, 
1813.00, 
1814.00, 
1815.00, 
1816.00, 
1817.00, 
1818.00, 
1819.00, 
1820.00, 
1821.00, 
1822.00, 
1823.00, 
1824.00, 
1825.00, 
1826.00, 
1827.00, 
1828.00, 
1829.00, 
1830.00, 
1831.00, 
1832.00, 
1833.00, 
1834.00, 
1835.00, 
1836.00, 
1837.00, 
1838.00, 
1839.00, 
1840.00, 
1841.00, 
1842.00, 
1843.00, 
1844.00, 
1845.00, 
1846.00, 
1847.00, 
1848.00, 
1849.00, 
1850.00, 
1851.00, 
1852.00, 
1853.00, 
1854.00, 
1855.00, 
1856.00, 
1857.00, 
1858.00, 
1859.00, 
1860.00, 
1861.00, 
1862.00, 
1863.00, 
1864.00, 
1865.00, 
1866.00, 
1867.00, 
1868.00, 
1869.00, 
1870.00, 
1871.00, 
1872.00, 
1873.00, 
1874.00, 
1875.00, 
1876.00, 
1877.00, 
1878.00, 
1879.00, 
1880.00, 
1881.00, 
1882.00, 
1883.00, 
1884.00, 
1885.00, 
1886.00, 
1887.00, 
1888.00, 
1889.00, 
1890.00, 
1891.00, 
1892.00, 
1893.00, 
1894.00, 
1895.00, 
1896.00, 
1897.00, 
1898.00, 
1899.00, 
1900.00, 
1901.00, 
1902.00, 
1903.00, 
1904.00, 
1905.00, 
1906.00, 
1907.00, 
1908.00, 
1909.00, 
1910.00, 
1911.00, 
1912.00, 
1913.00, 
1914.00, 
1915.00, 
1916.00, 
1917.00, 
1918.00, 
1919.00, 
1920.00, 
1921.00, 
1922.00, 
1923.00, 
1924.00, 
1925.00, 
1926.00, 
1927.00, 
1928.00, 
1929.00, 
1930.00, 
1931.00, 
1932.00, 
1933.00, 
1934.00, 
1935.00, 
1936.00, 
1937.00, 
1938.00, 
1939.00, 
1940.00, 
1941.00, 
1942.00, 
1943.00, 
1944.00, 
1945.00, 
1946.00, 
1947.00, 
1948.00, 
1949.00, 
1950.00, 
1951.00, 
1952.00, 
1953.00, 
1954.00, 
1955.00, 
1956.00, 
1957.00, 
1958.00, 
1959.00, 
1960.00, 
1961.00, 
1962.00, 
1963.00, 
1964.00, 
1965.00, 
1966.00, 
1967.00, 
1968.00, 
1969.00, 
1970.00, 
1971.00, 
1972.00, 
1973.00, 
1974.00, 
1975.00, 
1976.00, 
1977.00, 
1978.00, 
1979.00, 
1980.00, 
1981.00, 
1982.00, 
1983.00, 
1984.00, 
1985.00, 
1986.00, 
1987.00, 
1988.00, 
1989.00, 
1990.00, 
1991.00, 
1992.00, 
1993.00, 
1994.00, 
1995.00, 
1996.00, 
1997.00, 
1998.00, 
1999.00, 
2000.00, 
2001.00, 
2002.00, 
2003.00, 
2004.00, 
2005.00, 
2006.00, 
2007.00, 
2008.00, 
2009.00, 
2010.00, 
2011.00, 
2012.00, 
2013.00, 
2014.00, 
2015.00, 
2016.00, 
2017.00, 
2018.00, 
2019.00, 
2020.00, 
2021.00, 
2022.00, 
2023.00, 
2024.00, 
2025.00, 
2026.00, 
2027.00, 
2028.00, 
2029.00, 
2030.00, 
2031.00, 
2032.00, 
2033.00, 
2034.00, 
2035.00, 
2036.00, 
2037.00, 
2038.00, 
2039.00, 
2040.00, 
2041.00, 
2042.00, 
2043.00, 
2044.00, 
2045.00, 
2046.00, 
2047.00, 
2048.00, 
2049.00, 
2050.00, 
2051.00, 
2052.00, 
2053.00, 
2054.00, 
2055.00, 
2056.00, 
2057.00, 
2058.00, 
2059.00, 
2060.00, 
2061.00, 
2062.00, 
2063.00, 
2064.00, 
2065.00, 
2066.00, 
2067.00, 
2068.00, 
2069.00, 
2070.00, 
2071.00, 
2072.00, 
2073.00, 
2074.00, 
2075.00, 
2076.00, 
2077.00, 
2078.00, 
2079.00, 
2080.00, 
2081.00, 
2082.00, 
2083.00, 
2084.00, 
2085.00, 
2086.00, 
2087.00, 
2088.00, 
2089.00, 
2090.00, 
2091.00, 
2092.00, 
2093.00, 
2094.00, 
2095.00, 
2096.00, 
2097.00, 
2098.00, 
2099.00, 
2100.00, 
2101.00, 
2102.00, 
2103.00, 
2104.00, 
2105.00, 
2106.00, 
2107.00, 
2108.00, 
2109.00, 
2110.00, 
2111.00, 
2112.00, 
2113.00, 
2114.00, 
2115.00, 
2116.00, 
2117.00, 
2118.00, 
2119.00, 
2120.00, 
2121.00, 
2122.00, 
2123.00, 
2124.00, 
2125.00, 
2126.00, 
2127.00, 
2128.00, 
2129.00, 
2130.00, 
2131.00, 
2132.00, 
2133.00, 
2134.00, 
2135.00, 
2136.00, 
2137.00, 
2138.00, 
2139.00, 
2140.00, 
2141.00, 
2142.00, 
2143.00, 
2144.00, 
2145.00, 
2146.00, 
2147.00, 
2148.00, 
2149.00, 
2150.00, 
2151.00, 
2152.00, 
2153.00, 
2154.00, 
2155.00, 
2156.00, 
2157.00, 
2158.00, 
2159.00, 
2160.00, 
2161.00, 
2162.00, 
2163.00, 
2164.00, 
2165.00, 
2166.00, 
2167.00, 
2168.00, 
2169.00, 
2170.00, 
2171.00, 
2172.00, 
2173.00, 
2174.00, 
2175.00, 
2176.00, 
2177.00, 
2178.00, 
2179.00, 
2180.00, 
2181.00, 
2182.00, 
2183.00, 
2184.00, 
2185.00, 
2186.00, 
2187.00, 
2188.00, 
2189.00, 
2190.00, 
2191.00, 
2192.00, 
2193.00, 
2194.00, 
2195.00, 
2196.00, 
2197.00, 
2198.00, 
2199.00, 
2200.00, 
2201.00, 
2202.00, 
2203.00, 
2204.00, 
2205.00, 
2206.00, 
2207.00, 
2208.00, 
2209.00, 
2210.00, 
2211.00, 
2212.00, 
2213.00, 
2214.00, 
2215.00, 
2216.00, 
2217.00, 
2218.00, 
2219.00, 
2220.00, 
2221.00, 
2222.00, 
2223.00, 
2224.00, 
2225.00, 
2226.00, 
2227.00, 
2228.00, 
2229.00, 
2230.00, 
2231.00, 
2232.00, 
2233.00, 
2234.00, 
2235.00, 
2236.00, 
2237.00, 
2238.00, 
2239.00, 
2240.00, 
2241.00, 
2242.00, 
2243.00, 
2244.00, 
2245.00, 
2246.00, 
2247.00, 
2248.00, 
2249.00, 
2250.00, 
2251.00, 
2252.00, 
2253.00, 
2254.00, 
2255.00, 
2256.00, 
2257.00, 
2258.00, 
2259.00, 
2260.00, 
2261.00, 
2262.00, 
2263.00, 
2264.00, 
2265.00, 
2266.00, 
2267.00, 
2268.00, 
2269.00, 
2270.00, 
2271.00, 
2272.00, 
2273.00, 
2274.00, 
2275.00, 
2276.00, 
2277.00, 
2278.00, 
2279.00, 
2280.00, 
2281.00, 
2282.00, 
2283.00, 
2284.00, 
2285.00, 
2286.00, 
2287.00, 
2288.00, 
2289.00, 
2290.00, 
2291.00, 
2292.00, 
2293.00, 
2294.00, 
2295.00, 
2296.00, 
2297.00, 
2298.00, 
2299.00, 
2300.00, 
2301.00, 
2302.00, 
2303.00, 
2304.00, 
2305.00, 
2306.00, 
2307.00, 
2308.00, 
2309.00, 
2310.00, 
2311.00, 
2312.00, 
2313.00, 
2314.00, 
2315.00, 
2316.00, 
2317.00, 
2318.00, 
2319.00, 
2320.00, 
2321.00, 
2322.00, 
2323.00, 
2324.00, 
2325.00, 
2326.00, 
2327.00, 
2328.00, 
2329.00, 
2330.00, 
2331.00, 
2332.00, 
2333.00, 
2334.00, 
2335.00, 
2336.00, 
2337.00, 
2338.00, 
2339.00, 
2340.00, 
2341.00, 
2342.00, 
2343.00, 
2344.00, 
2345.00, 
2346.00, 
2347.00, 
2348.00, 
2349.00, 
2350.00, 
2351.00, 
2352.00, 
2353.00, 
2354.00, 
2355.00, 
2356.00, 
2357.00, 
2358.00, 
2359.00, 
2360.00, 
2361.00, 
2362.00, 
2363.00, 
2364.00, 
2365.00, 
2366.00, 
2367.00, 
2368.00, 
2369.00, 
2370.00, 
2371.00, 
2372.00, 
2373.00, 
2374.00, 
2375.00, 
2376.00, 
2377.00, 
2378.00, 
2379.00, 
2380.00, 
2381.00, 
2382.00, 
2383.00, 
2384.00, 
2385.00, 
2386.00, 
2387.00, 
2388.00, 
2389.00, 
2390.00, 
2391.00, 
2392.00, 
2393.00, 
2394.00, 
2395.00, 
2396.00, 
2397.00, 
2398.00, 
2399.00, 
2400.00, 
2401.00, 
2402.00, 
2403.00, 
2404.00, 
2405.00, 
2406.00, 
2407.00, 
2408.00, 
2409.00, 
2410.00, 
2411.00, 
2412.00, 
2413.00, 
2414.00, 
2415.00, 
2416.00, 
2417.00, 
2418.00, 
2419.00, 
2420.00, 
2421.00, 
2422.00, 
2423.00, 
2424.00, 
2425.00, 
2426.00, 
2427.00, 
2428.00, 
2429.00, 
2430.00, 
2431.00, 
2432.00, 
2433.00, 
2434.00, 
2435.00, 
2436.00, 
2437.00, 
2438.00, 
2439.00, 
2440.00, 
2441.00, 
2442.00, 
2443.00, 
2444.00, 
2445.00, 
2446.00, 
2447.00, 
2448.00, 
2449.00, 
2450.00, 
2451.00, 
2452.00, 
2453.00, 
2454.00, 
2455.00, 
2456.00, 
2457.00, 
2458.00, 
2459.00, 
2460.00, 
2461.00, 
2462.00, 
2463.00, 
2464.00, 
2465.00, 
2466.00, 
2467.00, 
2468.00, 
2469.00, 
2470.00, 
2471.00, 
2472.00, 
2473.00, 
2474.00, 
2475.00, 
2476.00, 
2477.00, 
2478.00, 
2479.00, 
2480.00, 
2481.00, 
2482.00, 
2483.00, 
2484.00, 
2485.00, 
2486.00, 
2487.00, 
2488.00, 
2489.00, 
2490.00, 
2491.00, 
2492.00, 
2493.00, 
2494.00, 
2495.00, 
2496.00, 
2497.00, 
2498.00, 
2499.00, 
2500.00, 
2501.00, 
2502.00, 
2503.00, 
2504.00, 
2505.00, 
2506.00, 
2507.00, 
2508.00, 
2509.00, 
2510.00, 
2511.00, 
2512.00, 
2513.00, 
2514.00, 
2515.00, 
2516.00, 
2517.00, 
2518.00, 
2519.00, 
2520.00, 
2521.00, 
2522.00, 
2523.00, 
2524.00, 
2525.00, 
2526.00, 
2527.00, 
2528.00, 
2529.00, 
2530.00, 
2531.00, 
2532.00, 
2533.00, 
2534.00, 
2535.00, 
2536.00, 
2537.00, 
2538.00, 
2539.00, 
2540.00, 
2541.00, 
2542.00, 
2543.00, 
2544.00, 
2545.00, 
2546.00, 
2547.00, 
2548.00, 
2549.00, 
2550.00, 
2551.00, 
2552.00, 
2553.00, 
2554.00, 
2555.00, 
2556.00, 
2557.00, 
2558.00, 
2559.00, 
2560.00, 
2561.00, 
2562.00, 
2563.00, 
2564.00, 
2565.00, 
2566.00, 
2567.00, 
2568.00, 
2569.00, 
2570.00, 
2571.00, 
2572.00, 
2573.00, 
2574.00, 
2575.00, 
2576.00, 
2577.00, 
2578.00, 
2579.00, 
2580.00, 
2581.00, 
2582.00, 
2583.00, 
2584.00, 
2585.00, 
2586.00, 
2587.00, 
2588.00, 
2589.00, 
2590.00, 
2591.00, 
2592.00, 
2593.00, 
2594.00, 
2595.00, 
2596.00, 
2597.00, 
2598.00, 
2599.00, 
2600.00, 
