"1cP4 - RawData"
"Wavelength nm.","T%"
200.00,-0.002
201.00,0.003
202.00,0.005
203.00,-0.002
204.00,0.003
205.00,0.001
206.00,0.002
207.00,0.000
208.00,0.005
209.00,0.001
210.00,0.003
211.00,0.001
212.00,0.002
213.00,-0.001
214.00,0.001
215.00,0.001
216.00,-0.002
217.00,0.000
218.00,0.000
219.00,0.002
220.00,0.002
221.00,0.001
222.00,-0.000
223.00,0.003
224.00,0.001
225.00,0.001
226.00,0.000
227.00,-0.000
228.00,0.002
229.00,-0.000
230.00,0.000
231.00,-0.000
232.00,0.001
233.00,0.001
234.00,-0.003
235.00,-0.000
236.00,0.001
237.00,-0.000
238.00,0.000
239.00,0.002
240.00,0.000
241.00,0.001
242.00,0.000
243.00,0.001
244.00,-0.001
245.00,0.001
246.00,0.000
247.00,0.000
248.00,-0.001
249.00,-0.001
250.00,0.002
251.00,0.002
252.00,-0.002
253.00,-0.000
254.00,0.000
255.00,-0.000
256.00,0.002
257.00,0.002
258.00,0.002
259.00,-0.001
260.00,0.004
261.00,-0.001
262.00,0.002
263.00,0.001
264.00,-0.001
265.00,-0.002
266.00,0.001
267.00,-0.000
268.00,0.003
269.00,-0.000
270.00,-0.001
271.00,0.000
272.00,-0.001
273.00,0.001
274.00,-0.000
275.00,-0.000
276.00,0.001
277.00,-0.001
278.00,0.002
279.00,0.002
280.00,0.002
281.00,-0.001
282.00,-0.000
283.00,0.001
284.00,0.002
285.00,0.001
286.00,0.001
287.00,-0.001
288.00,-0.000
289.00,-0.001
290.00,-0.001
291.00,0.001
292.00,0.001
293.00,-0.001
294.00,0.001
295.00,-0.000
296.00,-0.001
297.00,-0.000
298.00,0.001
299.00,0.000
300.00,0.001
301.00,-0.001
302.00,0.001
303.00,0.000
304.00,-0.001
305.00,0.003
306.00,0.003
307.00,0.001
308.00,0.008
309.00,0.013
310.00,0.018
311.00,0.027
312.00,0.042
313.00,0.068
314.00,0.101
315.00,0.147
316.00,0.213
317.00,0.299
318.00,0.403
319.00,0.546
320.00,0.727
321.00,0.941
322.00,1.200
323.00,1.508
324.00,1.892
325.00,2.266
326.00,2.669
327.00,3.197
328.00,3.635
329.00,4.299
330.00,4.909
331.00,5.549
332.00,6.212
333.00,6.973
334.00,7.680
335.00,8.457
336.00,9.203
337.00,9.993
338.00,10.767
339.00,11.465
340.00,12.239
341.00,12.986
342.00,13.663
343.00,14.358
344.00,14.989
345.00,15.706
346.00,16.283
347.00,16.836
348.00,17.397
349.00,17.894
350.00,18.423
351.00,18.857
352.00,19.264
353.00,19.695
354.00,19.993
355.00,20.471
356.00,20.776
357.00,21.035
358.00,21.358
359.00,21.673
360.00,21.970
361.00,22.100
362.00,22.357
363.00,22.559
364.00,22.679
365.00,22.806
366.00,22.975
367.00,23.019
368.00,23.130
369.00,23.189
370.00,23.268
371.00,23.271
372.00,23.206
373.00,23.242
374.00,23.257
375.00,23.236
376.00,23.108
377.00,23.050
378.00,22.970
379.00,22.899
380.00,22.853
381.00,22.860
382.00,22.863
383.00,22.896
384.00,22.936
385.00,23.023
386.00,23.048
387.00,23.165
388.00,23.273
389.00,23.290
390.00,23.350
391.00,23.390
392.00,23.444
393.00,23.462
394.00,23.511
395.00,23.539
396.00,23.532
397.00,23.562
398.00,23.584
399.00,23.609
400.00,23.551
401.00,23.609
402.00,23.587
403.00,23.614
404.00,23.597
405.00,23.633
406.00,23.561
407.00,23.490
408.00,23.526
409.00,23.452
410.00,23.416
411.00,23.427
412.00,23.407
413.00,23.418
414.00,23.383
415.00,23.388
416.00,23.429
417.00,23.397
418.00,23.424
419.00,23.508
420.00,23.547
421.00,23.543
422.00,23.576
423.00,23.652
424.00,23.682
425.00,23.683
426.00,23.740
427.00,23.804
428.00,23.827
429.00,23.865
430.00,23.908
431.00,23.988
432.00,23.997
433.00,24.052
434.00,24.138
435.00,24.179
436.00,24.264
437.00,24.283
438.00,24.384
439.00,24.438
440.00,24.483
441.00,24.605
442.00,24.659
443.00,24.757
444.00,24.830
445.00,24.935
446.00,25.073
447.00,25.121
448.00,25.246
449.00,25.368
450.00,25.481
451.00,25.539
452.00,25.631
453.00,25.804
454.00,25.887
455.00,25.979
456.00,26.097
457.00,26.213
458.00,26.303
459.00,26.471
460.00,26.598
461.00,26.707
462.00,26.840
463.00,27.023
464.00,27.137
465.00,27.198
466.00,27.416
467.00,27.575
468.00,27.470
469.00,27.721
470.00,27.836
471.00,27.913
472.00,28.037
473.00,28.126
474.00,28.263
475.00,28.369
476.00,28.442
477.00,28.606
478.00,28.697
479.00,28.880
480.00,29.025
481.00,29.135
482.00,29.284
483.00,29.434
484.00,29.601
485.00,29.739
486.00,29.869
487.00,30.047
488.00,30.185
489.00,30.330
490.00,30.481
491.00,30.603
492.00,30.825
493.00,30.972
494.00,30.904
495.00,31.135
496.00,31.279
497.00,31.392
498.00,31.573
499.00,31.746
500.00,31.779
501.00,31.881
502.00,32.040
503.00,32.157
504.00,32.185
505.00,32.319
506.00,32.481
507.00,32.543
508.00,32.682
509.00,32.836
510.00,32.968
511.00,33.023
512.00,33.200
513.00,33.308
514.00,33.457
515.00,33.561
516.00,33.648
517.00,33.732
518.00,33.908
519.00,33.975
520.00,34.016
521.00,34.115
522.00,34.191
523.00,34.227
524.00,34.352
525.00,34.464
526.00,34.553
527.00,34.615
528.00,34.667
529.00,34.842
530.00,34.994
531.00,35.094
532.00,35.129
533.00,35.248
534.00,35.369
535.00,35.412
536.00,35.502
537.00,35.570
538.00,35.649
539.00,35.706
540.00,35.804
541.00,35.882
542.00,35.874
543.00,35.927
544.00,36.041
545.00,36.075
546.00,36.102
547.00,36.261
548.00,36.318
549.00,36.382
550.00,36.465
551.00,36.569
552.00,36.662
553.00,36.674
554.00,36.724
555.00,36.780
556.00,36.807
557.00,36.893
558.00,36.919
559.00,37.030
560.00,37.090
561.00,37.133
562.00,37.213
563.00,37.242
564.00,37.268
565.00,37.272
566.00,37.341
567.00,37.354
568.00,37.428
569.00,37.481
570.00,37.472
571.00,37.529
572.00,37.551
573.00,37.544
574.00,37.607
575.00,37.563
576.00,37.575
577.00,37.664
578.00,37.778
579.00,37.803
580.00,37.836
581.00,37.999
582.00,38.045
583.00,38.079
584.00,38.170
585.00,38.197
586.00,38.229
587.00,38.328
588.00,38.328
589.00,38.258
590.00,38.376
591.00,38.446
592.00,38.241
593.00,38.394
594.00,38.596
595.00,38.683
596.00,38.629
597.00,38.677
598.00,38.764
599.00,38.730
600.00,38.837
601.00,38.854
602.00,38.846
603.00,38.905
604.00,38.955
605.00,38.999
606.00,39.002
607.00,39.003
608.00,39.204
609.00,39.340
610.00,39.109
611.00,39.263
612.00,39.338
613.00,39.319
614.00,39.393
615.00,39.475
616.00,39.530
617.00,39.535
618.00,39.526
619.00,39.622
620.00,39.659
621.00,39.729
622.00,39.751
623.00,39.821
624.00,39.960
625.00,39.990
626.00,40.023
627.00,40.080
628.00,40.096
629.00,40.136
630.00,40.160
631.00,40.288
632.00,40.336
633.00,40.426
634.00,40.583
635.00,40.643
636.00,40.645
637.00,40.670
638.00,40.736
639.00,40.855
640.00,40.892
641.00,40.968
642.00,40.971
643.00,41.075
644.00,41.165
645.00,41.220
646.00,41.379
647.00,41.466
648.00,41.462
649.00,41.499
650.00,41.481
651.00,41.655
652.00,41.658
653.00,41.724
654.00,41.819
655.00,41.994
656.00,42.269
657.00,42.238
658.00,42.168
659.00,42.304
660.00,42.372
661.00,42.477
662.00,42.538
663.00,42.569
664.00,42.831
665.00,42.985
666.00,42.914
667.00,43.029
668.00,42.896
669.00,43.203
670.00,43.478
671.00,43.319
672.00,43.422
673.00,43.560
674.00,43.562
675.00,43.657
676.00,43.878
677.00,43.953
678.00,43.667
679.00,44.004
680.00,44.025
681.00,44.309
682.00,44.258
683.00,44.156
684.00,44.212
685.00,44.475
686.00,44.488
687.00,44.461
688.00,44.663
689.00,44.660
690.00,45.028
691.00,45.232
692.00,44.925
693.00,44.900
694.00,45.086
695.00,45.326
696.00,45.352
697.00,45.347
698.00,45.376
699.00,45.647
700.00,45.773
701.00,45.733
702.00,45.838
703.00,45.982
704.00,46.079
705.00,45.922
706.00,46.074
707.00,46.157
708.00,46.019
709.00,46.456
710.00,46.784
711.00,46.294
712.00,46.338
713.00,46.522
714.00,46.657
715.00,46.573
716.00,46.613
717.00,46.809
718.00,46.920
719.00,46.926
720.00,46.871
721.00,51.415
722.00,51.395
723.00,51.439
724.00,51.438
725.00,51.417
726.00,51.415
727.00,51.450
728.00,51.475
729.00,51.482
730.00,51.547
731.00,51.559
732.00,51.513
733.00,51.656
734.00,51.611
735.00,51.693
736.00,51.688
737.00,51.729
738.00,51.763
739.00,51.734
740.00,51.781
741.00,51.753
742.00,51.862
743.00,51.813
744.00,51.779
745.00,51.907
746.00,51.831
747.00,51.863
748.00,51.810
749.00,51.844
750.00,51.814
751.00,51.749
752.00,51.754
753.00,51.848
754.00,51.850
755.00,51.856
756.00,51.903
757.00,51.817
758.00,51.891
759.00,51.816
760.00,51.808
761.00,51.868
762.00,51.856
763.00,51.932
764.00,51.899
765.00,51.908
766.00,51.916
767.00,51.947
768.00,51.897
769.00,51.886
770.00,51.970
771.00,51.911
772.00,51.913
773.00,51.929
774.00,51.963
775.00,51.894
776.00,51.915
777.00,51.944
778.00,51.886
779.00,52.045
780.00,51.884
781.00,51.962
782.00,51.939
783.00,51.945
784.00,51.914
785.00,51.854
786.00,51.948
787.00,51.859
788.00,51.864
789.00,51.863
790.00,51.910
791.00,51.870
792.00,51.787
793.00,51.857
794.00,51.746
795.00,51.727
796.00,51.799
797.00,51.716
798.00,51.730
799.00,51.723
800.00,51.602
801.00,51.653
802.00,51.696
803.00,51.674
804.00,51.607
805.00,51.674
806.00,51.579
807.00,51.600
808.00,51.610
809.00,51.610
810.00,51.579
811.00,51.521
812.00,51.626
813.00,51.462
814.00,51.479
815.00,51.373
816.00,51.546
817.00,51.463
818.00,51.415
819.00,51.359
820.00,51.359
821.00,51.402
822.00,51.314
823.00,51.379
824.00,51.280
825.00,51.260
826.00,51.289
827.00,51.316
828.00,51.268
829.00,51.276
830.00,51.286
831.00,53.514
832.00,53.503
833.00,53.467
834.00,53.493
835.00,53.399
836.00,53.467
837.00,53.366
838.00,53.402
839.00,53.369
840.00,53.360
841.00,53.318
842.00,53.297
843.00,53.293
844.00,53.380
845.00,53.230
846.00,53.230
847.00,53.213
848.00,53.198
849.00,53.136
850.00,53.126
851.00,53.043
852.00,53.100
853.00,53.034
854.00,53.015
855.00,52.981
856.00,52.960
857.00,52.936
858.00,52.913
859.00,52.870
860.00,52.862
861.00,52.857
862.00,52.824
863.00,52.827
864.00,52.775
865.00,52.828
866.00,52.677
867.00,52.735
868.00,52.768
869.00,52.737
870.00,52.732
871.00,52.731
872.00,52.714
873.00,52.687
874.00,52.722
875.00,52.667
876.00,52.683
877.00,52.627
878.00,52.654
879.00,52.629
880.00,52.588
881.00,52.550
882.00,52.615
883.00,52.540
884.00,52.527
885.00,52.514
886.00,52.477
887.00,52.399
888.00,52.461
889.00,52.425
890.00,52.406
891.00,52.386
892.00,52.372
893.00,52.355
894.00,52.346
895.00,52.316
896.00,52.307
897.00,52.282
898.00,52.253
899.00,52.238
900.00,52.253
901.00,52.231
902.00,52.223
903.00,52.187
904.00,52.166
905.00,52.164
906.00,52.144
907.00,52.092
908.00,52.059
909.00,52.085
910.00,52.042
911.00,52.039
912.00,52.018
913.00,51.976
914.00,51.956
915.00,51.949
916.00,51.916
917.00,51.910
918.00,51.901
919.00,51.854
920.00,51.863
921.00,51.859
922.00,51.811
923.00,51.816
924.00,51.768
925.00,51.769
926.00,51.752
927.00,51.744
928.00,51.721
929.00,51.695
930.00,51.658
931.00,51.670
932.00,51.566
933.00,51.629
934.00,51.619
935.00,51.584
936.00,51.541
937.00,51.554
938.00,51.533
939.00,51.532
940.00,51.492
941.00,51.471
942.00,51.471
943.00,51.456
944.00,51.395
945.00,51.426
946.00,51.394
947.00,51.334
948.00,51.340
949.00,51.326
950.00,51.301
951.00,51.254
952.00,51.271
953.00,51.231
954.00,51.207
955.00,51.167
956.00,51.160
957.00,51.089
958.00,51.132
959.00,51.066
960.00,51.060
961.00,51.059
962.00,51.061
963.00,51.011
964.00,51.026
965.00,51.026
966.00,51.004
967.00,50.998
968.00,50.972
969.00,50.999
970.00,50.984
971.00,50.971
972.00,50.909
973.00,50.999
974.00,50.974
975.00,50.952
976.00,50.978
977.00,50.934
978.00,50.994
979.00,50.942
980.00,50.962
981.00,50.968
982.00,50.924
983.00,50.934
984.00,50.922
985.00,50.943
986.00,50.901
987.00,50.929
988.00,50.924
989.00,50.885
990.00,50.880
991.00,50.861
992.00,50.881
993.00,50.828
994.00,50.831
995.00,50.822
996.00,50.815
997.00,50.804
998.00,50.780
999.00,50.783
1000.00,50.745
1001.00,50.742
1002.00,50.736
1003.00,50.753
1004.00,50.716
1005.00,50.684
1006.00,50.712
1007.00,50.683
1008.00,50.672
1009.00,50.648
1010.00,50.634
1011.00,50.647
1012.00,50.616
1013.00,50.617
1014.00,50.578
1015.00,50.574
1016.00,50.550
1017.00,50.541
1018.00,50.524
1019.00,50.502
1020.00,50.495
1021.00,50.463
1022.00,50.484
1023.00,50.421
1024.00,50.422
1025.00,50.414
1026.00,50.392
1027.00,50.386
1028.00,50.399
1029.00,50.373
1030.00,50.346
1031.00,50.370
1032.00,50.306
1033.00,50.326
1034.00,50.301
1035.00,50.242
1036.00,50.236
1037.00,50.201
1038.00,50.196
1039.00,50.159
1040.00,50.146
1041.00,50.128
1042.00,50.132
1043.00,50.098
1044.00,50.146
1045.00,50.114
1046.00,50.098
1047.00,50.127
1048.00,50.142
1049.00,50.139
1050.00,50.133
1051.00,50.173
1052.00,50.171
1053.00,50.175
1054.00,50.162
1055.00,50.208
1056.00,50.202
1057.00,50.205
1058.00,50.205
1059.00,50.182
1060.00,50.206
1061.00,50.185
1062.00,50.157
1063.00,50.173
1064.00,50.166
1065.00,50.156
1066.00,50.145
1067.00,50.128
1068.00,50.160
1069.00,50.136
1070.00,50.109
1071.00,50.119
1072.00,50.138
1073.00,50.095
1074.00,50.103
1075.00,50.080
1076.00,50.085
1077.00,50.076
1078.00,50.048
1079.00,50.057
1080.00,50.066
1081.00,50.019
1082.00,50.019
1083.00,50.009
1084.00,49.992
1085.00,50.013
1086.00,50.018
1087.00,50.017
1088.00,50.014
1089.00,49.995
1090.00,49.994
1091.00,49.995
1092.00,49.985
1093.00,49.969
1094.00,49.940
1095.00,49.944
1096.00,49.909
1097.00,49.913
1098.00,49.901
1099.00,49.898
1100.00,49.893
1101.00,49.894
1102.00,49.886
1103.00,49.868
1104.00,49.874
1105.00,49.874
1106.00,49.861
1107.00,49.876
1108.00,49.856
1109.00,49.836
1110.00,49.839
1111.00,49.820
1112.00,49.789
1113.00,49.788
1114.00,49.765
1115.00,49.779
1116.00,49.769
1117.00,49.753
1118.00,49.766
1119.00,49.765
1120.00,49.744
1121.00,49.753
1122.00,49.726
1123.00,49.719
1124.00,49.727
1125.00,49.716
1126.00,49.708
1127.00,49.712
1128.00,49.677
1129.00,49.670
1130.00,49.665
1131.00,49.655
1132.00,49.685
1133.00,49.665
1134.00,49.612
1135.00,49.723
1136.00,49.636
1137.00,49.642
1138.00,49.659
1139.00,49.658
1140.00,49.670
1141.00,49.673
1142.00,49.631
1143.00,49.648
1144.00,49.613
1145.00,49.607
1146.00,49.609
1147.00,49.592
1148.00,49.596
1149.00,49.623
1150.00,49.603
1151.00,49.607
1152.00,49.629
1153.00,49.611
1154.00,49.621
1155.00,49.620
1156.00,49.571
1157.00,49.580
1158.00,49.571
1159.00,49.575
1160.00,49.571
1161.00,49.573
1162.00,49.575
1163.00,49.565
1164.00,49.564
1165.00,49.572
1166.00,49.566
1167.00,49.557
1168.00,49.599
1169.00,49.577
1170.00,49.600
1171.00,49.589
1172.00,49.567
1173.00,49.565
1174.00,49.577
1175.00,49.562
1176.00,49.571
1177.00,49.553
1178.00,49.545
1179.00,49.572
1180.00,49.549
1181.00,49.568
1182.00,49.573
1183.00,49.558
1184.00,49.556
1185.00,49.565
1186.00,49.539
1187.00,49.563
1188.00,49.563
1189.00,49.551
1190.00,49.544
1191.00,49.532
1192.00,49.570
1193.00,49.554
1194.00,49.562
1195.00,49.538
1196.00,49.571
1197.00,49.574
1198.00,49.574
1199.00,49.559
1200.00,49.556
1201.00,49.577
1202.00,49.558
1203.00,49.578
1204.00,49.564
1205.00,49.582
1206.00,49.555
1207.00,49.558
1208.00,49.541
1209.00,49.560
1210.00,49.544
1211.00,49.544
1212.00,49.591
1213.00,49.540
1214.00,49.592
1215.00,49.567
1216.00,49.565
1217.00,49.580
1218.00,49.557
1219.00,49.566
1220.00,49.560
1221.00,49.580
1222.00,49.561
1223.00,49.589
1224.00,49.573
1225.00,49.556
1226.00,49.573
1227.00,49.558
1228.00,49.579
1229.00,49.602
1230.00,49.605
1231.00,49.609
1232.00,49.644
1233.00,49.636
1234.00,49.640
1235.00,49.628
1236.00,49.632
1237.00,49.635
1238.00,49.641
1239.00,49.648
1240.00,49.634
1241.00,49.627
1242.00,49.641
1243.00,49.654
1244.00,49.622
1245.00,49.665
1246.00,49.659
1247.00,49.663
1248.00,49.654
1249.00,49.672
1250.00,49.687
1251.00,49.659
1252.00,49.672
1253.00,49.668
1254.00,49.687
1255.00,49.667
1256.00,49.659
1257.00,49.666
1258.00,49.693
1259.00,49.722
1260.00,49.719
1261.00,49.735
1262.00,49.773
1263.00,49.728
1264.00,49.740
1265.00,49.726
1266.00,49.721
1267.00,49.752
1268.00,49.747
1269.00,49.749
1270.00,49.767
1271.00,49.764
1272.00,49.782
1273.00,49.802
1274.00,49.783
1275.00,49.812
1276.00,49.804
1277.00,49.796
1278.00,49.823
1279.00,49.803
1280.00,49.803
1281.00,49.822
1282.00,49.826
1283.00,49.832
1284.00,49.846
1285.00,49.820
1286.00,49.853
1287.00,49.844
1288.00,49.831
1289.00,49.833
1290.00,49.859
1291.00,49.862
1292.00,49.872
1293.00,49.875
1294.00,49.906
1295.00,49.913
1296.00,49.908
1297.00,49.941
1298.00,49.966
1299.00,49.930
1300.00,49.954
1301.00,49.943
1302.00,49.970
1303.00,49.975
1304.00,49.960
1305.00,49.994
1306.00,50.018
1307.00,49.985
1308.00,50.029
1309.00,50.035
1310.00,50.004
1311.00,50.020
1312.00,50.002
1313.00,50.033
1314.00,50.058
1315.00,50.057
1316.00,50.058
1317.00,50.089
1318.00,50.078
1319.00,50.093
1320.00,50.093
1321.00,50.249
1322.00,50.264
1323.00,50.247
1324.00,50.232
1325.00,50.240
1326.00,50.265
1327.00,50.248
1328.00,50.250
1329.00,50.223
1330.00,50.233
1331.00,50.259
1332.00,50.244
1333.00,50.233
1334.00,50.284
1335.00,50.309
1336.00,50.348
1337.00,50.373
1338.00,50.429
1339.00,50.480
1340.00,50.532
1341.00,50.608
1342.00,50.668
1343.00,50.694
1344.00,50.758
1345.00,50.808
1346.00,50.833
1347.00,50.882
1348.00,50.891
1349.00,50.896
1350.00,50.907
1351.00,50.945
1352.00,50.989
1353.00,50.628
1354.00,50.971
1355.00,50.977
1356.00,51.006
1357.00,50.977
1358.00,51.043
1359.00,51.038
1360.00,51.031
1361.00,51.002
1362.00,51.066
1363.00,51.097
1364.00,51.108
1365.00,51.019
1366.00,51.134
1367.00,50.981
1368.00,50.916
1369.00,51.085
1370.00,50.968
1371.00,50.981
1372.00,50.992
1373.00,51.021
1374.00,51.042
1375.00,51.029
1376.00,51.005
1377.00,51.032
1378.00,51.068
1379.00,51.053
1380.00,51.073
1381.00,51.043
1382.00,51.042
1383.00,51.074
1384.00,50.986
1385.00,51.042
1386.00,51.038
1387.00,50.991
1388.00,50.999
1389.00,51.057
1390.00,50.985
1391.00,51.015
1392.00,51.033
1393.00,51.213
1394.00,51.102
1395.00,51.053
1396.00,50.899
1397.00,51.033
1398.00,51.020
1399.00,51.079
1400.00,51.025
1401.00,50.981
1402.00,51.072
1403.00,51.036
1404.00,51.032
1405.00,51.091
1406.00,51.084
1407.00,51.087
1408.00,51.096
1409.00,51.076
1410.00,51.132
1411.00,51.110
1412.00,51.181
1413.00,51.103
1414.00,51.094
1415.00,51.127
1416.00,51.178
1417.00,51.202
1418.00,51.180
1419.00,51.191
1420.00,51.207
1421.00,51.279
1422.00,51.267
1423.00,51.259
1424.00,51.274
1425.00,51.301
1426.00,51.304
1427.00,51.327
1428.00,51.300
1429.00,51.345
1430.00,51.359
1431.00,51.360
1432.00,51.405
1433.00,51.410
1434.00,51.385
1435.00,51.468
1436.00,51.483
1437.00,51.466
1438.00,51.491
1439.00,51.524
1440.00,51.539
1441.00,51.544
1442.00,51.552
1443.00,51.609
1444.00,51.720
1445.00,51.645
1446.00,51.626
1447.00,51.658
1448.00,51.696
1449.00,51.707
1450.00,51.699
1451.00,51.723
1452.00,51.746
1453.00,51.751
1454.00,51.772
1455.00,51.794
1456.00,51.803
1457.00,51.827
1458.00,51.851
1459.00,51.869
1460.00,51.901
1461.00,51.895
1462.00,51.939
1463.00,51.933
1464.00,51.947
1465.00,51.980
1466.00,51.969
1467.00,51.976
1468.00,52.049
1469.00,52.020
1470.00,52.057
1471.00,52.075
1472.00,52.084
1473.00,52.104
1474.00,52.119
1475.00,52.134
1476.00,52.164
1477.00,52.135
1478.00,52.143
1479.00,52.185
1480.00,52.192
1481.00,52.191
1482.00,52.246
1483.00,52.255
1484.00,52.284
1485.00,52.274
1486.00,52.272
1487.00,52.310
1488.00,52.330
1489.00,52.316
1490.00,52.359
1491.00,52.340
1492.00,52.365
1493.00,52.352
1494.00,52.376
1495.00,52.382
1496.00,52.408
1497.00,52.392
1498.00,52.429
1499.00,52.441
1500.00,52.436
1501.00, 
1502.00, 
1503.00, 
1504.00, 
1505.00, 
1506.00, 
1507.00, 
1508.00, 
1509.00, 
1510.00, 
1511.00, 
1512.00, 
1513.00, 
1514.00, 
1515.00, 
1516.00, 
1517.00, 
1518.00, 
1519.00, 
1520.00, 
1521.00, 
1522.00, 
1523.00, 
1524.00, 
1525.00, 
1526.00, 
1527.00, 
1528.00, 
1529.00, 
1530.00, 
1531.00, 
1532.00, 
1533.00, 
1534.00, 
1535.00, 
1536.00, 
1537.00, 
1538.00, 
1539.00, 
1540.00, 
1541.00, 
1542.00, 
1543.00, 
1544.00, 
1545.00, 
1546.00, 
1547.00, 
1548.00, 
1549.00, 
1550.00, 
1551.00, 
1552.00, 
1553.00, 
1554.00, 
1555.00, 
1556.00, 
1557.00, 
1558.00, 
1559.00, 
1560.00, 
1561.00, 
1562.00, 
1563.00, 
1564.00, 
1565.00, 
1566.00, 
1567.00, 
1568.00, 
1569.00, 
1570.00, 
1571.00, 
1572.00, 
1573.00, 
1574.00, 
1575.00, 
1576.00, 
1577.00, 
1578.00, 
1579.00, 
1580.00, 
1581.00, 
1582.00, 
1583.00, 
1584.00, 
1585.00, 
1586.00, 
1587.00, 
1588.00, 
1589.00, 
1590.00, 
1591.00, 
1592.00, 
1593.00, 
1594.00, 
1595.00, 
1596.00, 
1597.00, 
1598.00, 
1599.00, 
1600.00, 
1601.00, 
1602.00, 
1603.00, 
1604.00, 
1605.00, 
1606.00, 
1607.00, 
1608.00, 
1609.00, 
1610.00, 
1611.00, 
1612.00, 
1613.00, 
1614.00, 
1615.00, 
1616.00, 
1617.00, 
1618.00, 
1619.00, 
1620.00, 
1621.00, 
1622.00, 
1623.00, 
1624.00, 
1625.00, 
1626.00, 
1627.00, 
1628.00, 
1629.00, 
1630.00, 
1631.00, 
1632.00, 
1633.00, 
1634.00, 
1635.00, 
1636.00, 
1637.00, 
1638.00, 
1639.00, 
1640.00, 
1641.00, 
1642.00, 
1643.00, 
1644.00, 
1645.00, 
1646.00, 
1647.00, 
1648.00, 
1649.00, 
1650.00, 
1651.00, 
1652.00, 
1653.00, 
1654.00, 
1655.00, 
1656.00, 
1657.00, 
1658.00, 
1659.00, 
1660.00, 
1661.00, 
1662.00, 
1663.00, 
1664.00, 
1665.00, 
1666.00, 
1667.00, 
1668.00, 
1669.00, 
1670.00, 
1671.00, 
1672.00, 
1673.00, 
1674.00, 
1675.00, 
1676.00, 
1677.00, 
1678.00, 
1679.00, 
1680.00, 
1681.00, 
1682.00, 
1683.00, 
1684.00, 
1685.00, 
1686.00, 
1687.00, 
1688.00, 
1689.00, 
1690.00, 
1691.00, 
1692.00, 
1693.00, 
1694.00, 
1695.00, 
1696.00, 
1697.00, 
1698.00, 
1699.00, 
1700.00, 
1701.00, 
1702.00, 
1703.00, 
1704.00, 
1705.00, 
1706.00, 
1707.00, 
1708.00, 
1709.00, 
1710.00, 
1711.00, 
1712.00, 
1713.00, 
1714.00, 
1715.00, 
1716.00, 
1717.00, 
1718.00, 
1719.00, 
1720.00, 
1721.00, 
1722.00, 
1723.00, 
1724.00, 
1725.00, 
1726.00, 
1727.00, 
1728.00, 
1729.00, 
1730.00, 
1731.00, 
1732.00, 
1733.00, 
1734.00, 
1735.00, 
1736.00, 
1737.00, 
1738.00, 
1739.00, 
1740.00, 
1741.00, 
1742.00, 
1743.00, 
1744.00, 
1745.00, 
1746.00, 
1747.00, 
1748.00, 
1749.00, 
1750.00, 
1751.00, 
1752.00, 
1753.00, 
1754.00, 
1755.00, 
1756.00, 
1757.00, 
1758.00, 
1759.00, 
1760.00, 
1761.00, 
1762.00, 
1763.00, 
1764.00, 
1765.00, 
1766.00, 
1767.00, 
1768.00, 
1769.00, 
1770.00, 
1771.00, 
1772.00, 
1773.00, 
1774.00, 
1775.00, 
1776.00, 
1777.00, 
1778.00, 
1779.00, 
1780.00, 
1781.00, 
1782.00, 
1783.00, 
1784.00, 
1785.00, 
1786.00, 
1787.00, 
1788.00, 
1789.00, 
1790.00, 
1791.00, 
1792.00, 
1793.00, 
1794.00, 
1795.00, 
1796.00, 
1797.00, 
1798.00, 
1799.00, 
1800.00, 
1801.00, 
1802.00, 
1803.00, 
1804.00, 
1805.00, 
1806.00, 
1807.00, 
1808.00, 
1809.00, 
1810.00, 
1811.00, 
1812.00, 
1813.00, 
1814.00, 
1815.00, 
1816.00, 
1817.00, 
1818.00, 
1819.00, 
1820.00, 
1821.00, 
1822.00, 
1823.00, 
1824.00, 
1825.00, 
1826.00, 
1827.00, 
1828.00, 
1829.00, 
1830.00, 
1831.00, 
1832.00, 
1833.00, 
1834.00, 
1835.00, 
1836.00, 
1837.00, 
1838.00, 
1839.00, 
1840.00, 
1841.00, 
1842.00, 
1843.00, 
1844.00, 
1845.00, 
1846.00, 
1847.00, 
1848.00, 
1849.00, 
1850.00, 
1851.00, 
1852.00, 
1853.00, 
1854.00, 
1855.00, 
1856.00, 
1857.00, 
1858.00, 
1859.00, 
1860.00, 
1861.00, 
1862.00, 
1863.00, 
1864.00, 
1865.00, 
1866.00, 
1867.00, 
1868.00, 
1869.00, 
1870.00, 
1871.00, 
1872.00, 
1873.00, 
1874.00, 
1875.00, 
1876.00, 
1877.00, 
1878.00, 
1879.00, 
1880.00, 
1881.00, 
1882.00, 
1883.00, 
1884.00, 
1885.00, 
1886.00, 
1887.00, 
1888.00, 
1889.00, 
1890.00, 
1891.00, 
1892.00, 
1893.00, 
1894.00, 
1895.00, 
1896.00, 
1897.00, 
1898.00, 
1899.00, 
1900.00, 
1901.00, 
1902.00, 
1903.00, 
1904.00, 
1905.00, 
1906.00, 
1907.00, 
1908.00, 
1909.00, 
1910.00, 
1911.00, 
1912.00, 
1913.00, 
1914.00, 
1915.00, 
1916.00, 
1917.00, 
1918.00, 
1919.00, 
1920.00, 
1921.00, 
1922.00, 
1923.00, 
1924.00, 
1925.00, 
1926.00, 
1927.00, 
1928.00, 
1929.00, 
1930.00, 
1931.00, 
1932.00, 
1933.00, 
1934.00, 
1935.00, 
1936.00, 
1937.00, 
1938.00, 
1939.00, 
1940.00, 
1941.00, 
1942.00, 
1943.00, 
1944.00, 
1945.00, 
1946.00, 
1947.00, 
1948.00, 
1949.00, 
1950.00, 
1951.00, 
1952.00, 
1953.00, 
1954.00, 
1955.00, 
1956.00, 
1957.00, 
1958.00, 
1959.00, 
1960.00, 
1961.00, 
1962.00, 
1963.00, 
1964.00, 
1965.00, 
1966.00, 
1967.00, 
1968.00, 
1969.00, 
1970.00, 
1971.00, 
1972.00, 
1973.00, 
1974.00, 
1975.00, 
1976.00, 
1977.00, 
1978.00, 
1979.00, 
1980.00, 
1981.00, 
1982.00, 
1983.00, 
1984.00, 
1985.00, 
1986.00, 
1987.00, 
1988.00, 
1989.00, 
1990.00, 
1991.00, 
1992.00, 
1993.00, 
1994.00, 
1995.00, 
1996.00, 
1997.00, 
1998.00, 
1999.00, 
2000.00, 
2001.00, 
2002.00, 
2003.00, 
2004.00, 
2005.00, 
2006.00, 
2007.00, 
2008.00, 
2009.00, 
2010.00, 
2011.00, 
2012.00, 
2013.00, 
2014.00, 
2015.00, 
2016.00, 
2017.00, 
2018.00, 
2019.00, 
2020.00, 
2021.00, 
2022.00, 
2023.00, 
2024.00, 
2025.00, 
2026.00, 
2027.00, 
2028.00, 
2029.00, 
2030.00, 
2031.00, 
2032.00, 
2033.00, 
2034.00, 
2035.00, 
2036.00, 
2037.00, 
2038.00, 
2039.00, 
2040.00, 
2041.00, 
2042.00, 
2043.00, 
2044.00, 
2045.00, 
2046.00, 
2047.00, 
2048.00, 
2049.00, 
2050.00, 
2051.00, 
2052.00, 
2053.00, 
2054.00, 
2055.00, 
2056.00, 
2057.00, 
2058.00, 
2059.00, 
2060.00, 
2061.00, 
2062.00, 
2063.00, 
2064.00, 
2065.00, 
2066.00, 
2067.00, 
2068.00, 
2069.00, 
2070.00, 
2071.00, 
2072.00, 
2073.00, 
2074.00, 
2075.00, 
2076.00, 
2077.00, 
2078.00, 
2079.00, 
2080.00, 
2081.00, 
2082.00, 
2083.00, 
2084.00, 
2085.00, 
2086.00, 
2087.00, 
2088.00, 
2089.00, 
2090.00, 
2091.00, 
2092.00, 
2093.00, 
2094.00, 
2095.00, 
2096.00, 
2097.00, 
2098.00, 
2099.00, 
2100.00, 
2101.00, 
2102.00, 
2103.00, 
2104.00, 
2105.00, 
2106.00, 
2107.00, 
2108.00, 
2109.00, 
2110.00, 
2111.00, 
2112.00, 
2113.00, 
2114.00, 
2115.00, 
2116.00, 
2117.00, 
2118.00, 
2119.00, 
2120.00, 
2121.00, 
2122.00, 
2123.00, 
2124.00, 
2125.00, 
2126.00, 
2127.00, 
2128.00, 
2129.00, 
2130.00, 
2131.00, 
2132.00, 
2133.00, 
2134.00, 
2135.00, 
2136.00, 
2137.00, 
2138.00, 
2139.00, 
2140.00, 
2141.00, 
2142.00, 
2143.00, 
2144.00, 
2145.00, 
2146.00, 
2147.00, 
2148.00, 
2149.00, 
2150.00, 
2151.00, 
2152.00, 
2153.00, 
2154.00, 
2155.00, 
2156.00, 
2157.00, 
2158.00, 
2159.00, 
2160.00, 
2161.00, 
2162.00, 
2163.00, 
2164.00, 
2165.00, 
2166.00, 
2167.00, 
2168.00, 
2169.00, 
2170.00, 
2171.00, 
2172.00, 
2173.00, 
2174.00, 
2175.00, 
2176.00, 
2177.00, 
2178.00, 
2179.00, 
2180.00, 
2181.00, 
2182.00, 
2183.00, 
2184.00, 
2185.00, 
2186.00, 
2187.00, 
2188.00, 
2189.00, 
2190.00, 
2191.00, 
2192.00, 
2193.00, 
2194.00, 
2195.00, 
2196.00, 
2197.00, 
2198.00, 
2199.00, 
2200.00, 
2201.00, 
2202.00, 
2203.00, 
2204.00, 
2205.00, 
2206.00, 
2207.00, 
2208.00, 
2209.00, 
2210.00, 
2211.00, 
2212.00, 
2213.00, 
2214.00, 
2215.00, 
2216.00, 
2217.00, 
2218.00, 
2219.00, 
2220.00, 
2221.00, 
2222.00, 
2223.00, 
2224.00, 
2225.00, 
2226.00, 
2227.00, 
2228.00, 
2229.00, 
2230.00, 
2231.00, 
2232.00, 
2233.00, 
2234.00, 
2235.00, 
2236.00, 
2237.00, 
2238.00, 
2239.00, 
2240.00, 
2241.00, 
2242.00, 
2243.00, 
2244.00, 
2245.00, 
2246.00, 
2247.00, 
2248.00, 
2249.00, 
2250.00, 
2251.00, 
2252.00, 
2253.00, 
2254.00, 
2255.00, 
2256.00, 
2257.00, 
2258.00, 
2259.00, 
2260.00, 
2261.00, 
2262.00, 
2263.00, 
2264.00, 
2265.00, 
2266.00, 
2267.00, 
2268.00, 
2269.00, 
2270.00, 
2271.00, 
2272.00, 
2273.00, 
2274.00, 
2275.00, 
2276.00, 
2277.00, 
2278.00, 
2279.00, 
2280.00, 
2281.00, 
2282.00, 
2283.00, 
2284.00, 
2285.00, 
2286.00, 
2287.00, 
2288.00, 
2289.00, 
2290.00, 
2291.00, 
2292.00, 
2293.00, 
2294.00, 
2295.00, 
2296.00, 
2297.00, 
2298.00, 
2299.00, 
2300.00, 
2301.00, 
2302.00, 
2303.00, 
2304.00, 
2305.00, 
2306.00, 
2307.00, 
2308.00, 
2309.00, 
2310.00, 
2311.00, 
2312.00, 
2313.00, 
2314.00, 
2315.00, 
2316.00, 
2317.00, 
2318.00, 
2319.00, 
2320.00, 
2321.00, 
2322.00, 
2323.00, 
2324.00, 
2325.00, 
2326.00, 
2327.00, 
2328.00, 
2329.00, 
2330.00, 
2331.00, 
2332.00, 
2333.00, 
2334.00, 
2335.00, 
2336.00, 
2337.00, 
2338.00, 
2339.00, 
2340.00, 
2341.00, 
2342.00, 
2343.00, 
2344.00, 
2345.00, 
2346.00, 
2347.00, 
2348.00, 
2349.00, 
2350.00, 
2351.00, 
2352.00, 
2353.00, 
2354.00, 
2355.00, 
2356.00, 
2357.00, 
2358.00, 
2359.00, 
2360.00, 
2361.00, 
2362.00, 
2363.00, 
2364.00, 
2365.00, 
2366.00, 
2367.00, 
2368.00, 
2369.00, 
2370.00, 
2371.00, 
2372.00, 
2373.00, 
2374.00, 
2375.00, 
2376.00, 
2377.00, 
2378.00, 
2379.00, 
2380.00, 
2381.00, 
2382.00, 
2383.00, 
2384.00, 
2385.00, 
2386.00, 
2387.00, 
2388.00, 
2389.00, 
2390.00, 
2391.00, 
2392.00, 
2393.00, 
2394.00, 
2395.00, 
2396.00, 
2397.00, 
2398.00, 
2399.00, 
2400.00, 
2401.00, 
2402.00, 
2403.00, 
2404.00, 
2405.00, 
2406.00, 
2407.00, 
2408.00, 
2409.00, 
2410.00, 
2411.00, 
2412.00, 
2413.00, 
2414.00, 
2415.00, 
2416.00, 
2417.00, 
2418.00, 
2419.00, 
2420.00, 
2421.00, 
2422.00, 
2423.00, 
2424.00, 
2425.00, 
2426.00, 
2427.00, 
2428.00, 
2429.00, 
2430.00, 
2431.00, 
2432.00, 
2433.00, 
2434.00, 
2435.00, 
2436.00, 
2437.00, 
2438.00, 
2439.00, 
2440.00, 
2441.00, 
2442.00, 
2443.00, 
2444.00, 
2445.00, 
2446.00, 
2447.00, 
2448.00, 
2449.00, 
2450.00, 
2451.00, 
2452.00, 
2453.00, 
2454.00, 
2455.00, 
2456.00, 
2457.00, 
2458.00, 
2459.00, 
2460.00, 
2461.00, 
2462.00, 
2463.00, 
2464.00, 
2465.00, 
2466.00, 
2467.00, 
2468.00, 
2469.00, 
2470.00, 
2471.00, 
2472.00, 
2473.00, 
2474.00, 
2475.00, 
2476.00, 
2477.00, 
2478.00, 
2479.00, 
2480.00, 
2481.00, 
2482.00, 
2483.00, 
2484.00, 
2485.00, 
2486.00, 
2487.00, 
2488.00, 
2489.00, 
2490.00, 
2491.00, 
2492.00, 
2493.00, 
2494.00, 
2495.00, 
2496.00, 
2497.00, 
2498.00, 
2499.00, 
2500.00, 
2501.00, 
2502.00, 
2503.00, 
2504.00, 
2505.00, 
2506.00, 
2507.00, 
2508.00, 
2509.00, 
2510.00, 
2511.00, 
2512.00, 
2513.00, 
2514.00, 
2515.00, 
2516.00, 
2517.00, 
2518.00, 
2519.00, 
2520.00, 
2521.00, 
2522.00, 
2523.00, 
2524.00, 
2525.00, 
2526.00, 
2527.00, 
2528.00, 
2529.00, 
2530.00, 
2531.00, 
2532.00, 
2533.00, 
2534.00, 
2535.00, 
2536.00, 
2537.00, 
2538.00, 
2539.00, 
2540.00, 
2541.00, 
2542.00, 
2543.00, 
2544.00, 
2545.00, 
2546.00, 
2547.00, 
2548.00, 
2549.00, 
2550.00, 
2551.00, 
2552.00, 
2553.00, 
2554.00, 
2555.00, 
2556.00, 
2557.00, 
2558.00, 
2559.00, 
2560.00, 
2561.00, 
2562.00, 
2563.00, 
2564.00, 
2565.00, 
2566.00, 
2567.00, 
2568.00, 
2569.00, 
2570.00, 
2571.00, 
2572.00, 
2573.00, 
2574.00, 
2575.00, 
2576.00, 
2577.00, 
2578.00, 
2579.00, 
2580.00, 
2581.00, 
2582.00, 
2583.00, 
2584.00, 
2585.00, 
2586.00, 
2587.00, 
2588.00, 
2589.00, 
2590.00, 
2591.00, 
2592.00, 
2593.00, 
2594.00, 
2595.00, 
2596.00, 
2597.00, 
2598.00, 
2599.00, 
2600.00, 
