"1cP5 - RawData"
"Wavelength nm.","T%"
200.00,0.002
201.00,0.001
202.00,0.005
203.00,-0.001
204.00,0.002
205.00,0.000
206.00,-0.002
207.00,0.001
208.00,0.001
209.00,-0.001
210.00,0.000
211.00,-0.000
212.00,0.000
213.00,-0.001
214.00,0.002
215.00,0.000
216.00,-0.002
217.00,0.002
218.00,0.003
219.00,0.003
220.00,-0.002
221.00,0.002
222.00,-0.000
223.00,-0.000
224.00,-0.004
225.00,0.001
226.00,-0.001
227.00,-0.001
228.00,0.001
229.00,0.001
230.00,0.002
231.00,0.001
232.00,0.001
233.00,0.000
234.00,-0.001
235.00,0.001
236.00,0.002
237.00,0.000
238.00,-0.001
239.00,0.002
240.00,-0.000
241.00,0.000
242.00,0.001
243.00,0.002
244.00,-0.001
245.00,-0.001
246.00,0.000
247.00,0.001
248.00,0.002
249.00,0.000
250.00,0.001
251.00,-0.002
252.00,0.001
253.00,-0.000
254.00,0.001
255.00,-0.001
256.00,-0.001
257.00,-0.001
258.00,0.001
259.00,0.002
260.00,0.002
261.00,0.002
262.00,0.003
263.00,0.001
264.00,-0.000
265.00,-0.001
266.00,-0.001
267.00,-0.001
268.00,-0.003
269.00,0.000
270.00,-0.000
271.00,0.001
272.00,-0.001
273.00,-0.001
274.00,0.001
275.00,-0.001
276.00,0.000
277.00,0.001
278.00,-0.000
279.00,-0.001
280.00,0.001
281.00,-0.000
282.00,-0.001
283.00,-0.000
284.00,0.001
285.00,0.000
286.00,-0.000
287.00,-0.002
288.00,0.002
289.00,0.002
290.00,0.001
291.00,-0.000
292.00,-0.001
293.00,-0.001
294.00,-0.001
295.00,-0.001
296.00,0.000
297.00,0.000
298.00,0.001
299.00,-0.001
300.00,0.000
301.00,-0.001
302.00,0.000
303.00,0.001
304.00,-0.000
305.00,0.002
306.00,0.001
307.00,0.002
308.00,0.006
309.00,0.011
310.00,0.016
311.00,0.026
312.00,0.042
313.00,0.063
314.00,0.098
315.00,0.143
316.00,0.196
317.00,0.287
318.00,0.388
319.00,0.518
320.00,0.693
321.00,0.902
322.00,1.136
323.00,1.450
324.00,1.781
325.00,2.146
326.00,2.527
327.00,3.020
328.00,3.541
329.00,4.064
330.00,4.653
331.00,5.249
332.00,5.899
333.00,6.607
334.00,7.275
335.00,8.001
336.00,8.721
337.00,9.462
338.00,10.205
339.00,10.854
340.00,11.557
341.00,12.293
342.00,12.932
343.00,13.566
344.00,14.214
345.00,14.850
346.00,15.380
347.00,15.963
348.00,16.455
349.00,16.937
350.00,17.417
351.00,17.839
352.00,18.198
353.00,18.605
354.00,18.975
355.00,19.346
356.00,19.649
357.00,19.906
358.00,20.168
359.00,20.466
360.00,20.664
361.00,20.879
362.00,21.058
363.00,21.244
364.00,21.383
365.00,21.482
366.00,21.625
367.00,21.719
368.00,21.776
369.00,21.796
370.00,21.879
371.00,21.889
372.00,21.815
373.00,21.873
374.00,21.838
375.00,21.791
376.00,21.726
377.00,21.656
378.00,21.547
379.00,21.428
380.00,21.459
381.00,21.395
382.00,21.400
383.00,21.369
384.00,21.461
385.00,21.568
386.00,21.553
387.00,21.664
388.00,21.755
389.00,21.771
390.00,21.837
391.00,21.869
392.00,21.887
393.00,21.941
394.00,21.986
395.00,22.000
396.00,21.987
397.00,22.014
398.00,22.025
399.00,22.009
400.00,22.032
401.00,22.040
402.00,22.028
403.00,22.009
404.00,21.997
405.00,21.996
406.00,21.939
407.00,21.915
408.00,21.909
409.00,21.846
410.00,21.792
411.00,21.815
412.00,21.748
413.00,21.808
414.00,21.736
415.00,21.747
416.00,21.800
417.00,21.769
418.00,21.807
419.00,21.866
420.00,21.925
421.00,21.952
422.00,21.938
423.00,21.992
424.00,22.032
425.00,22.062
426.00,22.106
427.00,22.153
428.00,22.192
429.00,22.242
430.00,22.266
431.00,22.327
432.00,22.336
433.00,22.381
434.00,22.475
435.00,22.526
436.00,22.580
437.00,22.638
438.00,22.761
439.00,22.819
440.00,22.824
441.00,22.934
442.00,22.975
443.00,23.105
444.00,23.218
445.00,23.292
446.00,23.406
447.00,23.491
448.00,23.591
449.00,23.716
450.00,23.815
451.00,23.890
452.00,23.996
453.00,24.146
454.00,24.216
455.00,24.327
456.00,24.463
457.00,24.571
458.00,24.683
459.00,24.823
460.00,24.982
461.00,25.088
462.00,25.217
463.00,25.344
464.00,25.476
465.00,25.602
466.00,25.739
467.00,25.869
468.00,25.921
469.00,26.080
470.00,26.189
471.00,26.310
472.00,26.436
473.00,26.528
474.00,26.657
475.00,26.759
476.00,26.857
477.00,26.990
478.00,27.102
479.00,27.274
480.00,27.423
481.00,27.535
482.00,27.705
483.00,27.839
484.00,27.982
485.00,28.162
486.00,28.212
487.00,28.458
488.00,28.516
489.00,28.758
490.00,28.907
491.00,29.037
492.00,29.293
493.00,29.439
494.00,29.394
495.00,29.584
496.00,29.749
497.00,29.835
498.00,30.013
499.00,30.146
500.00,30.270
501.00,30.368
502.00,30.533
503.00,30.669
504.00,30.719
505.00,30.837
506.00,30.998
507.00,31.068
508.00,31.207
509.00,31.357
510.00,31.475
511.00,31.567
512.00,31.743
513.00,31.868
514.00,31.998
515.00,32.120
516.00,32.262
517.00,32.341
518.00,32.490
519.00,32.537
520.00,32.564
521.00,32.721
522.00,32.823
523.00,32.841
524.00,32.949
525.00,33.100
526.00,33.207
527.00,33.213
528.00,33.263
529.00,33.439
530.00,33.634
531.00,33.720
532.00,33.764
533.00,33.886
534.00,33.974
535.00,33.979
536.00,34.173
537.00,34.172
538.00,34.310
539.00,34.378
540.00,34.461
541.00,34.419
542.00,34.528
543.00,34.577
544.00,34.711
545.00,34.758
546.00,34.791
547.00,34.918
548.00,35.032
549.00,35.014
550.00,35.156
551.00,35.292
552.00,35.280
553.00,35.284
554.00,35.446
555.00,35.462
556.00,35.515
557.00,35.599
558.00,35.671
559.00,35.769
560.00,35.791
561.00,35.867
562.00,35.965
563.00,35.972
564.00,35.982
565.00,36.040
566.00,36.049
567.00,36.076
568.00,36.182
569.00,36.205
570.00,36.217
571.00,36.274
572.00,36.285
573.00,36.268
574.00,36.337
575.00,36.318
576.00,36.340
577.00,36.370
578.00,36.491
579.00,36.547
580.00,36.512
581.00,36.696
582.00,36.752
583.00,36.748
584.00,36.902
585.00,36.989
586.00,36.914
587.00,36.953
588.00,36.999
589.00,36.955
590.00,37.087
591.00,37.154
592.00,37.113
593.00,37.191
594.00,37.306
595.00,37.357
596.00,37.378
597.00,37.465
598.00,37.513
599.00,37.470
600.00,37.514
601.00,37.583
602.00,37.614
603.00,37.630
604.00,37.671
605.00,37.706
606.00,37.754
607.00,37.762
608.00,37.987
609.00,38.054
610.00,37.925
611.00,37.999
612.00,38.057
613.00,38.114
614.00,38.137
615.00,38.200
616.00,38.264
617.00,38.300
618.00,38.259
619.00,38.327
620.00,38.403
621.00,38.450
622.00,38.534
623.00,38.576
624.00,38.639
625.00,38.709
626.00,38.727
627.00,38.834
628.00,38.761
629.00,38.812
630.00,38.921
631.00,39.014
632.00,39.082
633.00,39.164
634.00,39.302
635.00,39.354
636.00,39.402
637.00,39.449
638.00,39.549
639.00,39.579
640.00,39.613
641.00,39.617
642.00,39.758
643.00,39.857
644.00,39.946
645.00,39.991
646.00,40.133
647.00,40.160
648.00,40.234
649.00,40.289
650.00,40.228
651.00,40.379
652.00,40.507
653.00,40.513
654.00,40.523
655.00,40.696
656.00,40.956
657.00,40.976
658.00,40.995
659.00,41.062
660.00,41.122
661.00,41.250
662.00,41.327
663.00,41.355
664.00,41.655
665.00,41.772
666.00,41.744
667.00,41.896
668.00,41.841
669.00,42.113
670.00,42.282
671.00,42.251
672.00,42.274
673.00,42.422
674.00,42.424
675.00,42.532
676.00,42.721
677.00,42.820
678.00,42.741
679.00,42.868
680.00,43.032
681.00,43.213
682.00,43.231
683.00,43.261
684.00,43.367
685.00,43.464
686.00,43.346
687.00,43.487
688.00,43.596
689.00,43.653
690.00,44.008
691.00,44.134
692.00,43.987
693.00,43.918
694.00,43.975
695.00,44.221
696.00,44.484
697.00,44.431
698.00,44.410
699.00,44.795
700.00,44.947
701.00,44.865
702.00,44.939
703.00,45.088
704.00,45.183
705.00,45.130
706.00,45.207
707.00,45.307
708.00,45.178
709.00,45.531
710.00,45.904
711.00,45.505
712.00,45.565
713.00,45.685
714.00,45.789
715.00,45.862
716.00,45.842
717.00,46.014
718.00,46.123
719.00,46.264
720.00,46.195
721.00,50.608
722.00,50.618
723.00,50.663
724.00,50.604
725.00,50.630
726.00,50.694
727.00,50.629
728.00,50.660
729.00,50.727
730.00,50.774
731.00,50.787
732.00,50.751
733.00,50.908
734.00,50.938
735.00,50.939
736.00,50.988
737.00,51.077
738.00,51.009
739.00,51.099
740.00,51.120
741.00,51.172
742.00,51.174
743.00,51.133
744.00,51.174
745.00,51.304
746.00,51.187
747.00,51.195
748.00,51.137
749.00,51.241
750.00,51.239
751.00,51.156
752.00,51.269
753.00,51.281
754.00,51.289
755.00,51.331
756.00,51.309
757.00,51.242
758.00,51.299
759.00,51.343
760.00,51.282
761.00,51.330
762.00,51.271
763.00,51.391
764.00,51.400
765.00,51.305
766.00,51.370
767.00,51.434
768.00,51.459
769.00,51.350
770.00,51.456
771.00,51.435
772.00,51.459
773.00,51.480
774.00,51.502
775.00,51.451
776.00,51.381
777.00,51.459
778.00,51.449
779.00,51.592
780.00,51.371
781.00,51.509
782.00,51.500
783.00,51.466
784.00,51.472
785.00,51.384
786.00,51.487
787.00,51.455
788.00,51.454
789.00,51.432
790.00,51.450
791.00,51.421
792.00,51.412
793.00,51.411
794.00,51.374
795.00,51.370
796.00,51.384
797.00,51.383
798.00,51.392
799.00,51.345
800.00,51.302
801.00,51.275
802.00,51.301
803.00,51.354
804.00,51.266
805.00,51.309
806.00,51.214
807.00,51.235
808.00,51.236
809.00,51.183
810.00,51.148
811.00,51.203
812.00,51.274
813.00,51.089
814.00,51.090
815.00,51.167
816.00,51.154
817.00,51.091
818.00,51.078
819.00,51.045
820.00,51.011
821.00,51.026
822.00,51.040
823.00,50.966
824.00,50.961
825.00,50.930
826.00,50.973
827.00,50.995
828.00,51.006
829.00,50.916
830.00,50.906
831.00,53.286
832.00,53.241
833.00,53.187
834.00,53.214
835.00,53.218
836.00,53.186
837.00,53.122
838.00,53.159
839.00,53.170
840.00,53.110
841.00,53.114
842.00,53.070
843.00,53.080
844.00,53.066
845.00,52.992
846.00,52.998
847.00,52.965
848.00,52.998
849.00,52.917
850.00,52.880
851.00,52.815
852.00,52.868
853.00,52.784
854.00,52.757
855.00,52.855
856.00,52.745
857.00,52.694
858.00,52.702
859.00,52.647
860.00,52.626
861.00,52.754
862.00,52.600
863.00,52.628
864.00,52.543
865.00,52.604
866.00,52.567
867.00,52.571
868.00,52.538
869.00,52.506
870.00,52.566
871.00,52.543
872.00,52.532
873.00,52.510
874.00,52.534
875.00,52.413
876.00,52.572
877.00,52.463
878.00,52.465
879.00,52.433
880.00,52.390
881.00,52.387
882.00,52.416
883.00,52.358
884.00,52.342
885.00,52.338
886.00,52.313
887.00,52.274
888.00,52.276
889.00,52.249
890.00,52.225
891.00,52.198
892.00,52.211
893.00,52.182
894.00,52.169
895.00,52.149
896.00,52.127
897.00,52.110
898.00,52.090
899.00,52.098
900.00,52.068
901.00,52.056
902.00,52.048
903.00,51.972
904.00,51.957
905.00,51.979
906.00,51.981
907.00,51.959
908.00,51.891
909.00,51.927
910.00,51.859
911.00,51.865
912.00,51.853
913.00,51.831
914.00,51.795
915.00,51.697
916.00,51.824
917.00,51.715
918.00,51.744
919.00,51.701
920.00,51.670
921.00,51.658
922.00,51.652
923.00,51.648
924.00,51.613
925.00,51.623
926.00,51.583
927.00,51.569
928.00,51.549
929.00,51.532
930.00,51.486
931.00,51.483
932.00,51.382
933.00,51.472
934.00,51.438
935.00,51.412
936.00,51.395
937.00,51.367
938.00,51.348
939.00,51.364
940.00,51.334
941.00,51.309
942.00,51.291
943.00,51.301
944.00,51.240
945.00,51.251
946.00,51.244
947.00,51.198
948.00,51.172
949.00,51.161
950.00,51.141
951.00,51.100
952.00,51.083
953.00,51.071
954.00,51.029
955.00,50.958
956.00,51.014
957.00,50.949
958.00,50.969
959.00,50.921
960.00,50.896
961.00,50.901
962.00,50.892
963.00,50.853
964.00,50.859
965.00,50.856
966.00,50.839
967.00,50.826
968.00,50.805
969.00,50.828
970.00,50.802
971.00,50.806
972.00,50.765
973.00,50.809
974.00,50.815
975.00,50.783
976.00,50.825
977.00,50.884
978.00,50.839
979.00,50.809
980.00,50.813
981.00,50.821
982.00,50.775
983.00,50.791
984.00,50.770
985.00,50.788
986.00,50.748
987.00,50.771
988.00,50.723
989.00,50.736
990.00,50.736
991.00,50.713
992.00,50.709
993.00,50.680
994.00,50.677
995.00,50.653
996.00,50.646
997.00,50.638
998.00,50.616
999.00,50.624
1000.00,50.592
1001.00,50.580
1002.00,50.583
1003.00,50.572
1004.00,50.550
1005.00,50.528
1006.00,50.554
1007.00,50.507
1008.00,50.507
1009.00,50.481
1010.00,50.467
1011.00,50.470
1012.00,50.446
1013.00,50.448
1014.00,50.411
1015.00,50.434
1016.00,50.394
1017.00,50.380
1018.00,50.376
1019.00,50.350
1020.00,50.341
1021.00,50.303
1022.00,50.322
1023.00,50.268
1024.00,50.274
1025.00,50.252
1026.00,50.237
1027.00,50.219
1028.00,50.214
1029.00,50.193
1030.00,50.170
1031.00,50.189
1032.00,50.145
1033.00,50.165
1034.00,50.125
1035.00,50.093
1036.00,50.064
1037.00,50.052
1038.00,50.048
1039.00,50.001
1040.00,50.015
1041.00,49.996
1042.00,49.990
1043.00,49.961
1044.00,49.985
1045.00,49.962
1046.00,49.941
1047.00,49.958
1048.00,49.974
1049.00,49.982
1050.00,49.972
1051.00,50.011
1052.00,50.015
1053.00,50.026
1054.00,50.013
1055.00,50.035
1056.00,50.036
1057.00,50.034
1058.00,50.028
1059.00,50.040
1060.00,50.061
1061.00,50.033
1062.00,50.018
1063.00,50.023
1064.00,50.019
1065.00,50.014
1066.00,49.993
1067.00,49.983
1068.00,50.039
1069.00,49.987
1070.00,49.970
1071.00,49.951
1072.00,49.971
1073.00,49.954
1074.00,49.963
1075.00,49.934
1076.00,49.933
1077.00,49.919
1078.00,49.897
1079.00,49.900
1080.00,49.902
1081.00,49.885
1082.00,49.897
1083.00,49.890
1084.00,49.879
1085.00,49.896
1086.00,49.874
1087.00,49.866
1088.00,49.855
1089.00,49.834
1090.00,49.844
1091.00,49.836
1092.00,49.834
1093.00,49.841
1094.00,49.784
1095.00,49.783
1096.00,49.772
1097.00,49.774
1098.00,49.762
1099.00,49.766
1100.00,49.748
1101.00,49.748
1102.00,49.736
1103.00,49.728
1104.00,49.718
1105.00,49.696
1106.00,49.693
1107.00,49.688
1108.00,49.679
1109.00,49.671
1110.00,49.670
1111.00,49.656
1112.00,49.644
1113.00,49.656
1114.00,49.642
1115.00,49.630
1116.00,49.615
1117.00,49.597
1118.00,49.597
1119.00,49.598
1120.00,49.594
1121.00,49.605
1122.00,49.603
1123.00,49.601
1124.00,49.578
1125.00,49.581
1126.00,49.571
1127.00,49.561
1128.00,49.540
1129.00,49.545
1130.00,49.518
1131.00,49.507
1132.00,49.509
1133.00,49.496
1134.00,49.484
1135.00,49.465
1136.00,49.476
1137.00,49.495
1138.00,49.487
1139.00,49.495
1140.00,49.496
1141.00,49.494
1142.00,49.475
1143.00,49.496
1144.00,49.459
1145.00,49.450
1146.00,49.456
1147.00,49.446
1148.00,49.444
1149.00,49.451
1150.00,49.453
1151.00,49.468
1152.00,49.462
1153.00,49.448
1154.00,49.448
1155.00,49.458
1156.00,49.447
1157.00,49.438
1158.00,49.435
1159.00,49.440
1160.00,49.433
1161.00,49.442
1162.00,49.447
1163.00,49.425
1164.00,49.429
1165.00,49.452
1166.00,49.441
1167.00,49.415
1168.00,49.434
1169.00,49.432
1170.00,49.434
1171.00,49.425
1172.00,49.426
1173.00,49.423
1174.00,49.446
1175.00,49.431
1176.00,49.421
1177.00,49.398
1178.00,49.399
1179.00,49.424
1180.00,49.413
1181.00,49.430
1182.00,49.414
1183.00,49.416
1184.00,49.432
1185.00,49.461
1186.00,49.426
1187.00,49.428
1188.00,49.420
1189.00,49.421
1190.00,49.417
1191.00,49.403
1192.00,49.421
1193.00,49.398
1194.00,49.408
1195.00,49.388
1196.00,49.417
1197.00,49.415
1198.00,49.418
1199.00,49.428
1200.00,49.420
1201.00,49.433
1202.00,49.413
1203.00,49.417
1204.00,49.396
1205.00,49.422
1206.00,49.404
1207.00,49.405
1208.00,49.389
1209.00,49.413
1210.00,49.403
1211.00,49.400
1212.00,49.421
1213.00,49.390
1214.00,49.432
1215.00,49.407
1216.00,49.418
1217.00,49.426
1218.00,49.414
1219.00,49.426
1220.00,49.415
1221.00,49.438
1222.00,49.421
1223.00,49.447
1224.00,49.439
1225.00,49.424
1226.00,49.430
1227.00,49.417
1228.00,49.449
1229.00,49.441
1230.00,49.455
1231.00,49.467
1232.00,49.484
1233.00,49.493
1234.00,49.477
1235.00,49.481
1236.00,49.499
1237.00,49.480
1238.00,49.481
1239.00,49.490
1240.00,49.482
1241.00,49.489
1242.00,49.502
1243.00,49.512
1244.00,49.489
1245.00,49.524
1246.00,49.523
1247.00,49.527
1248.00,49.515
1249.00,49.534
1250.00,49.549
1251.00,49.537
1252.00,49.541
1253.00,49.532
1254.00,49.545
1255.00,49.530
1256.00,49.513
1257.00,49.521
1258.00,49.565
1259.00,49.543
1260.00,49.572
1261.00,49.585
1262.00,49.579
1263.00,49.577
1264.00,49.608
1265.00,49.607
1266.00,49.595
1267.00,49.607
1268.00,49.610
1269.00,49.621
1270.00,49.630
1271.00,49.628
1272.00,49.633
1273.00,49.656
1274.00,49.642
1275.00,49.667
1276.00,49.657
1277.00,49.669
1278.00,49.678
1279.00,49.664
1280.00,49.675
1281.00,49.687
1282.00,49.693
1283.00,49.685
1284.00,49.702
1285.00,49.691
1286.00,49.705
1287.00,49.701
1288.00,49.710
1289.00,49.694
1290.00,49.727
1291.00,49.736
1292.00,49.718
1293.00,49.722
1294.00,49.739
1295.00,49.773
1296.00,49.776
1297.00,49.777
1298.00,49.814
1299.00,49.784
1300.00,49.804
1301.00,49.786
1302.00,49.818
1303.00,49.813
1304.00,49.796
1305.00,49.837
1306.00,49.841
1307.00,49.856
1308.00,49.881
1309.00,49.883
1310.00,49.868
1311.00,49.870
1312.00,49.864
1313.00,49.886
1314.00,49.898
1315.00,49.906
1316.00,49.915
1317.00,49.948
1318.00,49.946
1319.00,49.948
1320.00,49.948
1321.00,50.113
1322.00,50.120
1323.00,50.096
1324.00,50.084
1325.00,50.105
1326.00,50.111
1327.00,50.098
1328.00,50.091
1329.00,50.088
1330.00,50.083
1331.00,50.105
1332.00,50.103
1333.00,50.075
1334.00,50.141
1335.00,50.139
1336.00,50.165
1337.00,50.201
1338.00,50.250
1339.00,50.310
1340.00,50.380
1341.00,50.449
1342.00,50.493
1343.00,50.533
1344.00,50.606
1345.00,50.660
1346.00,50.696
1347.00,50.705
1348.00,50.746
1349.00,50.741
1350.00,50.760
1351.00,50.792
1352.00,50.788
1353.00,50.806
1354.00,50.848
1355.00,50.885
1356.00,50.947
1357.00,50.851
1358.00,50.854
1359.00,50.900
1360.00,50.886
1361.00,50.945
1362.00,50.843
1363.00,50.976
1364.00,51.020
1365.00,50.884
1366.00,50.993
1367.00,50.909
1368.00,50.818
1369.00,50.944
1370.00,50.845
1371.00,50.800
1372.00,50.839
1373.00,50.885
1374.00,50.912
1375.00,50.889
1376.00,50.864
1377.00,50.870
1378.00,50.816
1379.00,50.920
1380.00,50.930
1381.00,50.986
1382.00,50.967
1383.00,50.910
1384.00,50.807
1385.00,50.850
1386.00,50.931
1387.00,50.834
1388.00,50.816
1389.00,50.906
1390.00,50.809
1391.00,50.845
1392.00,50.871
1393.00,51.016
1394.00,50.911
1395.00,50.936
1396.00,50.726
1397.00,50.871
1398.00,50.842
1399.00,50.888
1400.00,50.866
1401.00,50.832
1402.00,50.488
1403.00,50.878
1404.00,50.876
1405.00,50.912
1406.00,50.919
1407.00,50.922
1408.00,50.928
1409.00,50.909
1410.00,50.949
1411.00,50.936
1412.00,51.008
1413.00,50.913
1414.00,50.914
1415.00,50.956
1416.00,51.003
1417.00,51.044
1418.00,51.000
1419.00,51.008
1420.00,51.030
1421.00,51.090
1422.00,51.094
1423.00,51.098
1424.00,51.100
1425.00,51.129
1426.00,51.135
1427.00,51.166
1428.00,51.160
1429.00,51.176
1430.00,51.201
1431.00,51.198
1432.00,51.248
1433.00,51.255
1434.00,51.234
1435.00,51.291
1436.00,51.316
1437.00,51.286
1438.00,51.304
1439.00,51.355
1440.00,51.366
1441.00,51.360
1442.00,51.368
1443.00,51.397
1444.00,51.460
1445.00,51.417
1446.00,51.455
1447.00,51.486
1448.00,51.525
1449.00,51.532
1450.00,51.534
1451.00,51.561
1452.00,51.575
1453.00,51.596
1454.00,51.626
1455.00,51.647
1456.00,51.652
1457.00,51.644
1458.00,51.681
1459.00,51.681
1460.00,51.708
1461.00,51.718
1462.00,51.768
1463.00,51.763
1464.00,51.774
1465.00,51.806
1466.00,51.806
1467.00,51.819
1468.00,51.880
1469.00,51.862
1470.00,51.904
1471.00,51.906
1472.00,51.918
1473.00,51.936
1474.00,51.946
1475.00,51.965
1476.00,51.973
1477.00,51.969
1478.00,52.027
1479.00,52.041
1480.00,52.028
1481.00,52.027
1482.00,52.059
1483.00,52.069
1484.00,52.109
1485.00,52.094
1486.00,52.107
1487.00,52.132
1488.00,52.152
1489.00,52.131
1490.00,52.172
1491.00,52.202
1492.00,52.209
1493.00,52.212
1494.00,52.253
1495.00,52.225
1496.00,52.262
1497.00,52.243
1498.00,52.280
1499.00,52.289
1500.00,52.307
1501.00, 
1502.00, 
1503.00, 
1504.00, 
1505.00, 
1506.00, 
1507.00, 
1508.00, 
1509.00, 
1510.00, 
1511.00, 
1512.00, 
1513.00, 
1514.00, 
1515.00, 
1516.00, 
1517.00, 
1518.00, 
1519.00, 
1520.00, 
1521.00, 
1522.00, 
1523.00, 
1524.00, 
1525.00, 
1526.00, 
1527.00, 
1528.00, 
1529.00, 
1530.00, 
1531.00, 
1532.00, 
1533.00, 
1534.00, 
1535.00, 
1536.00, 
1537.00, 
1538.00, 
1539.00, 
1540.00, 
1541.00, 
1542.00, 
1543.00, 
1544.00, 
1545.00, 
1546.00, 
1547.00, 
1548.00, 
1549.00, 
1550.00, 
1551.00, 
1552.00, 
1553.00, 
1554.00, 
1555.00, 
1556.00, 
1557.00, 
1558.00, 
1559.00, 
1560.00, 
1561.00, 
1562.00, 
1563.00, 
1564.00, 
1565.00, 
1566.00, 
1567.00, 
1568.00, 
1569.00, 
1570.00, 
1571.00, 
1572.00, 
1573.00, 
1574.00, 
1575.00, 
1576.00, 
1577.00, 
1578.00, 
1579.00, 
1580.00, 
1581.00, 
1582.00, 
1583.00, 
1584.00, 
1585.00, 
1586.00, 
1587.00, 
1588.00, 
1589.00, 
1590.00, 
1591.00, 
1592.00, 
1593.00, 
1594.00, 
1595.00, 
1596.00, 
1597.00, 
1598.00, 
1599.00, 
1600.00, 
1601.00, 
1602.00, 
1603.00, 
1604.00, 
1605.00, 
1606.00, 
1607.00, 
1608.00, 
1609.00, 
1610.00, 
1611.00, 
1612.00, 
1613.00, 
1614.00, 
1615.00, 
1616.00, 
1617.00, 
1618.00, 
1619.00, 
1620.00, 
1621.00, 
1622.00, 
1623.00, 
1624.00, 
1625.00, 
1626.00, 
1627.00, 
1628.00, 
1629.00, 
1630.00, 
1631.00, 
1632.00, 
1633.00, 
1634.00, 
1635.00, 
1636.00, 
1637.00, 
1638.00, 
1639.00, 
1640.00, 
1641.00, 
1642.00, 
1643.00, 
1644.00, 
1645.00, 
1646.00, 
1647.00, 
1648.00, 
1649.00, 
1650.00, 
1651.00, 
1652.00, 
1653.00, 
1654.00, 
1655.00, 
1656.00, 
1657.00, 
1658.00, 
1659.00, 
1660.00, 
1661.00, 
1662.00, 
1663.00, 
1664.00, 
1665.00, 
1666.00, 
1667.00, 
1668.00, 
1669.00, 
1670.00, 
1671.00, 
1672.00, 
1673.00, 
1674.00, 
1675.00, 
1676.00, 
1677.00, 
1678.00, 
1679.00, 
1680.00, 
1681.00, 
1682.00, 
1683.00, 
1684.00, 
1685.00, 
1686.00, 
1687.00, 
1688.00, 
1689.00, 
1690.00, 
1691.00, 
1692.00, 
1693.00, 
1694.00, 
1695.00, 
1696.00, 
1697.00, 
1698.00, 
1699.00, 
1700.00, 
1701.00, 
1702.00, 
1703.00, 
1704.00, 
1705.00, 
1706.00, 
1707.00, 
1708.00, 
1709.00, 
1710.00, 
1711.00, 
1712.00, 
1713.00, 
1714.00, 
1715.00, 
1716.00, 
1717.00, 
1718.00, 
1719.00, 
1720.00, 
1721.00, 
1722.00, 
1723.00, 
1724.00, 
1725.00, 
1726.00, 
1727.00, 
1728.00, 
1729.00, 
1730.00, 
1731.00, 
1732.00, 
1733.00, 
1734.00, 
1735.00, 
1736.00, 
1737.00, 
1738.00, 
1739.00, 
1740.00, 
1741.00, 
1742.00, 
1743.00, 
1744.00, 
1745.00, 
1746.00, 
1747.00, 
1748.00, 
1749.00, 
1750.00, 
1751.00, 
1752.00, 
1753.00, 
1754.00, 
1755.00, 
1756.00, 
1757.00, 
1758.00, 
1759.00, 
1760.00, 
1761.00, 
1762.00, 
1763.00, 
1764.00, 
1765.00, 
1766.00, 
1767.00, 
1768.00, 
1769.00, 
1770.00, 
1771.00, 
1772.00, 
1773.00, 
1774.00, 
1775.00, 
1776.00, 
1777.00, 
1778.00, 
1779.00, 
1780.00, 
1781.00, 
1782.00, 
1783.00, 
1784.00, 
1785.00, 
1786.00, 
1787.00, 
1788.00, 
1789.00, 
1790.00, 
1791.00, 
1792.00, 
1793.00, 
1794.00, 
1795.00, 
1796.00, 
1797.00, 
1798.00, 
1799.00, 
1800.00, 
1801.00, 
1802.00, 
1803.00, 
1804.00, 
1805.00, 
1806.00, 
1807.00, 
1808.00, 
1809.00, 
1810.00, 
1811.00, 
1812.00, 
1813.00, 
1814.00, 
1815.00, 
1816.00, 
1817.00, 
1818.00, 
1819.00, 
1820.00, 
1821.00, 
1822.00, 
1823.00, 
1824.00, 
1825.00, 
1826.00, 
1827.00, 
1828.00, 
1829.00, 
1830.00, 
1831.00, 
1832.00, 
1833.00, 
1834.00, 
1835.00, 
1836.00, 
1837.00, 
1838.00, 
1839.00, 
1840.00, 
1841.00, 
1842.00, 
1843.00, 
1844.00, 
1845.00, 
1846.00, 
1847.00, 
1848.00, 
1849.00, 
1850.00, 
1851.00, 
1852.00, 
1853.00, 
1854.00, 
1855.00, 
1856.00, 
1857.00, 
1858.00, 
1859.00, 
1860.00, 
1861.00, 
1862.00, 
1863.00, 
1864.00, 
1865.00, 
1866.00, 
1867.00, 
1868.00, 
1869.00, 
1870.00, 
1871.00, 
1872.00, 
1873.00, 
1874.00, 
1875.00, 
1876.00, 
1877.00, 
1878.00, 
1879.00, 
1880.00, 
1881.00, 
1882.00, 
1883.00, 
1884.00, 
1885.00, 
1886.00, 
1887.00, 
1888.00, 
1889.00, 
1890.00, 
1891.00, 
1892.00, 
1893.00, 
1894.00, 
1895.00, 
1896.00, 
1897.00, 
1898.00, 
1899.00, 
1900.00, 
1901.00, 
1902.00, 
1903.00, 
1904.00, 
1905.00, 
1906.00, 
1907.00, 
1908.00, 
1909.00, 
1910.00, 
1911.00, 
1912.00, 
1913.00, 
1914.00, 
1915.00, 
1916.00, 
1917.00, 
1918.00, 
1919.00, 
1920.00, 
1921.00, 
1922.00, 
1923.00, 
1924.00, 
1925.00, 
1926.00, 
1927.00, 
1928.00, 
1929.00, 
1930.00, 
1931.00, 
1932.00, 
1933.00, 
1934.00, 
1935.00, 
1936.00, 
1937.00, 
1938.00, 
1939.00, 
1940.00, 
1941.00, 
1942.00, 
1943.00, 
1944.00, 
1945.00, 
1946.00, 
1947.00, 
1948.00, 
1949.00, 
1950.00, 
1951.00, 
1952.00, 
1953.00, 
1954.00, 
1955.00, 
1956.00, 
1957.00, 
1958.00, 
1959.00, 
1960.00, 
1961.00, 
1962.00, 
1963.00, 
1964.00, 
1965.00, 
1966.00, 
1967.00, 
1968.00, 
1969.00, 
1970.00, 
1971.00, 
1972.00, 
1973.00, 
1974.00, 
1975.00, 
1976.00, 
1977.00, 
1978.00, 
1979.00, 
1980.00, 
1981.00, 
1982.00, 
1983.00, 
1984.00, 
1985.00, 
1986.00, 
1987.00, 
1988.00, 
1989.00, 
1990.00, 
1991.00, 
1992.00, 
1993.00, 
1994.00, 
1995.00, 
1996.00, 
1997.00, 
1998.00, 
1999.00, 
2000.00, 
2001.00, 
2002.00, 
2003.00, 
2004.00, 
2005.00, 
2006.00, 
2007.00, 
2008.00, 
2009.00, 
2010.00, 
2011.00, 
2012.00, 
2013.00, 
2014.00, 
2015.00, 
2016.00, 
2017.00, 
2018.00, 
2019.00, 
2020.00, 
2021.00, 
2022.00, 
2023.00, 
2024.00, 
2025.00, 
2026.00, 
2027.00, 
2028.00, 
2029.00, 
2030.00, 
2031.00, 
2032.00, 
2033.00, 
2034.00, 
2035.00, 
2036.00, 
2037.00, 
2038.00, 
2039.00, 
2040.00, 
2041.00, 
2042.00, 
2043.00, 
2044.00, 
2045.00, 
2046.00, 
2047.00, 
2048.00, 
2049.00, 
2050.00, 
2051.00, 
2052.00, 
2053.00, 
2054.00, 
2055.00, 
2056.00, 
2057.00, 
2058.00, 
2059.00, 
2060.00, 
2061.00, 
2062.00, 
2063.00, 
2064.00, 
2065.00, 
2066.00, 
2067.00, 
2068.00, 
2069.00, 
2070.00, 
2071.00, 
2072.00, 
2073.00, 
2074.00, 
2075.00, 
2076.00, 
2077.00, 
2078.00, 
2079.00, 
2080.00, 
2081.00, 
2082.00, 
2083.00, 
2084.00, 
2085.00, 
2086.00, 
2087.00, 
2088.00, 
2089.00, 
2090.00, 
2091.00, 
2092.00, 
2093.00, 
2094.00, 
2095.00, 
2096.00, 
2097.00, 
2098.00, 
2099.00, 
2100.00, 
2101.00, 
2102.00, 
2103.00, 
2104.00, 
2105.00, 
2106.00, 
2107.00, 
2108.00, 
2109.00, 
2110.00, 
2111.00, 
2112.00, 
2113.00, 
2114.00, 
2115.00, 
2116.00, 
2117.00, 
2118.00, 
2119.00, 
2120.00, 
2121.00, 
2122.00, 
2123.00, 
2124.00, 
2125.00, 
2126.00, 
2127.00, 
2128.00, 
2129.00, 
2130.00, 
2131.00, 
2132.00, 
2133.00, 
2134.00, 
2135.00, 
2136.00, 
2137.00, 
2138.00, 
2139.00, 
2140.00, 
2141.00, 
2142.00, 
2143.00, 
2144.00, 
2145.00, 
2146.00, 
2147.00, 
2148.00, 
2149.00, 
2150.00, 
2151.00, 
2152.00, 
2153.00, 
2154.00, 
2155.00, 
2156.00, 
2157.00, 
2158.00, 
2159.00, 
2160.00, 
2161.00, 
2162.00, 
2163.00, 
2164.00, 
2165.00, 
2166.00, 
2167.00, 
2168.00, 
2169.00, 
2170.00, 
2171.00, 
2172.00, 
2173.00, 
2174.00, 
2175.00, 
2176.00, 
2177.00, 
2178.00, 
2179.00, 
2180.00, 
2181.00, 
2182.00, 
2183.00, 
2184.00, 
2185.00, 
2186.00, 
2187.00, 
2188.00, 
2189.00, 
2190.00, 
2191.00, 
2192.00, 
2193.00, 
2194.00, 
2195.00, 
2196.00, 
2197.00, 
2198.00, 
2199.00, 
2200.00, 
2201.00, 
2202.00, 
2203.00, 
2204.00, 
2205.00, 
2206.00, 
2207.00, 
2208.00, 
2209.00, 
2210.00, 
2211.00, 
2212.00, 
2213.00, 
2214.00, 
2215.00, 
2216.00, 
2217.00, 
2218.00, 
2219.00, 
2220.00, 
2221.00, 
2222.00, 
2223.00, 
2224.00, 
2225.00, 
2226.00, 
2227.00, 
2228.00, 
2229.00, 
2230.00, 
2231.00, 
2232.00, 
2233.00, 
2234.00, 
2235.00, 
2236.00, 
2237.00, 
2238.00, 
2239.00, 
2240.00, 
2241.00, 
2242.00, 
2243.00, 
2244.00, 
2245.00, 
2246.00, 
2247.00, 
2248.00, 
2249.00, 
2250.00, 
2251.00, 
2252.00, 
2253.00, 
2254.00, 
2255.00, 
2256.00, 
2257.00, 
2258.00, 
2259.00, 
2260.00, 
2261.00, 
2262.00, 
2263.00, 
2264.00, 
2265.00, 
2266.00, 
2267.00, 
2268.00, 
2269.00, 
2270.00, 
2271.00, 
2272.00, 
2273.00, 
2274.00, 
2275.00, 
2276.00, 
2277.00, 
2278.00, 
2279.00, 
2280.00, 
2281.00, 
2282.00, 
2283.00, 
2284.00, 
2285.00, 
2286.00, 
2287.00, 
2288.00, 
2289.00, 
2290.00, 
2291.00, 
2292.00, 
2293.00, 
2294.00, 
2295.00, 
2296.00, 
2297.00, 
2298.00, 
2299.00, 
2300.00, 
2301.00, 
2302.00, 
2303.00, 
2304.00, 
2305.00, 
2306.00, 
2307.00, 
2308.00, 
2309.00, 
2310.00, 
2311.00, 
2312.00, 
2313.00, 
2314.00, 
2315.00, 
2316.00, 
2317.00, 
2318.00, 
2319.00, 
2320.00, 
2321.00, 
2322.00, 
2323.00, 
2324.00, 
2325.00, 
2326.00, 
2327.00, 
2328.00, 
2329.00, 
2330.00, 
2331.00, 
2332.00, 
2333.00, 
2334.00, 
2335.00, 
2336.00, 
2337.00, 
2338.00, 
2339.00, 
2340.00, 
2341.00, 
2342.00, 
2343.00, 
2344.00, 
2345.00, 
2346.00, 
2347.00, 
2348.00, 
2349.00, 
2350.00, 
2351.00, 
2352.00, 
2353.00, 
2354.00, 
2355.00, 
2356.00, 
2357.00, 
2358.00, 
2359.00, 
2360.00, 
2361.00, 
2362.00, 
2363.00, 
2364.00, 
2365.00, 
2366.00, 
2367.00, 
2368.00, 
2369.00, 
2370.00, 
2371.00, 
2372.00, 
2373.00, 
2374.00, 
2375.00, 
2376.00, 
2377.00, 
2378.00, 
2379.00, 
2380.00, 
2381.00, 
2382.00, 
2383.00, 
2384.00, 
2385.00, 
2386.00, 
2387.00, 
2388.00, 
2389.00, 
2390.00, 
2391.00, 
2392.00, 
2393.00, 
2394.00, 
2395.00, 
2396.00, 
2397.00, 
2398.00, 
2399.00, 
2400.00, 
2401.00, 
2402.00, 
2403.00, 
2404.00, 
2405.00, 
2406.00, 
2407.00, 
2408.00, 
2409.00, 
2410.00, 
2411.00, 
2412.00, 
2413.00, 
2414.00, 
2415.00, 
2416.00, 
2417.00, 
2418.00, 
2419.00, 
2420.00, 
2421.00, 
2422.00, 
2423.00, 
2424.00, 
2425.00, 
2426.00, 
2427.00, 
2428.00, 
2429.00, 
2430.00, 
2431.00, 
2432.00, 
2433.00, 
2434.00, 
2435.00, 
2436.00, 
2437.00, 
2438.00, 
2439.00, 
2440.00, 
2441.00, 
2442.00, 
2443.00, 
2444.00, 
2445.00, 
2446.00, 
2447.00, 
2448.00, 
2449.00, 
2450.00, 
2451.00, 
2452.00, 
2453.00, 
2454.00, 
2455.00, 
2456.00, 
2457.00, 
2458.00, 
2459.00, 
2460.00, 
2461.00, 
2462.00, 
2463.00, 
2464.00, 
2465.00, 
2466.00, 
2467.00, 
2468.00, 
2469.00, 
2470.00, 
2471.00, 
2472.00, 
2473.00, 
2474.00, 
2475.00, 
2476.00, 
2477.00, 
2478.00, 
2479.00, 
2480.00, 
2481.00, 
2482.00, 
2483.00, 
2484.00, 
2485.00, 
2486.00, 
2487.00, 
2488.00, 
2489.00, 
2490.00, 
2491.00, 
2492.00, 
2493.00, 
2494.00, 
2495.00, 
2496.00, 
2497.00, 
2498.00, 
2499.00, 
2500.00, 
2501.00, 
2502.00, 
2503.00, 
2504.00, 
2505.00, 
2506.00, 
2507.00, 
2508.00, 
2509.00, 
2510.00, 
2511.00, 
2512.00, 
2513.00, 
2514.00, 
2515.00, 
2516.00, 
2517.00, 
2518.00, 
2519.00, 
2520.00, 
2521.00, 
2522.00, 
2523.00, 
2524.00, 
2525.00, 
2526.00, 
2527.00, 
2528.00, 
2529.00, 
2530.00, 
2531.00, 
2532.00, 
2533.00, 
2534.00, 
2535.00, 
2536.00, 
2537.00, 
2538.00, 
2539.00, 
2540.00, 
2541.00, 
2542.00, 
2543.00, 
2544.00, 
2545.00, 
2546.00, 
2547.00, 
2548.00, 
2549.00, 
2550.00, 
2551.00, 
2552.00, 
2553.00, 
2554.00, 
2555.00, 
2556.00, 
2557.00, 
2558.00, 
2559.00, 
2560.00, 
2561.00, 
2562.00, 
2563.00, 
2564.00, 
2565.00, 
2566.00, 
2567.00, 
2568.00, 
2569.00, 
2570.00, 
2571.00, 
2572.00, 
2573.00, 
2574.00, 
2575.00, 
2576.00, 
2577.00, 
2578.00, 
2579.00, 
2580.00, 
2581.00, 
2582.00, 
2583.00, 
2584.00, 
2585.00, 
2586.00, 
2587.00, 
2588.00, 
2589.00, 
2590.00, 
2591.00, 
2592.00, 
2593.00, 
2594.00, 
2595.00, 
2596.00, 
2597.00, 
2598.00, 
2599.00, 
2600.00, 
