"2aP2 - RawData"
"Wavelength nm.","T%"
200.00,0.003
201.00,0.002
202.00,0.002
203.00,0.004
204.00,0.001
205.00,0.002
206.00,-0.001
207.00,0.000
208.00,0.003
209.00,-0.002
210.00,0.002
211.00,0.003
212.00,0.004
213.00,-0.002
214.00,0.002
215.00,0.002
216.00,0.002
217.00,0.002
218.00,-0.002
219.00,0.003
220.00,-0.001
221.00,0.002
222.00,0.002
223.00,0.000
224.00,-0.000
225.00,0.000
226.00,0.003
227.00,0.004
228.00,0.004
229.00,0.003
230.00,-0.001
231.00,0.001
232.00,0.002
233.00,0.002
234.00,0.003
235.00,0.003
236.00,-0.000
237.00,0.001
238.00,0.001
239.00,0.002
240.00,0.000
241.00,0.004
242.00,0.001
243.00,0.001
244.00,-0.001
245.00,0.001
246.00,0.000
247.00,0.001
248.00,0.002
249.00,0.001
250.00,0.001
251.00,-0.001
252.00,0.000
253.00,0.000
254.00,0.001
255.00,0.001
256.00,0.001
257.00,0.000
258.00,0.000
259.00,0.001
260.00,0.000
261.00,0.003
262.00,0.000
263.00,0.001
264.00,0.001
265.00,-0.001
266.00,0.001
267.00,0.002
268.00,0.003
269.00,-0.000
270.00,-0.000
271.00,-0.000
272.00,0.000
273.00,0.000
274.00,-0.000
275.00,0.002
276.00,0.001
277.00,0.001
278.00,0.000
279.00,0.000
280.00,-0.001
281.00,0.002
282.00,0.000
283.00,0.002
284.00,-0.001
285.00,0.000
286.00,0.003
287.00,-0.000
288.00,-0.000
289.00,0.001
290.00,0.001
291.00,-0.002
292.00,-0.003
293.00,-0.000
294.00,0.001
295.00,0.001
296.00,0.000
297.00,0.000
298.00,-0.001
299.00,0.002
300.00,0.000
301.00,0.004
302.00,0.005
303.00,0.007
304.00,0.008
305.00,0.016
306.00,0.026
307.00,0.042
308.00,0.060
309.00,0.094
310.00,0.129
311.00,0.172
312.00,0.244
313.00,0.328
314.00,0.422
315.00,0.557
316.00,0.703
317.00,0.896
318.00,1.096
319.00,1.343
320.00,1.637
321.00,1.950
322.00,2.307
323.00,2.725
324.00,3.161
325.00,3.571
326.00,4.012
327.00,4.536
328.00,5.056
329.00,5.594
330.00,6.153
331.00,6.718
332.00,7.303
333.00,7.951
334.00,8.429
335.00,9.118
336.00,9.664
337.00,10.261
338.00,10.839
339.00,11.379
340.00,11.948
341.00,12.487
342.00,12.949
343.00,13.430
344.00,13.880
345.00,14.380
346.00,14.777
347.00,15.162
348.00,15.516
349.00,15.855
350.00,16.213
351.00,16.530
352.00,16.751
353.00,17.018
354.00,17.334
355.00,17.592
356.00,17.777
357.00,17.915
358.00,18.128
359.00,18.393
360.00,18.511
361.00,18.650
362.00,18.792
363.00,18.916
364.00,18.995
365.00,19.068
366.00,19.173
367.00,19.237
368.00,19.241
369.00,19.292
370.00,19.324
371.00,19.351
372.00,19.332
373.00,19.347
374.00,19.332
375.00,19.347
376.00,19.284
377.00,19.285
378.00,19.189
379.00,19.137
380.00,19.113
381.00,19.110
382.00,19.073
383.00,19.070
384.00,19.079
385.00,19.126
386.00,19.109
387.00,19.178
388.00,19.208
389.00,19.183
390.00,19.223
391.00,19.214
392.00,19.245
393.00,19.225
394.00,19.247
395.00,19.257
396.00,19.243
397.00,19.259
398.00,19.276
399.00,19.252
400.00,19.285
401.00,19.293
402.00,19.276
403.00,19.256
404.00,19.260
405.00,19.260
406.00,19.184
407.00,19.189
408.00,19.183
409.00,19.131
410.00,19.108
411.00,19.133
412.00,19.095
413.00,19.090
414.00,19.071
415.00,19.059
416.00,19.154
417.00,19.119
418.00,19.153
419.00,19.227
420.00,19.286
421.00,19.293
422.00,19.329
423.00,19.371
424.00,19.379
425.00,19.395
426.00,19.461
427.00,19.496
428.00,19.595
429.00,19.618
430.00,19.676
431.00,19.726
432.00,19.784
433.00,19.836
434.00,19.915
435.00,19.968
436.00,20.019
437.00,20.106
438.00,20.179
439.00,20.251
440.00,20.320
441.00,20.407
442.00,20.475
443.00,20.574
444.00,20.650
445.00,20.763
446.00,20.857
447.00,20.935
448.00,21.053
449.00,21.180
450.00,21.233
451.00,21.343
452.00,21.444
453.00,21.556
454.00,21.692
455.00,21.795
456.00,21.911
457.00,21.999
458.00,22.155
459.00,22.265
460.00,22.432
461.00,22.541
462.00,22.661
463.00,22.834
464.00,22.952
465.00,23.080
466.00,23.227
467.00,23.343
468.00,23.424
469.00,23.575
470.00,23.690
471.00,23.784
472.00,23.919
473.00,24.021
474.00,24.153
475.00,24.304
476.00,24.398
477.00,24.548
478.00,24.660
479.00,24.850
480.00,24.978
481.00,25.106
482.00,25.268
483.00,25.428
484.00,25.592
485.00,25.748
486.00,25.905
487.00,26.056
488.00,26.186
489.00,26.369
490.00,26.514
491.00,26.667
492.00,26.878
493.00,27.025
494.00,27.034
495.00,27.135
496.00,27.357
497.00,27.501
498.00,27.656
499.00,27.824
500.00,27.929
501.00,27.992
502.00,28.204
503.00,28.326
504.00,28.383
505.00,28.531
506.00,28.696
507.00,28.769
508.00,28.929
509.00,29.067
510.00,29.222
511.00,29.286
512.00,29.470
513.00,29.614
514.00,29.718
515.00,29.892
516.00,29.992
517.00,30.070
518.00,30.232
519.00,30.294
520.00,30.358
521.00,30.502
522.00,30.576
523.00,30.609
524.00,30.755
525.00,30.892
526.00,30.956
527.00,31.067
528.00,31.119
529.00,31.294
530.00,31.457
531.00,31.549
532.00,31.641
533.00,31.721
534.00,31.841
535.00,31.930
536.00,32.002
537.00,32.088
538.00,32.143
539.00,32.239
540.00,32.284
541.00,32.358
542.00,32.438
543.00,32.508
544.00,32.596
545.00,32.656
546.00,32.700
547.00,32.849
548.00,32.889
549.00,32.980
550.00,33.051
551.00,33.111
552.00,33.190
553.00,33.205
554.00,33.285
555.00,33.368
556.00,33.447
557.00,33.488
558.00,33.475
559.00,33.645
560.00,33.755
561.00,33.777
562.00,33.851
563.00,33.918
564.00,33.933
565.00,33.999
566.00,34.003
567.00,34.028
568.00,34.125
569.00,34.122
570.00,34.226
571.00,34.274
572.00,34.222
573.00,34.232
574.00,34.341
575.00,34.313
576.00,34.379
577.00,34.426
578.00,34.573
579.00,34.639
580.00,34.620
581.00,34.756
582.00,34.858
583.00,34.894
584.00,34.966
585.00,35.054
586.00,35.104
587.00,35.138
588.00,35.151
589.00,35.153
590.00,35.274
591.00,35.311
592.00,35.273
593.00,35.327
594.00,35.409
595.00,35.486
596.00,35.542
597.00,35.616
598.00,35.758
599.00,35.716
600.00,35.754
601.00,35.791
602.00,35.757
603.00,35.808
604.00,35.896
605.00,36.022
606.00,36.049
607.00,36.013
608.00,36.226
609.00,36.329
610.00,36.137
611.00,36.262
612.00,36.339
613.00,36.386
614.00,36.423
615.00,36.538
616.00,36.633
617.00,36.662
618.00,36.661
619.00,36.706
620.00,36.787
621.00,36.871
622.00,36.911
623.00,36.981
624.00,37.099
625.00,37.190
626.00,37.165
627.00,37.289
628.00,37.368
629.00,37.371
630.00,37.436
631.00,37.541
632.00,37.665
633.00,37.732
634.00,37.878
635.00,37.946
636.00,37.963
637.00,38.011
638.00,38.120
639.00,38.244
640.00,38.293
641.00,38.330
642.00,38.414
643.00,38.523
644.00,38.599
645.00,38.667
646.00,38.884
647.00,38.935
648.00,39.034
649.00,39.015
650.00,39.085
651.00,39.221
652.00,39.361
653.00,39.367
654.00,39.483
655.00,39.696
656.00,39.942
657.00,39.932
658.00,39.949
659.00,40.005
660.00,40.063
661.00,40.206
662.00,40.337
663.00,40.409
664.00,40.652
665.00,40.847
666.00,40.827
667.00,40.907
668.00,40.816
669.00,41.126
670.00,41.378
671.00,41.305
672.00,41.496
673.00,41.582
674.00,41.634
675.00,41.685
676.00,41.938
677.00,42.168
678.00,42.009
679.00,42.204
680.00,42.341
681.00,42.567
682.00,42.563
683.00,42.586
684.00,42.769
685.00,42.865
686.00,42.813
687.00,42.967
688.00,43.036
689.00,43.152
690.00,43.509
691.00,43.692
692.00,43.465
693.00,43.608
694.00,43.760
695.00,43.940
696.00,44.028
697.00,43.986
698.00,44.017
699.00,44.363
700.00,44.602
701.00,44.586
702.00,44.633
703.00,44.813
704.00,44.857
705.00,44.805
706.00,44.923
707.00,45.049
708.00,44.863
709.00,45.382
710.00,45.708
711.00,45.129
712.00,45.636
713.00,45.900
714.00,45.863
715.00,45.786
716.00,45.783
717.00,46.107
718.00,46.267
719.00,46.236
720.00,46.174
721.00,50.669
722.00,50.696
723.00,50.804
724.00,50.777
725.00,50.789
726.00,50.887
727.00,50.849
728.00,50.922
729.00,50.950
730.00,51.013
731.00,51.097
732.00,51.081
733.00,51.210
734.00,51.252
735.00,51.359
736.00,51.424
737.00,51.451
738.00,51.437
739.00,51.536
740.00,51.574
741.00,51.584
742.00,51.691
743.00,51.674
744.00,51.663
745.00,51.896
746.00,51.764
747.00,51.793
748.00,51.794
749.00,51.834
750.00,51.874
751.00,51.806
752.00,51.846
753.00,51.934
754.00,51.912
755.00,51.955
756.00,52.017
757.00,51.990
758.00,51.995
759.00,52.046
760.00,52.056
761.00,52.117
762.00,52.098
763.00,52.169
764.00,52.235
765.00,52.216
766.00,52.294
767.00,52.302
768.00,52.321
769.00,52.269
770.00,52.374
771.00,52.284
772.00,52.364
773.00,52.362
774.00,52.386
775.00,52.366
776.00,52.442
777.00,52.431
778.00,52.472
779.00,52.549
780.00,52.491
781.00,52.528
782.00,52.539
783.00,52.558
784.00,52.539
785.00,52.511
786.00,52.582
787.00,52.540
788.00,52.545
789.00,52.539
790.00,52.523
791.00,52.570
792.00,52.525
793.00,52.543
794.00,52.515
795.00,52.557
796.00,52.579
797.00,52.537
798.00,52.554
799.00,52.603
800.00,52.504
801.00,52.542
802.00,52.588
803.00,52.609
804.00,52.560
805.00,52.582
806.00,52.523
807.00,52.503
808.00,52.555
809.00,52.493
810.00,52.483
811.00,52.471
812.00,52.599
813.00,52.444
814.00,52.475
815.00,52.420
816.00,52.501
817.00,52.418
818.00,52.393
819.00,52.443
820.00,52.363
821.00,52.378
822.00,52.354
823.00,52.350
824.00,52.411
825.00,52.283
826.00,52.347
827.00,52.302
828.00,52.355
829.00,52.326
830.00,52.285
831.00,54.498
832.00,54.473
833.00,54.453
834.00,54.469
835.00,54.427
836.00,54.470
837.00,54.376
838.00,54.390
839.00,54.421
840.00,54.367
841.00,54.351
842.00,54.316
843.00,54.340
844.00,54.345
845.00,54.246
846.00,54.248
847.00,54.233
848.00,54.256
849.00,54.204
850.00,54.196
851.00,54.129
852.00,54.146
853.00,54.087
854.00,54.096
855.00,54.051
856.00,54.057
857.00,54.010
858.00,54.002
859.00,53.987
860.00,53.959
861.00,53.954
862.00,53.942
863.00,53.933
864.00,53.871
865.00,53.947
866.00,53.895
867.00,53.894
868.00,53.885
869.00,53.854
870.00,53.878
871.00,53.827
872.00,53.841
873.00,53.809
874.00,53.860
875.00,53.796
876.00,53.847
877.00,53.768
878.00,53.915
879.00,53.777
880.00,53.730
881.00,53.726
882.00,53.759
883.00,53.705
884.00,53.693
885.00,53.704
886.00,53.682
887.00,53.643
888.00,53.663
889.00,53.627
890.00,53.600
891.00,53.561
892.00,53.595
893.00,53.557
894.00,53.560
895.00,53.545
896.00,53.497
897.00,53.482
898.00,53.474
899.00,53.495
900.00,53.465
901.00,53.598
902.00,53.446
903.00,53.407
904.00,53.378
905.00,53.372
906.00,53.376
907.00,53.362
908.00,53.311
909.00,53.335
910.00,53.287
911.00,53.305
912.00,53.287
913.00,53.218
914.00,53.211
915.00,53.189
916.00,53.169
917.00,53.158
918.00,53.128
919.00,53.122
920.00,53.110
921.00,53.091
922.00,53.068
923.00,53.054
924.00,53.039
925.00,53.054
926.00,53.018
927.00,53.016
928.00,52.963
929.00,52.968
930.00,52.908
931.00,52.928
932.00,52.779
933.00,52.930
934.00,52.872
935.00,52.839
936.00,52.818
937.00,52.806
938.00,52.790
939.00,52.793
940.00,52.757
941.00,52.738
942.00,52.738
943.00,52.738
944.00,52.674
945.00,52.674
946.00,52.760
947.00,52.638
948.00,52.619
949.00,52.597
950.00,52.585
951.00,52.565
952.00,52.545
953.00,52.514
954.00,52.486
955.00,52.446
956.00,52.443
957.00,52.400
958.00,52.405
959.00,52.350
960.00,52.342
961.00,52.336
962.00,52.330
963.00,52.290
964.00,52.306
965.00,52.312
966.00,52.292
967.00,52.280
968.00,52.258
969.00,52.292
970.00,52.258
971.00,52.271
972.00,52.223
973.00,52.269
974.00,52.261
975.00,52.250
976.00,52.258
977.00,52.227
978.00,52.299
979.00,52.337
980.00,52.241
981.00,52.247
982.00,52.207
983.00,52.224
984.00,52.195
985.00,52.217
986.00,52.177
987.00,52.208
988.00,52.175
989.00,52.169
990.00,52.175
991.00,52.133
992.00,52.150
993.00,52.120
994.00,52.114
995.00,52.106
996.00,52.095
997.00,52.098
998.00,52.075
999.00,52.084
1000.00,52.041
1001.00,52.037
1002.00,52.026
1003.00,52.026
1004.00,52.013
1005.00,51.982
1006.00,52.019
1007.00,51.976
1008.00,51.971
1009.00,51.939
1010.00,51.931
1011.00,51.927
1012.00,51.896
1013.00,51.895
1014.00,51.862
1015.00,51.884
1016.00,51.831
1017.00,51.824
1018.00,51.820
1019.00,51.776
1020.00,51.778
1021.00,51.753
1022.00,51.757
1023.00,51.716
1024.00,51.737
1025.00,51.748
1026.00,51.684
1027.00,51.671
1028.00,51.661
1029.00,51.637
1030.00,51.614
1031.00,51.627
1032.00,51.572
1033.00,51.582
1034.00,51.558
1035.00,51.517
1036.00,51.499
1037.00,51.488
1038.00,51.464
1039.00,51.429
1040.00,51.436
1041.00,51.410
1042.00,51.413
1043.00,51.376
1044.00,51.409
1045.00,51.383
1046.00,51.363
1047.00,51.372
1048.00,51.392
1049.00,51.400
1050.00,51.397
1051.00,51.449
1052.00,51.441
1053.00,51.436
1054.00,51.435
1055.00,51.481
1056.00,51.468
1057.00,51.463
1058.00,51.458
1059.00,51.454
1060.00,51.473
1061.00,51.435
1062.00,51.430
1063.00,51.442
1064.00,51.433
1065.00,51.417
1066.00,51.409
1067.00,51.395
1068.00,51.405
1069.00,51.369
1070.00,51.360
1071.00,51.349
1072.00,51.372
1073.00,51.329
1074.00,51.338
1075.00,51.328
1076.00,51.335
1077.00,51.312
1078.00,51.272
1079.00,51.274
1080.00,51.289
1081.00,51.275
1082.00,51.261
1083.00,51.258
1084.00,51.252
1085.00,51.277
1086.00,51.283
1087.00,51.252
1088.00,51.240
1089.00,51.227
1090.00,51.213
1091.00,51.218
1092.00,51.210
1093.00,51.197
1094.00,51.164
1095.00,51.171
1096.00,51.143
1097.00,51.146
1098.00,51.138
1099.00,51.133
1100.00,51.128
1101.00,51.130
1102.00,51.107
1103.00,51.106
1104.00,51.092
1105.00,51.085
1106.00,51.074
1107.00,51.072
1108.00,51.054
1109.00,51.038
1110.00,51.021
1111.00,51.019
1112.00,51.006
1113.00,50.993
1114.00,50.987
1115.00,50.985
1116.00,50.980
1117.00,50.957
1118.00,50.965
1119.00,50.967
1120.00,50.964
1121.00,50.966
1122.00,50.934
1123.00,50.915
1124.00,50.925
1125.00,50.921
1126.00,50.913
1127.00,50.906
1128.00,50.882
1129.00,50.872
1130.00,50.864
1131.00,50.862
1132.00,50.866
1133.00,50.858
1134.00,50.823
1135.00,50.829
1136.00,50.824
1137.00,50.833
1138.00,50.822
1139.00,50.827
1140.00,50.823
1141.00,50.817
1142.00,50.811
1143.00,50.806
1144.00,50.795
1145.00,50.782
1146.00,50.774
1147.00,50.799
1148.00,50.763
1149.00,50.786
1150.00,50.778
1151.00,50.788
1152.00,50.775
1153.00,50.770
1154.00,50.762
1155.00,50.770
1156.00,50.762
1157.00,50.763
1158.00,50.755
1159.00,50.754
1160.00,50.741
1161.00,50.739
1162.00,50.738
1163.00,50.731
1164.00,50.733
1165.00,50.736
1166.00,50.735
1167.00,50.722
1168.00,50.745
1169.00,50.727
1170.00,50.727
1171.00,50.711
1172.00,50.706
1173.00,50.707
1174.00,50.718
1175.00,50.711
1176.00,50.707
1177.00,50.695
1178.00,50.699
1179.00,50.706
1180.00,50.691
1181.00,50.714
1182.00,50.707
1183.00,50.687
1184.00,50.693
1185.00,50.706
1186.00,50.674
1187.00,50.678
1188.00,50.678
1189.00,50.666
1190.00,50.645
1191.00,50.648
1192.00,50.667
1193.00,50.650
1194.00,50.659
1195.00,50.637
1196.00,50.663
1197.00,50.662
1198.00,50.657
1199.00,50.650
1200.00,50.653
1201.00,50.673
1202.00,50.650
1203.00,50.663
1204.00,50.648
1205.00,50.677
1206.00,50.652
1207.00,50.648
1208.00,50.634
1209.00,50.646
1210.00,50.640
1211.00,50.638
1212.00,50.662
1213.00,50.620
1214.00,50.651
1215.00,50.632
1216.00,50.638
1217.00,50.646
1218.00,50.624
1219.00,50.635
1220.00,50.618
1221.00,50.641
1222.00,50.624
1223.00,50.645
1224.00,50.652
1225.00,50.624
1226.00,50.636
1227.00,50.631
1228.00,50.646
1229.00,50.634
1230.00,50.660
1231.00,50.668
1232.00,50.693
1233.00,50.688
1234.00,50.687
1235.00,50.688
1236.00,50.690
1237.00,50.690
1238.00,50.690
1239.00,50.688
1240.00,50.667
1241.00,50.677
1242.00,50.685
1243.00,50.695
1244.00,50.665
1245.00,50.701
1246.00,50.701
1247.00,50.687
1248.00,50.682
1249.00,50.695
1250.00,50.703
1251.00,50.697
1252.00,50.708
1253.00,50.699
1254.00,50.732
1255.00,50.711
1256.00,50.688
1257.00,50.697
1258.00,50.732
1259.00,50.721
1260.00,50.741
1261.00,50.742
1262.00,50.727
1263.00,50.718
1264.00,50.730
1265.00,50.725
1266.00,50.712
1267.00,50.731
1268.00,50.750
1269.00,50.756
1270.00,50.755
1271.00,50.758
1272.00,50.761
1273.00,50.785
1274.00,50.784
1275.00,50.794
1276.00,50.793
1277.00,50.794
1278.00,50.801
1279.00,50.786
1280.00,50.782
1281.00,50.796
1282.00,50.805
1283.00,50.812
1284.00,50.817
1285.00,50.799
1286.00,50.819
1287.00,50.808
1288.00,50.810
1289.00,50.811
1290.00,50.849
1291.00,50.842
1292.00,50.841
1293.00,50.836
1294.00,50.867
1295.00,50.866
1296.00,50.863
1297.00,50.880
1298.00,50.908
1299.00,50.864
1300.00,50.886
1301.00,50.883
1302.00,50.909
1303.00,50.915
1304.00,50.884
1305.00,50.914
1306.00,50.926
1307.00,50.936
1308.00,50.945
1309.00,50.951
1310.00,50.954
1311.00,50.950
1312.00,50.945
1313.00,50.959
1314.00,50.973
1315.00,50.972
1316.00,50.979
1317.00,51.013
1318.00,50.987
1319.00,50.989
1320.00,50.993
1321.00,51.152
1322.00,51.148
1323.00,51.127
1324.00,51.095
1325.00,51.094
1326.00,51.122
1327.00,51.092
1328.00,51.095
1329.00,51.082
1330.00,51.087
1331.00,51.111
1332.00,51.102
1333.00,51.070
1334.00,51.143
1335.00,51.125
1336.00,51.155
1337.00,51.203
1338.00,51.262
1339.00,51.312
1340.00,51.374
1341.00,51.440
1342.00,51.510
1343.00,51.569
1344.00,51.612
1345.00,51.648
1346.00,51.664
1347.00,51.729
1348.00,51.768
1349.00,51.739
1350.00,51.764
1351.00,51.768
1352.00,51.764
1353.00,51.768
1354.00,51.795
1355.00,51.790
1356.00,51.823
1357.00,51.806
1358.00,51.834
1359.00,51.829
1360.00,51.811
1361.00,51.917
1362.00,51.864
1363.00,51.843
1364.00,51.951
1365.00,51.817
1366.00,51.879
1367.00,51.824
1368.00,51.772
1369.00,51.867
1370.00,51.797
1371.00,51.672
1372.00,51.754
1373.00,51.825
1374.00,51.834
1375.00,51.824
1376.00,51.813
1377.00,51.811
1378.00,51.865
1379.00,51.839
1380.00,51.855
1381.00,51.804
1382.00,51.770
1383.00,51.834
1384.00,51.740
1385.00,51.804
1386.00,51.853
1387.00,51.751
1388.00,51.742
1389.00,51.859
1390.00,51.811
1391.00,51.800
1392.00,51.819
1393.00,51.970
1394.00,51.867
1395.00,51.850
1396.00,51.647
1397.00,51.855
1398.00,51.848
1399.00,51.827
1400.00,51.730
1401.00,51.769
1402.00,51.908
1403.00,51.791
1404.00,51.748
1405.00,51.867
1406.00,51.859
1407.00,51.870
1408.00,51.834
1409.00,51.817
1410.00,51.869
1411.00,51.868
1412.00,51.913
1413.00,51.829
1414.00,51.842
1415.00,51.878
1416.00,51.928
1417.00,51.943
1418.00,51.909
1419.00,51.922
1420.00,51.947
1421.00,52.011
1422.00,51.994
1423.00,51.989
1424.00,51.995
1425.00,52.019
1426.00,52.020
1427.00,52.041
1428.00,52.030
1429.00,52.047
1430.00,52.068
1431.00,52.060
1432.00,52.106
1433.00,52.126
1434.00,52.088
1435.00,52.144
1436.00,52.185
1437.00,52.152
1438.00,52.162
1439.00,52.197
1440.00,52.209
1441.00,52.198
1442.00,52.209
1443.00,52.269
1444.00,52.348
1445.00,52.248
1446.00,52.281
1447.00,52.319
1448.00,52.350
1449.00,52.372
1450.00,52.379
1451.00,52.369
1452.00,52.387
1453.00,52.406
1454.00,52.415
1455.00,52.437
1456.00,52.445
1457.00,52.431
1458.00,52.465
1459.00,52.466
1460.00,52.489
1461.00,52.490
1462.00,52.536
1463.00,52.561
1464.00,52.570
1465.00,52.574
1466.00,52.571
1467.00,52.588
1468.00,52.641
1469.00,52.626
1470.00,52.634
1471.00,52.648
1472.00,52.655
1473.00,52.681
1474.00,52.709
1475.00,52.730
1476.00,52.748
1477.00,52.730
1478.00,52.735
1479.00,52.764
1480.00,52.764
1481.00,52.764
1482.00,52.792
1483.00,52.811
1484.00,52.839
1485.00,52.828
1486.00,52.839
1487.00,52.854
1488.00,52.881
1489.00,52.863
1490.00,52.903
1491.00,52.912
1492.00,52.932
1493.00,52.915
1494.00,52.954
1495.00,52.952
1496.00,52.966
1497.00,52.952
1498.00,52.973
1499.00,52.993
1500.00,52.995
1501.00, 
1502.00, 
1503.00, 
1504.00, 
1505.00, 
1506.00, 
1507.00, 
1508.00, 
1509.00, 
1510.00, 
1511.00, 
1512.00, 
1513.00, 
1514.00, 
1515.00, 
1516.00, 
1517.00, 
1518.00, 
1519.00, 
1520.00, 
1521.00, 
1522.00, 
1523.00, 
1524.00, 
1525.00, 
1526.00, 
1527.00, 
1528.00, 
1529.00, 
1530.00, 
1531.00, 
1532.00, 
1533.00, 
1534.00, 
1535.00, 
1536.00, 
1537.00, 
1538.00, 
1539.00, 
1540.00, 
1541.00, 
1542.00, 
1543.00, 
1544.00, 
1545.00, 
1546.00, 
1547.00, 
1548.00, 
1549.00, 
1550.00, 
1551.00, 
1552.00, 
1553.00, 
1554.00, 
1555.00, 
1556.00, 
1557.00, 
1558.00, 
1559.00, 
1560.00, 
1561.00, 
1562.00, 
1563.00, 
1564.00, 
1565.00, 
1566.00, 
1567.00, 
1568.00, 
1569.00, 
1570.00, 
1571.00, 
1572.00, 
1573.00, 
1574.00, 
1575.00, 
1576.00, 
1577.00, 
1578.00, 
1579.00, 
1580.00, 
1581.00, 
1582.00, 
1583.00, 
1584.00, 
1585.00, 
1586.00, 
1587.00, 
1588.00, 
1589.00, 
1590.00, 
1591.00, 
1592.00, 
1593.00, 
1594.00, 
1595.00, 
1596.00, 
1597.00, 
1598.00, 
1599.00, 
1600.00, 
1601.00, 
1602.00, 
1603.00, 
1604.00, 
1605.00, 
1606.00, 
1607.00, 
1608.00, 
1609.00, 
1610.00, 
1611.00, 
1612.00, 
1613.00, 
1614.00, 
1615.00, 
1616.00, 
1617.00, 
1618.00, 
1619.00, 
1620.00, 
1621.00, 
1622.00, 
1623.00, 
1624.00, 
1625.00, 
1626.00, 
1627.00, 
1628.00, 
1629.00, 
1630.00, 
1631.00, 
1632.00, 
1633.00, 
1634.00, 
1635.00, 
1636.00, 
1637.00, 
1638.00, 
1639.00, 
1640.00, 
1641.00, 
1642.00, 
1643.00, 
1644.00, 
1645.00, 
1646.00, 
1647.00, 
1648.00, 
1649.00, 
1650.00, 
1651.00, 
1652.00, 
1653.00, 
1654.00, 
1655.00, 
1656.00, 
1657.00, 
1658.00, 
1659.00, 
1660.00, 
1661.00, 
1662.00, 
1663.00, 
1664.00, 
1665.00, 
1666.00, 
1667.00, 
1668.00, 
1669.00, 
1670.00, 
1671.00, 
1672.00, 
1673.00, 
1674.00, 
1675.00, 
1676.00, 
1677.00, 
1678.00, 
1679.00, 
1680.00, 
1681.00, 
1682.00, 
1683.00, 
1684.00, 
1685.00, 
1686.00, 
1687.00, 
1688.00, 
1689.00, 
1690.00, 
1691.00, 
1692.00, 
1693.00, 
1694.00, 
1695.00, 
1696.00, 
1697.00, 
1698.00, 
1699.00, 
1700.00, 
1701.00, 
1702.00, 
1703.00, 
1704.00, 
1705.00, 
1706.00, 
1707.00, 
1708.00, 
1709.00, 
1710.00, 
1711.00, 
1712.00, 
1713.00, 
1714.00, 
1715.00, 
1716.00, 
1717.00, 
1718.00, 
1719.00, 
1720.00, 
1721.00, 
1722.00, 
1723.00, 
1724.00, 
1725.00, 
1726.00, 
1727.00, 
1728.00, 
1729.00, 
1730.00, 
1731.00, 
1732.00, 
1733.00, 
1734.00, 
1735.00, 
1736.00, 
1737.00, 
1738.00, 
1739.00, 
1740.00, 
1741.00, 
1742.00, 
1743.00, 
1744.00, 
1745.00, 
1746.00, 
1747.00, 
1748.00, 
1749.00, 
1750.00, 
1751.00, 
1752.00, 
1753.00, 
1754.00, 
1755.00, 
1756.00, 
1757.00, 
1758.00, 
1759.00, 
1760.00, 
1761.00, 
1762.00, 
1763.00, 
1764.00, 
1765.00, 
1766.00, 
1767.00, 
1768.00, 
1769.00, 
1770.00, 
1771.00, 
1772.00, 
1773.00, 
1774.00, 
1775.00, 
1776.00, 
1777.00, 
1778.00, 
1779.00, 
1780.00, 
1781.00, 
1782.00, 
1783.00, 
1784.00, 
1785.00, 
1786.00, 
1787.00, 
1788.00, 
1789.00, 
1790.00, 
1791.00, 
1792.00, 
1793.00, 
1794.00, 
1795.00, 
1796.00, 
1797.00, 
1798.00, 
1799.00, 
1800.00, 
1801.00, 
1802.00, 
1803.00, 
1804.00, 
1805.00, 
1806.00, 
1807.00, 
1808.00, 
1809.00, 
1810.00, 
1811.00, 
1812.00, 
1813.00, 
1814.00, 
1815.00, 
1816.00, 
1817.00, 
1818.00, 
1819.00, 
1820.00, 
1821.00, 
1822.00, 
1823.00, 
1824.00, 
1825.00, 
1826.00, 
1827.00, 
1828.00, 
1829.00, 
1830.00, 
1831.00, 
1832.00, 
1833.00, 
1834.00, 
1835.00, 
1836.00, 
1837.00, 
1838.00, 
1839.00, 
1840.00, 
1841.00, 
1842.00, 
1843.00, 
1844.00, 
1845.00, 
1846.00, 
1847.00, 
1848.00, 
1849.00, 
1850.00, 
1851.00, 
1852.00, 
1853.00, 
1854.00, 
1855.00, 
1856.00, 
1857.00, 
1858.00, 
1859.00, 
1860.00, 
1861.00, 
1862.00, 
1863.00, 
1864.00, 
1865.00, 
1866.00, 
1867.00, 
1868.00, 
1869.00, 
1870.00, 
1871.00, 
1872.00, 
1873.00, 
1874.00, 
1875.00, 
1876.00, 
1877.00, 
1878.00, 
1879.00, 
1880.00, 
1881.00, 
1882.00, 
1883.00, 
1884.00, 
1885.00, 
1886.00, 
1887.00, 
1888.00, 
1889.00, 
1890.00, 
1891.00, 
1892.00, 
1893.00, 
1894.00, 
1895.00, 
1896.00, 
1897.00, 
1898.00, 
1899.00, 
1900.00, 
1901.00, 
1902.00, 
1903.00, 
1904.00, 
1905.00, 
1906.00, 
1907.00, 
1908.00, 
1909.00, 
1910.00, 
1911.00, 
1912.00, 
1913.00, 
1914.00, 
1915.00, 
1916.00, 
1917.00, 
1918.00, 
1919.00, 
1920.00, 
1921.00, 
1922.00, 
1923.00, 
1924.00, 
1925.00, 
1926.00, 
1927.00, 
1928.00, 
1929.00, 
1930.00, 
1931.00, 
1932.00, 
1933.00, 
1934.00, 
1935.00, 
1936.00, 
1937.00, 
1938.00, 
1939.00, 
1940.00, 
1941.00, 
1942.00, 
1943.00, 
1944.00, 
1945.00, 
1946.00, 
1947.00, 
1948.00, 
1949.00, 
1950.00, 
1951.00, 
1952.00, 
1953.00, 
1954.00, 
1955.00, 
1956.00, 
1957.00, 
1958.00, 
1959.00, 
1960.00, 
1961.00, 
1962.00, 
1963.00, 
1964.00, 
1965.00, 
1966.00, 
1967.00, 
1968.00, 
1969.00, 
1970.00, 
1971.00, 
1972.00, 
1973.00, 
1974.00, 
1975.00, 
1976.00, 
1977.00, 
1978.00, 
1979.00, 
1980.00, 
1981.00, 
1982.00, 
1983.00, 
1984.00, 
1985.00, 
1986.00, 
1987.00, 
1988.00, 
1989.00, 
1990.00, 
1991.00, 
1992.00, 
1993.00, 
1994.00, 
1995.00, 
1996.00, 
1997.00, 
1998.00, 
1999.00, 
2000.00, 
2001.00, 
2002.00, 
2003.00, 
2004.00, 
2005.00, 
2006.00, 
2007.00, 
2008.00, 
2009.00, 
2010.00, 
2011.00, 
2012.00, 
2013.00, 
2014.00, 
2015.00, 
2016.00, 
2017.00, 
2018.00, 
2019.00, 
2020.00, 
2021.00, 
2022.00, 
2023.00, 
2024.00, 
2025.00, 
2026.00, 
2027.00, 
2028.00, 
2029.00, 
2030.00, 
2031.00, 
2032.00, 
2033.00, 
2034.00, 
2035.00, 
2036.00, 
2037.00, 
2038.00, 
2039.00, 
2040.00, 
2041.00, 
2042.00, 
2043.00, 
2044.00, 
2045.00, 
2046.00, 
2047.00, 
2048.00, 
2049.00, 
2050.00, 
2051.00, 
2052.00, 
2053.00, 
2054.00, 
2055.00, 
2056.00, 
2057.00, 
2058.00, 
2059.00, 
2060.00, 
2061.00, 
2062.00, 
2063.00, 
2064.00, 
2065.00, 
2066.00, 
2067.00, 
2068.00, 
2069.00, 
2070.00, 
2071.00, 
2072.00, 
2073.00, 
2074.00, 
2075.00, 
2076.00, 
2077.00, 
2078.00, 
2079.00, 
2080.00, 
2081.00, 
2082.00, 
2083.00, 
2084.00, 
2085.00, 
2086.00, 
2087.00, 
2088.00, 
2089.00, 
2090.00, 
2091.00, 
2092.00, 
2093.00, 
2094.00, 
2095.00, 
2096.00, 
2097.00, 
2098.00, 
2099.00, 
2100.00, 
2101.00, 
2102.00, 
2103.00, 
2104.00, 
2105.00, 
2106.00, 
2107.00, 
2108.00, 
2109.00, 
2110.00, 
2111.00, 
2112.00, 
2113.00, 
2114.00, 
2115.00, 
2116.00, 
2117.00, 
2118.00, 
2119.00, 
2120.00, 
2121.00, 
2122.00, 
2123.00, 
2124.00, 
2125.00, 
2126.00, 
2127.00, 
2128.00, 
2129.00, 
2130.00, 
2131.00, 
2132.00, 
2133.00, 
2134.00, 
2135.00, 
2136.00, 
2137.00, 
2138.00, 
2139.00, 
2140.00, 
2141.00, 
2142.00, 
2143.00, 
2144.00, 
2145.00, 
2146.00, 
2147.00, 
2148.00, 
2149.00, 
2150.00, 
2151.00, 
2152.00, 
2153.00, 
2154.00, 
2155.00, 
2156.00, 
2157.00, 
2158.00, 
2159.00, 
2160.00, 
2161.00, 
2162.00, 
2163.00, 
2164.00, 
2165.00, 
2166.00, 
2167.00, 
2168.00, 
2169.00, 
2170.00, 
2171.00, 
2172.00, 
2173.00, 
2174.00, 
2175.00, 
2176.00, 
2177.00, 
2178.00, 
2179.00, 
2180.00, 
2181.00, 
2182.00, 
2183.00, 
2184.00, 
2185.00, 
2186.00, 
2187.00, 
2188.00, 
2189.00, 
2190.00, 
2191.00, 
2192.00, 
2193.00, 
2194.00, 
2195.00, 
2196.00, 
2197.00, 
2198.00, 
2199.00, 
2200.00, 
2201.00, 
2202.00, 
2203.00, 
2204.00, 
2205.00, 
2206.00, 
2207.00, 
2208.00, 
2209.00, 
2210.00, 
2211.00, 
2212.00, 
2213.00, 
2214.00, 
2215.00, 
2216.00, 
2217.00, 
2218.00, 
2219.00, 
2220.00, 
2221.00, 
2222.00, 
2223.00, 
2224.00, 
2225.00, 
2226.00, 
2227.00, 
2228.00, 
2229.00, 
2230.00, 
2231.00, 
2232.00, 
2233.00, 
2234.00, 
2235.00, 
2236.00, 
2237.00, 
2238.00, 
2239.00, 
2240.00, 
2241.00, 
2242.00, 
2243.00, 
2244.00, 
2245.00, 
2246.00, 
2247.00, 
2248.00, 
2249.00, 
2250.00, 
2251.00, 
2252.00, 
2253.00, 
2254.00, 
2255.00, 
2256.00, 
2257.00, 
2258.00, 
2259.00, 
2260.00, 
2261.00, 
2262.00, 
2263.00, 
2264.00, 
2265.00, 
2266.00, 
2267.00, 
2268.00, 
2269.00, 
2270.00, 
2271.00, 
2272.00, 
2273.00, 
2274.00, 
2275.00, 
2276.00, 
2277.00, 
2278.00, 
2279.00, 
2280.00, 
2281.00, 
2282.00, 
2283.00, 
2284.00, 
2285.00, 
2286.00, 
2287.00, 
2288.00, 
2289.00, 
2290.00, 
2291.00, 
2292.00, 
2293.00, 
2294.00, 
2295.00, 
2296.00, 
2297.00, 
2298.00, 
2299.00, 
2300.00, 
2301.00, 
2302.00, 
2303.00, 
2304.00, 
2305.00, 
2306.00, 
2307.00, 
2308.00, 
2309.00, 
2310.00, 
2311.00, 
2312.00, 
2313.00, 
2314.00, 
2315.00, 
2316.00, 
2317.00, 
2318.00, 
2319.00, 
2320.00, 
2321.00, 
2322.00, 
2323.00, 
2324.00, 
2325.00, 
2326.00, 
2327.00, 
2328.00, 
2329.00, 
2330.00, 
2331.00, 
2332.00, 
2333.00, 
2334.00, 
2335.00, 
2336.00, 
2337.00, 
2338.00, 
2339.00, 
2340.00, 
2341.00, 
2342.00, 
2343.00, 
2344.00, 
2345.00, 
2346.00, 
2347.00, 
2348.00, 
2349.00, 
2350.00, 
2351.00, 
2352.00, 
2353.00, 
2354.00, 
2355.00, 
2356.00, 
2357.00, 
2358.00, 
2359.00, 
2360.00, 
2361.00, 
2362.00, 
2363.00, 
2364.00, 
2365.00, 
2366.00, 
2367.00, 
2368.00, 
2369.00, 
2370.00, 
2371.00, 
2372.00, 
2373.00, 
2374.00, 
2375.00, 
2376.00, 
2377.00, 
2378.00, 
2379.00, 
2380.00, 
2381.00, 
2382.00, 
2383.00, 
2384.00, 
2385.00, 
2386.00, 
2387.00, 
2388.00, 
2389.00, 
2390.00, 
2391.00, 
2392.00, 
2393.00, 
2394.00, 
2395.00, 
2396.00, 
2397.00, 
2398.00, 
2399.00, 
2400.00, 
2401.00, 
2402.00, 
2403.00, 
2404.00, 
2405.00, 
2406.00, 
2407.00, 
2408.00, 
2409.00, 
2410.00, 
2411.00, 
2412.00, 
2413.00, 
2414.00, 
2415.00, 
2416.00, 
2417.00, 
2418.00, 
2419.00, 
2420.00, 
2421.00, 
2422.00, 
2423.00, 
2424.00, 
2425.00, 
2426.00, 
2427.00, 
2428.00, 
2429.00, 
2430.00, 
2431.00, 
2432.00, 
2433.00, 
2434.00, 
2435.00, 
2436.00, 
2437.00, 
2438.00, 
2439.00, 
2440.00, 
2441.00, 
2442.00, 
2443.00, 
2444.00, 
2445.00, 
2446.00, 
2447.00, 
2448.00, 
2449.00, 
2450.00, 
2451.00, 
2452.00, 
2453.00, 
2454.00, 
2455.00, 
2456.00, 
2457.00, 
2458.00, 
2459.00, 
2460.00, 
2461.00, 
2462.00, 
2463.00, 
2464.00, 
2465.00, 
2466.00, 
2467.00, 
2468.00, 
2469.00, 
2470.00, 
2471.00, 
2472.00, 
2473.00, 
2474.00, 
2475.00, 
2476.00, 
2477.00, 
2478.00, 
2479.00, 
2480.00, 
2481.00, 
2482.00, 
2483.00, 
2484.00, 
2485.00, 
2486.00, 
2487.00, 
2488.00, 
2489.00, 
2490.00, 
2491.00, 
2492.00, 
2493.00, 
2494.00, 
2495.00, 
2496.00, 
2497.00, 
2498.00, 
2499.00, 
2500.00, 
2501.00, 
2502.00, 
2503.00, 
2504.00, 
2505.00, 
2506.00, 
2507.00, 
2508.00, 
2509.00, 
2510.00, 
2511.00, 
2512.00, 
2513.00, 
2514.00, 
2515.00, 
2516.00, 
2517.00, 
2518.00, 
2519.00, 
2520.00, 
2521.00, 
2522.00, 
2523.00, 
2524.00, 
2525.00, 
2526.00, 
2527.00, 
2528.00, 
2529.00, 
2530.00, 
2531.00, 
2532.00, 
2533.00, 
2534.00, 
2535.00, 
2536.00, 
2537.00, 
2538.00, 
2539.00, 
2540.00, 
2541.00, 
2542.00, 
2543.00, 
2544.00, 
2545.00, 
2546.00, 
2547.00, 
2548.00, 
2549.00, 
2550.00, 
2551.00, 
2552.00, 
2553.00, 
2554.00, 
2555.00, 
2556.00, 
2557.00, 
2558.00, 
2559.00, 
2560.00, 
2561.00, 
2562.00, 
2563.00, 
2564.00, 
2565.00, 
2566.00, 
2567.00, 
2568.00, 
2569.00, 
2570.00, 
2571.00, 
2572.00, 
2573.00, 
2574.00, 
2575.00, 
2576.00, 
2577.00, 
2578.00, 
2579.00, 
2580.00, 
2581.00, 
2582.00, 
2583.00, 
2584.00, 
2585.00, 
2586.00, 
2587.00, 
2588.00, 
2589.00, 
2590.00, 
2591.00, 
2592.00, 
2593.00, 
2594.00, 
2595.00, 
2596.00, 
2597.00, 
2598.00, 
2599.00, 
2600.00, 
