"2cP1 - RawData"
"Wavelength nm.","T%"
200.00,-0.001
201.00,0.001
202.00,0.001
203.00,-0.001
204.00,-0.004
205.00,0.002
206.00,0.004
207.00,0.002
208.00,0.002
209.00,0.003
210.00,0.003
211.00,0.003
212.00,0.000
213.00,0.000
214.00,0.000
215.00,0.001
216.00,0.002
217.00,-0.000
218.00,0.001
219.00,0.001
220.00,-0.002
221.00,0.001
222.00,0.002
223.00,0.000
224.00,-0.000
225.00,0.001
226.00,-0.000
227.00,0.001
228.00,0.002
229.00,0.004
230.00,0.004
231.00,0.001
232.00,0.003
233.00,0.002
234.00,0.001
235.00,0.004
236.00,0.001
237.00,0.001
238.00,0.000
239.00,-0.000
240.00,-0.000
241.00,0.002
242.00,0.002
243.00,0.001
244.00,0.002
245.00,0.002
246.00,-0.000
247.00,-0.002
248.00,0.001
249.00,-0.000
250.00,-0.000
251.00,-0.002
252.00,-0.001
253.00,0.001
254.00,0.001
255.00,0.002
256.00,-0.000
257.00,-0.000
258.00,0.001
259.00,-0.001
260.00,0.001
261.00,-0.001
262.00,0.001
263.00,0.001
264.00,0.001
265.00,-0.000
266.00,0.001
267.00,-0.001
268.00,-0.001
269.00,0.000
270.00,0.001
271.00,0.000
272.00,0.000
273.00,0.001
274.00,0.002
275.00,-0.000
276.00,0.001
277.00,0.001
278.00,-0.000
279.00,0.000
280.00,-0.000
281.00,0.000
282.00,-0.000
283.00,0.001
284.00,0.000
285.00,0.002
286.00,-0.002
287.00,-0.000
288.00,-0.000
289.00,0.000
290.00,-0.002
291.00,0.001
292.00,-0.001
293.00,-0.000
294.00,0.000
295.00,0.000
296.00,0.000
297.00,-0.000
298.00,0.001
299.00,0.002
300.00,0.003
301.00,0.004
302.00,0.005
303.00,0.006
304.00,0.013
305.00,0.018
306.00,0.030
307.00,0.043
308.00,0.067
309.00,0.110
310.00,0.153
311.00,0.206
312.00,0.266
313.00,0.372
314.00,0.495
315.00,0.650
316.00,0.830
317.00,1.065
318.00,1.300
319.00,1.617
320.00,1.923
321.00,2.262
322.00,2.751
323.00,3.245
324.00,3.783
325.00,4.305
326.00,4.867
327.00,5.481
328.00,6.117
329.00,6.801
330.00,7.498
331.00,8.181
332.00,8.893
333.00,9.633
334.00,10.334
335.00,11.099
336.00,11.829
337.00,12.583
338.00,13.262
339.00,13.921
340.00,14.640
341.00,15.313
342.00,15.877
343.00,16.521
344.00,17.092
345.00,17.674
346.00,18.122
347.00,18.682
348.00,19.141
349.00,19.574
350.00,20.009
351.00,20.426
352.00,20.765
353.00,21.090
354.00,21.474
355.00,21.783
356.00,22.086
357.00,22.362
358.00,22.608
359.00,22.835
360.00,23.031
361.00,23.210
362.00,23.418
363.00,23.551
364.00,23.821
365.00,23.975
366.00,24.022
367.00,24.171
368.00,24.257
369.00,24.308
370.00,24.366
371.00,24.394
372.00,24.436
373.00,24.464
374.00,24.430
375.00,24.427
376.00,24.382
377.00,24.420
378.00,24.354
379.00,24.309
380.00,24.297
381.00,24.316
382.00,24.282
383.00,24.320
384.00,24.268
385.00,24.438
386.00,24.467
387.00,24.500
388.00,24.566
389.00,24.602
390.00,24.657
391.00,24.684
392.00,24.714
393.00,24.776
394.00,24.761
395.00,24.773
396.00,24.797
397.00,24.806
398.00,24.841
399.00,24.853
400.00,24.867
401.00,24.885
402.00,24.840
403.00,24.851
404.00,24.844
405.00,24.892
406.00,24.806
407.00,24.826
408.00,24.822
409.00,24.769
410.00,24.721
411.00,24.719
412.00,24.710
413.00,24.710
414.00,24.690
415.00,24.703
416.00,24.764
417.00,24.751
418.00,24.764
419.00,24.769
420.00,24.812
421.00,24.902
422.00,24.920
423.00,24.955
424.00,24.969
425.00,25.002
426.00,25.036
427.00,25.095
428.00,25.118
429.00,25.134
430.00,25.182
431.00,25.243
432.00,25.282
433.00,25.269
434.00,25.401
435.00,25.453
436.00,25.539
437.00,25.551
438.00,25.633
439.00,25.703
440.00,25.739
441.00,25.853
442.00,25.900
443.00,25.991
444.00,26.063
445.00,26.148
446.00,26.237
447.00,26.317
448.00,26.374
449.00,26.544
450.00,26.616
451.00,26.725
452.00,26.813
453.00,26.943
454.00,27.067
455.00,27.108
456.00,27.217
457.00,27.352
458.00,27.447
459.00,27.548
460.00,27.661
461.00,27.675
462.00,27.920
463.00,27.998
464.00,28.144
465.00,28.238
466.00,28.330
467.00,28.453
468.00,28.521
469.00,28.656
470.00,28.751
471.00,28.864
472.00,28.965
473.00,29.053
474.00,29.164
475.00,29.292
476.00,29.381
477.00,29.458
478.00,29.567
479.00,29.660
480.00,29.910
481.00,30.036
482.00,30.148
483.00,30.314
484.00,30.440
485.00,30.630
486.00,30.694
487.00,30.869
488.00,30.998
489.00,31.153
490.00,31.281
491.00,31.430
492.00,31.615
493.00,31.672
494.00,31.679
495.00,31.848
496.00,31.980
497.00,32.105
498.00,32.288
499.00,32.452
500.00,32.463
501.00,32.596
502.00,32.719
503.00,32.851
504.00,32.899
505.00,32.990
506.00,33.197
507.00,33.302
508.00,33.419
509.00,33.502
510.00,33.623
511.00,33.751
512.00,33.878
513.00,33.931
514.00,34.123
515.00,34.203
516.00,34.321
517.00,34.412
518.00,34.546
519.00,34.647
520.00,34.716
521.00,34.777
522.00,34.873
523.00,34.960
524.00,34.991
525.00,35.119
526.00,35.206
527.00,35.248
528.00,35.330
529.00,35.436
530.00,35.553
531.00,35.724
532.00,35.804
533.00,35.861
534.00,35.970
535.00,36.048
536.00,36.165
537.00,36.177
538.00,36.302
539.00,36.372
540.00,36.448
541.00,36.540
542.00,36.539
543.00,36.641
544.00,36.703
545.00,36.777
546.00,36.778
547.00,36.926
548.00,36.981
549.00,37.042
550.00,37.181
551.00,37.198
552.00,37.305
553.00,37.329
554.00,37.448
555.00,37.540
556.00,37.544
557.00,37.590
558.00,37.612
559.00,37.736
560.00,37.781
561.00,37.861
562.00,37.911
563.00,37.996
564.00,38.001
565.00,38.004
566.00,38.075
567.00,38.081
568.00,38.147
569.00,38.199
570.00,38.204
571.00,38.250
572.00,38.303
573.00,38.334
574.00,38.419
575.00,38.410
576.00,38.447
577.00,38.531
578.00,38.598
579.00,38.627
580.00,38.727
581.00,38.804
582.00,38.912
583.00,38.990
584.00,39.051
585.00,39.112
586.00,39.159
587.00,39.240
588.00,39.260
589.00,39.326
590.00,39.387
591.00,39.383
592.00,39.369
593.00,39.389
594.00,39.513
595.00,39.551
596.00,39.615
597.00,39.660
598.00,39.738
599.00,39.730
600.00,39.808
601.00,39.826
602.00,39.870
603.00,39.968
604.00,39.981
605.00,40.014
606.00,40.074
607.00,40.054
608.00,40.196
609.00,40.185
610.00,40.149
611.00,40.308
612.00,40.369
613.00,40.345
614.00,40.404
615.00,40.446
616.00,40.556
617.00,40.570
618.00,40.635
619.00,40.665
620.00,40.700
621.00,40.789
622.00,40.776
623.00,40.865
624.00,40.928
625.00,41.029
626.00,40.983
627.00,41.137
628.00,41.167
629.00,41.201
630.00,41.230
631.00,41.338
632.00,41.380
633.00,41.348
634.00,41.465
635.00,41.578
636.00,41.533
637.00,41.686
638.00,41.793
639.00,41.844
640.00,41.846
641.00,41.903
642.00,41.963
643.00,41.947
644.00,42.153
645.00,42.165
646.00,42.209
647.00,42.290
648.00,42.384
649.00,42.430
650.00,42.405
651.00,42.460
652.00,42.657
653.00,42.725
654.00,42.749
655.00,42.807
656.00,42.966
657.00,43.045
658.00,43.095
659.00,43.181
660.00,43.246
661.00,43.269
662.00,43.447
663.00,43.412
664.00,43.606
665.00,43.596
666.00,43.734
667.00,43.817
668.00,43.833
669.00,43.945
670.00,44.021
671.00,44.066
672.00,44.093
673.00,44.249
674.00,44.294
675.00,44.306
676.00,44.458
677.00,44.492
678.00,44.591
679.00,44.682
680.00,44.694
681.00,44.836
682.00,44.915
683.00,44.997
684.00,45.145
685.00,45.161
686.00,45.172
687.00,45.223
688.00,45.254
689.00,45.349
690.00,45.536
691.00,45.583
692.00,45.586
693.00,45.632
694.00,45.661
695.00,45.756
696.00,45.779
697.00,45.958
698.00,46.001
699.00,46.107
700.00,46.391
701.00,46.253
702.00,46.260
703.00,46.423
704.00,46.549
705.00,46.498
706.00,46.485
707.00,46.580
708.00,46.691
709.00,46.779
710.00,46.961
711.00,46.841
712.00,46.916
713.00,47.001
714.00,47.012
715.00,47.085
716.00,47.163
717.00,47.217
718.00,47.163
719.00,47.289
720.00,47.266
721.00,51.491
722.00,51.467
723.00,51.529
724.00,51.434
725.00,51.442
726.00,51.472
727.00,51.449
728.00,51.450
729.00,51.525
730.00,51.515
731.00,51.569
732.00,51.504
733.00,51.545
734.00,51.581
735.00,51.637
736.00,51.645
737.00,51.693
738.00,51.654
739.00,51.671
740.00,51.725
741.00,51.771
742.00,51.769
743.00,51.764
744.00,51.695
745.00,51.761
746.00,51.721
747.00,51.776
748.00,51.678
749.00,51.771
750.00,51.738
751.00,51.643
752.00,51.669
753.00,51.715
754.00,51.701
755.00,51.750
756.00,51.752
757.00,51.679
758.00,51.674
759.00,51.688
760.00,51.674
761.00,51.659
762.00,51.650
763.00,51.743
764.00,51.754
765.00,51.743
766.00,51.782
767.00,51.766
768.00,51.802
769.00,51.760
770.00,51.799
771.00,51.781
772.00,51.740
773.00,51.760
774.00,51.799
775.00,51.738
776.00,51.774
777.00,51.735
778.00,51.788
779.00,51.849
780.00,51.745
781.00,51.756
782.00,51.774
783.00,51.759
784.00,51.724
785.00,51.715
786.00,51.708
787.00,51.710
788.00,51.683
789.00,51.689
790.00,51.706
791.00,51.632
792.00,51.620
793.00,51.593
794.00,51.566
795.00,51.564
796.00,51.670
797.00,51.576
798.00,51.550
799.00,51.622
800.00,51.517
801.00,51.518
802.00,51.546
803.00,51.583
804.00,51.446
805.00,51.445
806.00,51.425
807.00,51.454
808.00,51.447
809.00,51.432
810.00,51.383
811.00,51.411
812.00,51.410
813.00,51.245
814.00,51.331
815.00,51.301
816.00,51.365
817.00,51.252
818.00,51.238
819.00,51.244
820.00,51.222
821.00,51.176
822.00,51.204
823.00,51.171
824.00,51.186
825.00,51.077
826.00,51.094
827.00,51.162
828.00,51.089
829.00,51.091
830.00,50.999
831.00,53.622
832.00,53.565
833.00,53.591
834.00,53.577
835.00,53.520
836.00,53.571
837.00,53.438
838.00,53.440
839.00,53.452
840.00,53.431
841.00,53.379
842.00,53.327
843.00,53.355
844.00,53.352
845.00,53.284
846.00,53.291
847.00,53.305
848.00,53.244
849.00,53.224
850.00,53.221
851.00,53.126
852.00,53.116
853.00,53.061
854.00,53.095
855.00,52.995
856.00,53.013
857.00,52.956
858.00,52.960
859.00,52.916
860.00,52.891
861.00,52.900
862.00,52.865
863.00,52.878
864.00,52.815
865.00,52.868
866.00,52.801
867.00,52.805
868.00,52.790
869.00,52.762
870.00,52.769
871.00,52.749
872.00,52.743
873.00,52.697
874.00,52.740
875.00,52.712
876.00,52.669
877.00,52.686
878.00,52.675
879.00,52.639
880.00,52.601
881.00,52.623
882.00,52.737
883.00,52.568
884.00,52.563
885.00,52.537
886.00,52.493
887.00,52.481
888.00,52.464
889.00,52.448
890.00,52.446
891.00,52.351
892.00,52.399
893.00,52.380
894.00,52.363
895.00,52.331
896.00,52.316
897.00,52.311
898.00,52.270
899.00,52.275
900.00,52.266
901.00,52.262
902.00,52.240
903.00,52.199
904.00,52.200
905.00,52.180
906.00,52.171
907.00,52.135
908.00,52.109
909.00,52.120
910.00,52.013
911.00,52.142
912.00,52.065
913.00,51.974
914.00,51.991
915.00,51.945
916.00,51.939
917.00,51.924
918.00,51.901
919.00,51.885
920.00,51.899
921.00,51.827
922.00,51.921
923.00,51.827
924.00,51.787
925.00,51.762
926.00,51.763
927.00,51.732
928.00,51.718
929.00,51.696
930.00,51.671
931.00,51.690
932.00,51.562
933.00,51.640
934.00,51.639
935.00,51.600
936.00,51.575
937.00,51.563
938.00,51.536
939.00,51.542
940.00,51.507
941.00,51.485
942.00,51.465
943.00,51.463
944.00,51.402
945.00,51.425
946.00,51.406
947.00,51.359
948.00,51.335
949.00,51.332
950.00,51.322
951.00,51.277
952.00,51.260
953.00,51.325
954.00,51.212
955.00,51.165
956.00,51.162
957.00,51.120
958.00,51.141
959.00,51.095
960.00,51.077
961.00,51.072
962.00,51.068
963.00,51.022
964.00,51.018
965.00,51.003
966.00,51.006
967.00,50.986
968.00,51.007
969.00,51.005
970.00,50.966
971.00,50.972
972.00,50.944
973.00,50.971
974.00,50.974
975.00,50.950
976.00,50.972
977.00,50.939
978.00,50.994
979.00,50.951
980.00,50.971
981.00,50.973
982.00,50.953
983.00,50.961
984.00,50.932
985.00,50.950
986.00,50.905
987.00,50.924
988.00,50.903
989.00,50.889
990.00,50.889
991.00,50.862
992.00,50.885
993.00,50.848
994.00,50.833
995.00,50.825
996.00,50.810
997.00,50.817
998.00,50.774
999.00,50.792
1000.00,50.736
1001.00,50.738
1002.00,50.721
1003.00,50.718
1004.00,50.691
1005.00,50.670
1006.00,50.690
1007.00,50.655
1008.00,50.662
1009.00,50.632
1010.00,50.621
1011.00,50.626
1012.00,50.590
1013.00,50.624
1014.00,50.626
1015.00,50.570
1016.00,50.534
1017.00,50.538
1018.00,50.516
1019.00,50.488
1020.00,50.475
1021.00,50.449
1022.00,50.462
1023.00,50.415
1024.00,50.417
1025.00,50.406
1026.00,50.395
1027.00,50.380
1028.00,50.362
1029.00,50.366
1030.00,50.322
1031.00,50.330
1032.00,50.294
1033.00,50.291
1034.00,50.255
1035.00,50.222
1036.00,50.211
1037.00,50.181
1038.00,50.179
1039.00,50.144
1040.00,50.138
1041.00,50.112
1042.00,50.110
1043.00,50.080
1044.00,50.111
1045.00,50.082
1046.00,50.072
1047.00,50.075
1048.00,50.088
1049.00,50.096
1050.00,50.101
1051.00,50.119
1052.00,50.137
1053.00,50.146
1054.00,50.136
1055.00,50.159
1056.00,50.155
1057.00,50.169
1058.00,50.167
1059.00,50.159
1060.00,50.218
1061.00,50.156
1062.00,50.135
1063.00,50.147
1064.00,50.129
1065.00,50.118
1066.00,50.110
1067.00,50.084
1068.00,50.105
1069.00,50.085
1070.00,50.061
1071.00,50.056
1072.00,50.058
1073.00,50.028
1074.00,50.037
1075.00,50.013
1076.00,50.017
1077.00,49.999
1078.00,49.989
1079.00,49.980
1080.00,49.981
1081.00,49.952
1082.00,49.946
1083.00,49.946
1084.00,49.931
1085.00,49.929
1086.00,49.927
1087.00,49.916
1088.00,49.945
1089.00,49.925
1090.00,49.893
1091.00,49.886
1092.00,49.873
1093.00,49.858
1094.00,49.840
1095.00,49.842
1096.00,49.826
1097.00,49.815
1098.00,49.809
1099.00,49.812
1100.00,49.796
1101.00,49.779
1102.00,49.781
1103.00,49.756
1104.00,49.752
1105.00,49.733
1106.00,49.733
1107.00,49.730
1108.00,49.712
1109.00,49.692
1110.00,49.697
1111.00,49.690
1112.00,49.671
1113.00,49.653
1114.00,49.652
1115.00,49.657
1116.00,49.647
1117.00,49.623
1118.00,49.630
1119.00,49.608
1120.00,49.614
1121.00,49.638
1122.00,49.647
1123.00,49.591
1124.00,49.600
1125.00,49.584
1126.00,49.584
1127.00,49.569
1128.00,49.546
1129.00,49.529
1130.00,49.523
1131.00,49.523
1132.00,49.547
1133.00,49.524
1134.00,49.512
1135.00,49.503
1136.00,49.491
1137.00,49.517
1138.00,49.498
1139.00,49.491
1140.00,49.486
1141.00,49.471
1142.00,49.465
1143.00,49.484
1144.00,49.448
1145.00,49.447
1146.00,49.464
1147.00,49.440
1148.00,49.438
1149.00,49.443
1150.00,49.436
1151.00,49.454
1152.00,49.436
1153.00,49.426
1154.00,49.426
1155.00,49.431
1156.00,49.410
1157.00,49.405
1158.00,49.407
1159.00,49.412
1160.00,49.398
1161.00,49.394
1162.00,49.388
1163.00,49.385
1164.00,49.369
1165.00,49.382
1166.00,49.374
1167.00,49.368
1168.00,49.381
1169.00,49.361
1170.00,49.367
1171.00,49.340
1172.00,49.341
1173.00,49.348
1174.00,49.348
1175.00,49.348
1176.00,49.353
1177.00,49.336
1178.00,49.343
1179.00,49.346
1180.00,49.340
1181.00,49.355
1182.00,49.345
1183.00,49.348
1184.00,49.332
1185.00,49.342
1186.00,49.332
1187.00,49.345
1188.00,49.334
1189.00,49.333
1190.00,49.312
1191.00,49.322
1192.00,49.328
1193.00,49.327
1194.00,49.328
1195.00,49.316
1196.00,49.345
1197.00,49.331
1198.00,49.320
1199.00,49.306
1200.00,49.300
1201.00,49.319
1202.00,49.297
1203.00,49.309
1204.00,49.290
1205.00,49.310
1206.00,49.287
1207.00,49.290
1208.00,49.283
1209.00,49.286
1210.00,49.285
1211.00,49.279
1212.00,49.297
1213.00,49.254
1214.00,49.289
1215.00,49.269
1216.00,49.274
1217.00,49.284
1218.00,49.269
1219.00,49.271
1220.00,49.272
1221.00,49.296
1222.00,49.272
1223.00,49.289
1224.00,49.279
1225.00,49.278
1226.00,49.289
1227.00,49.268
1228.00,49.302
1229.00,49.326
1230.00,49.318
1231.00,49.321
1232.00,49.328
1233.00,49.325
1234.00,49.325
1235.00,49.312
1236.00,49.328
1237.00,49.314
1238.00,49.318
1239.00,49.323
1240.00,49.315
1241.00,49.319
1242.00,49.335
1243.00,49.355
1244.00,49.334
1245.00,49.345
1246.00,49.346
1247.00,49.353
1248.00,49.341
1249.00,49.343
1250.00,49.347
1251.00,49.340
1252.00,49.357
1253.00,49.350
1254.00,49.369
1255.00,49.372
1256.00,49.344
1257.00,49.332
1258.00,49.379
1259.00,49.363
1260.00,49.373
1261.00,49.377
1262.00,49.367
1263.00,49.360
1264.00,49.399
1265.00,49.384
1266.00,49.378
1267.00,49.384
1268.00,49.405
1269.00,49.402
1270.00,49.398
1271.00,49.395
1272.00,49.409
1273.00,49.411
1274.00,49.408
1275.00,49.410
1276.00,49.413
1277.00,49.410
1278.00,49.435
1279.00,49.426
1280.00,49.438
1281.00,49.437
1282.00,49.446
1283.00,49.443
1284.00,49.452
1285.00,49.429
1286.00,49.448
1287.00,49.444
1288.00,49.464
1289.00,49.460
1290.00,49.467
1291.00,49.478
1292.00,49.485
1293.00,49.458
1294.00,49.492
1295.00,49.500
1296.00,49.494
1297.00,49.515
1298.00,49.523
1299.00,49.505
1300.00,49.513
1301.00,49.506
1302.00,49.526
1303.00,49.547
1304.00,49.525
1305.00,49.535
1306.00,49.545
1307.00,49.543
1308.00,49.552
1309.00,49.550
1310.00,49.550
1311.00,49.553
1312.00,49.544
1313.00,49.550
1314.00,49.555
1315.00,49.569
1316.00,49.574
1317.00,49.590
1318.00,49.584
1319.00,49.592
1320.00,49.609
1321.00,49.765
1322.00,49.797
1323.00,49.773
1324.00,49.771
1325.00,49.761
1326.00,49.796
1327.00,49.768
1328.00,49.770
1329.00,49.765
1330.00,49.755
1331.00,49.782
1332.00,49.786
1333.00,49.726
1334.00,49.828
1335.00,49.812
1336.00,49.847
1337.00,49.871
1338.00,49.930
1339.00,49.985
1340.00,50.032
1341.00,50.092
1342.00,50.169
1343.00,50.206
1344.00,50.266
1345.00,50.322
1346.00,50.350
1347.00,50.384
1348.00,50.416
1349.00,50.431
1350.00,50.443
1351.00,50.451
1352.00,50.453
1353.00,50.472
1354.00,50.465
1355.00,50.422
1356.00,50.498
1357.00,50.486
1358.00,50.483
1359.00,50.529
1360.00,50.545
1361.00,50.501
1362.00,50.482
1363.00,50.544
1364.00,50.531
1365.00,50.502
1366.00,50.595
1367.00,50.457
1368.00,50.442
1369.00,50.529
1370.00,50.437
1371.00,50.404
1372.00,50.456
1373.00,50.456
1374.00,50.499
1375.00,50.468
1376.00,50.470
1377.00,50.491
1378.00,50.585
1379.00,50.441
1380.00,50.482
1381.00,50.372
1382.00,50.368
1383.00,50.438
1384.00,50.360
1385.00,50.444
1386.00,50.477
1387.00,50.353
1388.00,50.362
1389.00,50.463
1390.00,50.481
1391.00,50.426
1392.00,50.450
1393.00,50.639
1394.00,50.567
1395.00,50.457
1396.00,50.288
1397.00,50.474
1398.00,50.479
1399.00,50.378
1400.00,50.382
1401.00,50.404
1402.00,50.492
1403.00,50.433
1404.00,50.417
1405.00,50.470
1406.00,50.431
1407.00,50.333
1408.00,50.444
1409.00,50.409
1410.00,50.491
1411.00,50.526
1412.00,50.557
1413.00,50.467
1414.00,50.463
1415.00,50.515
1416.00,50.552
1417.00,50.544
1418.00,50.540
1419.00,50.526
1420.00,50.555
1421.00,50.604
1422.00,50.597
1423.00,50.585
1424.00,50.597
1425.00,50.614
1426.00,50.628
1427.00,50.638
1428.00,50.653
1429.00,50.675
1430.00,50.689
1431.00,50.676
1432.00,50.728
1433.00,50.740
1434.00,50.710
1435.00,50.775
1436.00,50.791
1437.00,50.765
1438.00,50.792
1439.00,50.822
1440.00,50.850
1441.00,50.845
1442.00,50.846
1443.00,50.901
1444.00,50.906
1445.00,50.876
1446.00,50.903
1447.00,50.920
1448.00,50.957
1449.00,50.969
1450.00,50.934
1451.00,50.968
1452.00,50.959
1453.00,51.009
1454.00,51.006
1455.00,51.028
1456.00,51.039
1457.00,51.040
1458.00,51.072
1459.00,51.091
1460.00,51.098
1461.00,51.108
1462.00,51.129
1463.00,51.148
1464.00,51.152
1465.00,51.178
1466.00,51.175
1467.00,51.193
1468.00,51.232
1469.00,51.228
1470.00,51.234
1471.00,51.239
1472.00,51.257
1473.00,51.275
1474.00,51.293
1475.00,51.308
1476.00,51.324
1477.00,51.312
1478.00,51.315
1479.00,51.346
1480.00,51.362
1481.00,51.353
1482.00,51.380
1483.00,51.383
1484.00,51.407
1485.00,51.419
1486.00,51.413
1487.00,51.429
1488.00,51.448
1489.00,51.449
1490.00,51.469
1491.00,51.467
1492.00,51.475
1493.00,51.479
1494.00,51.513
1495.00,51.521
1496.00,51.504
1497.00,51.519
1498.00,51.528
1499.00,51.555
1500.00,51.586
1501.00, 
1502.00, 
1503.00, 
1504.00, 
1505.00, 
1506.00, 
1507.00, 
1508.00, 
1509.00, 
1510.00, 
1511.00, 
1512.00, 
1513.00, 
1514.00, 
1515.00, 
1516.00, 
1517.00, 
1518.00, 
1519.00, 
1520.00, 
1521.00, 
1522.00, 
1523.00, 
1524.00, 
1525.00, 
1526.00, 
1527.00, 
1528.00, 
1529.00, 
1530.00, 
1531.00, 
1532.00, 
1533.00, 
1534.00, 
1535.00, 
1536.00, 
1537.00, 
1538.00, 
1539.00, 
1540.00, 
1541.00, 
1542.00, 
1543.00, 
1544.00, 
1545.00, 
1546.00, 
1547.00, 
1548.00, 
1549.00, 
1550.00, 
1551.00, 
1552.00, 
1553.00, 
1554.00, 
1555.00, 
1556.00, 
1557.00, 
1558.00, 
1559.00, 
1560.00, 
1561.00, 
1562.00, 
1563.00, 
1564.00, 
1565.00, 
1566.00, 
1567.00, 
1568.00, 
1569.00, 
1570.00, 
1571.00, 
1572.00, 
1573.00, 
1574.00, 
1575.00, 
1576.00, 
1577.00, 
1578.00, 
1579.00, 
1580.00, 
1581.00, 
1582.00, 
1583.00, 
1584.00, 
1585.00, 
1586.00, 
1587.00, 
1588.00, 
1589.00, 
1590.00, 
1591.00, 
1592.00, 
1593.00, 
1594.00, 
1595.00, 
1596.00, 
1597.00, 
1598.00, 
1599.00, 
1600.00, 
1601.00, 
1602.00, 
1603.00, 
1604.00, 
1605.00, 
1606.00, 
1607.00, 
1608.00, 
1609.00, 
1610.00, 
1611.00, 
1612.00, 
1613.00, 
1614.00, 
1615.00, 
1616.00, 
1617.00, 
1618.00, 
1619.00, 
1620.00, 
1621.00, 
1622.00, 
1623.00, 
1624.00, 
1625.00, 
1626.00, 
1627.00, 
1628.00, 
1629.00, 
1630.00, 
1631.00, 
1632.00, 
1633.00, 
1634.00, 
1635.00, 
1636.00, 
1637.00, 
1638.00, 
1639.00, 
1640.00, 
1641.00, 
1642.00, 
1643.00, 
1644.00, 
1645.00, 
1646.00, 
1647.00, 
1648.00, 
1649.00, 
1650.00, 
1651.00, 
1652.00, 
1653.00, 
1654.00, 
1655.00, 
1656.00, 
1657.00, 
1658.00, 
1659.00, 
1660.00, 
1661.00, 
1662.00, 
1663.00, 
1664.00, 
1665.00, 
1666.00, 
1667.00, 
1668.00, 
1669.00, 
1670.00, 
1671.00, 
1672.00, 
1673.00, 
1674.00, 
1675.00, 
1676.00, 
1677.00, 
1678.00, 
1679.00, 
1680.00, 
1681.00, 
1682.00, 
1683.00, 
1684.00, 
1685.00, 
1686.00, 
1687.00, 
1688.00, 
1689.00, 
1690.00, 
1691.00, 
1692.00, 
1693.00, 
1694.00, 
1695.00, 
1696.00, 
1697.00, 
1698.00, 
1699.00, 
1700.00, 
1701.00, 
1702.00, 
1703.00, 
1704.00, 
1705.00, 
1706.00, 
1707.00, 
1708.00, 
1709.00, 
1710.00, 
1711.00, 
1712.00, 
1713.00, 
1714.00, 
1715.00, 
1716.00, 
1717.00, 
1718.00, 
1719.00, 
1720.00, 
1721.00, 
1722.00, 
1723.00, 
1724.00, 
1725.00, 
1726.00, 
1727.00, 
1728.00, 
1729.00, 
1730.00, 
1731.00, 
1732.00, 
1733.00, 
1734.00, 
1735.00, 
1736.00, 
1737.00, 
1738.00, 
1739.00, 
1740.00, 
1741.00, 
1742.00, 
1743.00, 
1744.00, 
1745.00, 
1746.00, 
1747.00, 
1748.00, 
1749.00, 
1750.00, 
1751.00, 
1752.00, 
1753.00, 
1754.00, 
1755.00, 
1756.00, 
1757.00, 
1758.00, 
1759.00, 
1760.00, 
1761.00, 
1762.00, 
1763.00, 
1764.00, 
1765.00, 
1766.00, 
1767.00, 
1768.00, 
1769.00, 
1770.00, 
1771.00, 
1772.00, 
1773.00, 
1774.00, 
1775.00, 
1776.00, 
1777.00, 
1778.00, 
1779.00, 
1780.00, 
1781.00, 
1782.00, 
1783.00, 
1784.00, 
1785.00, 
1786.00, 
1787.00, 
1788.00, 
1789.00, 
1790.00, 
1791.00, 
1792.00, 
1793.00, 
1794.00, 
1795.00, 
1796.00, 
1797.00, 
1798.00, 
1799.00, 
1800.00, 
1801.00, 
1802.00, 
1803.00, 
1804.00, 
1805.00, 
1806.00, 
1807.00, 
1808.00, 
1809.00, 
1810.00, 
1811.00, 
1812.00, 
1813.00, 
1814.00, 
1815.00, 
1816.00, 
1817.00, 
1818.00, 
1819.00, 
1820.00, 
1821.00, 
1822.00, 
1823.00, 
1824.00, 
1825.00, 
1826.00, 
1827.00, 
1828.00, 
1829.00, 
1830.00, 
1831.00, 
1832.00, 
1833.00, 
1834.00, 
1835.00, 
1836.00, 
1837.00, 
1838.00, 
1839.00, 
1840.00, 
1841.00, 
1842.00, 
1843.00, 
1844.00, 
1845.00, 
1846.00, 
1847.00, 
1848.00, 
1849.00, 
1850.00, 
1851.00, 
1852.00, 
1853.00, 
1854.00, 
1855.00, 
1856.00, 
1857.00, 
1858.00, 
1859.00, 
1860.00, 
1861.00, 
1862.00, 
1863.00, 
1864.00, 
1865.00, 
1866.00, 
1867.00, 
1868.00, 
1869.00, 
1870.00, 
1871.00, 
1872.00, 
1873.00, 
1874.00, 
1875.00, 
1876.00, 
1877.00, 
1878.00, 
1879.00, 
1880.00, 
1881.00, 
1882.00, 
1883.00, 
1884.00, 
1885.00, 
1886.00, 
1887.00, 
1888.00, 
1889.00, 
1890.00, 
1891.00, 
1892.00, 
1893.00, 
1894.00, 
1895.00, 
1896.00, 
1897.00, 
1898.00, 
1899.00, 
1900.00, 
1901.00, 
1902.00, 
1903.00, 
1904.00, 
1905.00, 
1906.00, 
1907.00, 
1908.00, 
1909.00, 
1910.00, 
1911.00, 
1912.00, 
1913.00, 
1914.00, 
1915.00, 
1916.00, 
1917.00, 
1918.00, 
1919.00, 
1920.00, 
1921.00, 
1922.00, 
1923.00, 
1924.00, 
1925.00, 
1926.00, 
1927.00, 
1928.00, 
1929.00, 
1930.00, 
1931.00, 
1932.00, 
1933.00, 
1934.00, 
1935.00, 
1936.00, 
1937.00, 
1938.00, 
1939.00, 
1940.00, 
1941.00, 
1942.00, 
1943.00, 
1944.00, 
1945.00, 
1946.00, 
1947.00, 
1948.00, 
1949.00, 
1950.00, 
1951.00, 
1952.00, 
1953.00, 
1954.00, 
1955.00, 
1956.00, 
1957.00, 
1958.00, 
1959.00, 
1960.00, 
1961.00, 
1962.00, 
1963.00, 
1964.00, 
1965.00, 
1966.00, 
1967.00, 
1968.00, 
1969.00, 
1970.00, 
1971.00, 
1972.00, 
1973.00, 
1974.00, 
1975.00, 
1976.00, 
1977.00, 
1978.00, 
1979.00, 
1980.00, 
1981.00, 
1982.00, 
1983.00, 
1984.00, 
1985.00, 
1986.00, 
1987.00, 
1988.00, 
1989.00, 
1990.00, 
1991.00, 
1992.00, 
1993.00, 
1994.00, 
1995.00, 
1996.00, 
1997.00, 
1998.00, 
1999.00, 
2000.00, 
2001.00, 
2002.00, 
2003.00, 
2004.00, 
2005.00, 
2006.00, 
2007.00, 
2008.00, 
2009.00, 
2010.00, 
2011.00, 
2012.00, 
2013.00, 
2014.00, 
2015.00, 
2016.00, 
2017.00, 
2018.00, 
2019.00, 
2020.00, 
2021.00, 
2022.00, 
2023.00, 
2024.00, 
2025.00, 
2026.00, 
2027.00, 
2028.00, 
2029.00, 
2030.00, 
2031.00, 
2032.00, 
2033.00, 
2034.00, 
2035.00, 
2036.00, 
2037.00, 
2038.00, 
2039.00, 
2040.00, 
2041.00, 
2042.00, 
2043.00, 
2044.00, 
2045.00, 
2046.00, 
2047.00, 
2048.00, 
2049.00, 
2050.00, 
2051.00, 
2052.00, 
2053.00, 
2054.00, 
2055.00, 
2056.00, 
2057.00, 
2058.00, 
2059.00, 
2060.00, 
2061.00, 
2062.00, 
2063.00, 
2064.00, 
2065.00, 
2066.00, 
2067.00, 
2068.00, 
2069.00, 
2070.00, 
2071.00, 
2072.00, 
2073.00, 
2074.00, 
2075.00, 
2076.00, 
2077.00, 
2078.00, 
2079.00, 
2080.00, 
2081.00, 
2082.00, 
2083.00, 
2084.00, 
2085.00, 
2086.00, 
2087.00, 
2088.00, 
2089.00, 
2090.00, 
2091.00, 
2092.00, 
2093.00, 
2094.00, 
2095.00, 
2096.00, 
2097.00, 
2098.00, 
2099.00, 
2100.00, 
2101.00, 
2102.00, 
2103.00, 
2104.00, 
2105.00, 
2106.00, 
2107.00, 
2108.00, 
2109.00, 
2110.00, 
2111.00, 
2112.00, 
2113.00, 
2114.00, 
2115.00, 
2116.00, 
2117.00, 
2118.00, 
2119.00, 
2120.00, 
2121.00, 
2122.00, 
2123.00, 
2124.00, 
2125.00, 
2126.00, 
2127.00, 
2128.00, 
2129.00, 
2130.00, 
2131.00, 
2132.00, 
2133.00, 
2134.00, 
2135.00, 
2136.00, 
2137.00, 
2138.00, 
2139.00, 
2140.00, 
2141.00, 
2142.00, 
2143.00, 
2144.00, 
2145.00, 
2146.00, 
2147.00, 
2148.00, 
2149.00, 
2150.00, 
2151.00, 
2152.00, 
2153.00, 
2154.00, 
2155.00, 
2156.00, 
2157.00, 
2158.00, 
2159.00, 
2160.00, 
2161.00, 
2162.00, 
2163.00, 
2164.00, 
2165.00, 
2166.00, 
2167.00, 
2168.00, 
2169.00, 
2170.00, 
2171.00, 
2172.00, 
2173.00, 
2174.00, 
2175.00, 
2176.00, 
2177.00, 
2178.00, 
2179.00, 
2180.00, 
2181.00, 
2182.00, 
2183.00, 
2184.00, 
2185.00, 
2186.00, 
2187.00, 
2188.00, 
2189.00, 
2190.00, 
2191.00, 
2192.00, 
2193.00, 
2194.00, 
2195.00, 
2196.00, 
2197.00, 
2198.00, 
2199.00, 
2200.00, 
2201.00, 
2202.00, 
2203.00, 
2204.00, 
2205.00, 
2206.00, 
2207.00, 
2208.00, 
2209.00, 
2210.00, 
2211.00, 
2212.00, 
2213.00, 
2214.00, 
2215.00, 
2216.00, 
2217.00, 
2218.00, 
2219.00, 
2220.00, 
2221.00, 
2222.00, 
2223.00, 
2224.00, 
2225.00, 
2226.00, 
2227.00, 
2228.00, 
2229.00, 
2230.00, 
2231.00, 
2232.00, 
2233.00, 
2234.00, 
2235.00, 
2236.00, 
2237.00, 
2238.00, 
2239.00, 
2240.00, 
2241.00, 
2242.00, 
2243.00, 
2244.00, 
2245.00, 
2246.00, 
2247.00, 
2248.00, 
2249.00, 
2250.00, 
2251.00, 
2252.00, 
2253.00, 
2254.00, 
2255.00, 
2256.00, 
2257.00, 
2258.00, 
2259.00, 
2260.00, 
2261.00, 
2262.00, 
2263.00, 
2264.00, 
2265.00, 
2266.00, 
2267.00, 
2268.00, 
2269.00, 
2270.00, 
2271.00, 
2272.00, 
2273.00, 
2274.00, 
2275.00, 
2276.00, 
2277.00, 
2278.00, 
2279.00, 
2280.00, 
2281.00, 
2282.00, 
2283.00, 
2284.00, 
2285.00, 
2286.00, 
2287.00, 
2288.00, 
2289.00, 
2290.00, 
2291.00, 
2292.00, 
2293.00, 
2294.00, 
2295.00, 
2296.00, 
2297.00, 
2298.00, 
2299.00, 
2300.00, 
2301.00, 
2302.00, 
2303.00, 
2304.00, 
2305.00, 
2306.00, 
2307.00, 
2308.00, 
2309.00, 
2310.00, 
2311.00, 
2312.00, 
2313.00, 
2314.00, 
2315.00, 
2316.00, 
2317.00, 
2318.00, 
2319.00, 
2320.00, 
2321.00, 
2322.00, 
2323.00, 
2324.00, 
2325.00, 
2326.00, 
2327.00, 
2328.00, 
2329.00, 
2330.00, 
2331.00, 
2332.00, 
2333.00, 
2334.00, 
2335.00, 
2336.00, 
2337.00, 
2338.00, 
2339.00, 
2340.00, 
2341.00, 
2342.00, 
2343.00, 
2344.00, 
2345.00, 
2346.00, 
2347.00, 
2348.00, 
2349.00, 
2350.00, 
2351.00, 
2352.00, 
2353.00, 
2354.00, 
2355.00, 
2356.00, 
2357.00, 
2358.00, 
2359.00, 
2360.00, 
2361.00, 
2362.00, 
2363.00, 
2364.00, 
2365.00, 
2366.00, 
2367.00, 
2368.00, 
2369.00, 
2370.00, 
2371.00, 
2372.00, 
2373.00, 
2374.00, 
2375.00, 
2376.00, 
2377.00, 
2378.00, 
2379.00, 
2380.00, 
2381.00, 
2382.00, 
2383.00, 
2384.00, 
2385.00, 
2386.00, 
2387.00, 
2388.00, 
2389.00, 
2390.00, 
2391.00, 
2392.00, 
2393.00, 
2394.00, 
2395.00, 
2396.00, 
2397.00, 
2398.00, 
2399.00, 
2400.00, 
2401.00, 
2402.00, 
2403.00, 
2404.00, 
2405.00, 
2406.00, 
2407.00, 
2408.00, 
2409.00, 
2410.00, 
2411.00, 
2412.00, 
2413.00, 
2414.00, 
2415.00, 
2416.00, 
2417.00, 
2418.00, 
2419.00, 
2420.00, 
2421.00, 
2422.00, 
2423.00, 
2424.00, 
2425.00, 
2426.00, 
2427.00, 
2428.00, 
2429.00, 
2430.00, 
2431.00, 
2432.00, 
2433.00, 
2434.00, 
2435.00, 
2436.00, 
2437.00, 
2438.00, 
2439.00, 
2440.00, 
2441.00, 
2442.00, 
2443.00, 
2444.00, 
2445.00, 
2446.00, 
2447.00, 
2448.00, 
2449.00, 
2450.00, 
2451.00, 
2452.00, 
2453.00, 
2454.00, 
2455.00, 
2456.00, 
2457.00, 
2458.00, 
2459.00, 
2460.00, 
2461.00, 
2462.00, 
2463.00, 
2464.00, 
2465.00, 
2466.00, 
2467.00, 
2468.00, 
2469.00, 
2470.00, 
2471.00, 
2472.00, 
2473.00, 
2474.00, 
2475.00, 
2476.00, 
2477.00, 
2478.00, 
2479.00, 
2480.00, 
2481.00, 
2482.00, 
2483.00, 
2484.00, 
2485.00, 
2486.00, 
2487.00, 
2488.00, 
2489.00, 
2490.00, 
2491.00, 
2492.00, 
2493.00, 
2494.00, 
2495.00, 
2496.00, 
2497.00, 
2498.00, 
2499.00, 
2500.00, 
2501.00, 
2502.00, 
2503.00, 
2504.00, 
2505.00, 
2506.00, 
2507.00, 
2508.00, 
2509.00, 
2510.00, 
2511.00, 
2512.00, 
2513.00, 
2514.00, 
2515.00, 
2516.00, 
2517.00, 
2518.00, 
2519.00, 
2520.00, 
2521.00, 
2522.00, 
2523.00, 
2524.00, 
2525.00, 
2526.00, 
2527.00, 
2528.00, 
2529.00, 
2530.00, 
2531.00, 
2532.00, 
2533.00, 
2534.00, 
2535.00, 
2536.00, 
2537.00, 
2538.00, 
2539.00, 
2540.00, 
2541.00, 
2542.00, 
2543.00, 
2544.00, 
2545.00, 
2546.00, 
2547.00, 
2548.00, 
2549.00, 
2550.00, 
2551.00, 
2552.00, 
2553.00, 
2554.00, 
2555.00, 
2556.00, 
2557.00, 
2558.00, 
2559.00, 
2560.00, 
2561.00, 
2562.00, 
2563.00, 
2564.00, 
2565.00, 
2566.00, 
2567.00, 
2568.00, 
2569.00, 
2570.00, 
2571.00, 
2572.00, 
2573.00, 
2574.00, 
2575.00, 
2576.00, 
2577.00, 
2578.00, 
2579.00, 
2580.00, 
2581.00, 
2582.00, 
2583.00, 
2584.00, 
2585.00, 
2586.00, 
2587.00, 
2588.00, 
2589.00, 
2590.00, 
2591.00, 
2592.00, 
2593.00, 
2594.00, 
2595.00, 
2596.00, 
2597.00, 
2598.00, 
2599.00, 
2600.00, 
