"2cP4 - RawData"
"Wavelength nm.","T%"
200.00,0.002
201.00,0.005
202.00,-0.000
203.00,0.001
204.00,0.001
205.00,0.003
206.00,0.001
207.00,0.003
208.00,0.001
209.00,0.001
210.00,-0.002
211.00,0.001
212.00,0.001
213.00,0.000
214.00,-0.000
215.00,0.000
216.00,-0.001
217.00,0.000
218.00,0.004
219.00,0.001
220.00,0.005
221.00,-0.000
222.00,0.001
223.00,-0.000
224.00,0.001
225.00,0.003
226.00,-0.000
227.00,-0.001
228.00,0.001
229.00,-0.000
230.00,-0.001
231.00,0.001
232.00,0.001
233.00,0.000
234.00,0.001
235.00,-0.002
236.00,-0.000
237.00,0.001
238.00,0.001
239.00,-0.000
240.00,-0.001
241.00,0.001
242.00,0.001
243.00,0.000
244.00,0.002
245.00,0.001
246.00,0.001
247.00,0.002
248.00,-0.002
249.00,-0.002
250.00,0.001
251.00,-0.001
252.00,-0.002
253.00,0.000
254.00,0.000
255.00,0.002
256.00,0.001
257.00,-0.001
258.00,-0.002
259.00,-0.001
260.00,0.002
261.00,0.000
262.00,0.001
263.00,-0.000
264.00,-0.000
265.00,0.000
266.00,-0.001
267.00,0.001
268.00,-0.002
269.00,0.001
270.00,-0.001
271.00,-0.000
272.00,-0.001
273.00,0.001
274.00,-0.001
275.00,0.000
276.00,-0.002
277.00,-0.000
278.00,0.001
279.00,-0.001
280.00,0.000
281.00,0.002
282.00,-0.001
283.00,0.000
284.00,-0.000
285.00,-0.000
286.00,-0.000
287.00,-0.000
288.00,0.002
289.00,0.001
290.00,0.000
291.00,0.001
292.00,0.000
293.00,0.001
294.00,-0.001
295.00,0.001
296.00,0.002
297.00,0.001
298.00,0.002
299.00,0.001
300.00,0.003
301.00,0.003
302.00,0.006
303.00,0.007
304.00,0.012
305.00,0.018
306.00,0.028
307.00,0.041
308.00,0.063
309.00,0.099
310.00,0.139
311.00,0.185
312.00,0.256
313.00,0.349
314.00,0.458
315.00,0.589
316.00,0.759
317.00,0.957
318.00,1.181
319.00,1.452
320.00,1.773
321.00,2.127
322.00,2.456
323.00,2.956
324.00,3.444
325.00,3.913
326.00,4.385
327.00,4.973
328.00,5.457
329.00,6.125
330.00,6.734
331.00,7.365
332.00,7.998
333.00,8.705
334.00,9.320
335.00,9.993
336.00,10.647
337.00,11.286
338.00,11.900
339.00,12.511
340.00,13.103
341.00,13.730
342.00,14.258
343.00,14.783
344.00,15.265
345.00,15.799
346.00,16.252
347.00,16.700
348.00,17.097
349.00,17.489
350.00,17.857
351.00,18.213
352.00,18.528
353.00,18.808
354.00,19.148
355.00,19.401
356.00,19.624
357.00,19.852
358.00,20.049
359.00,20.302
360.00,20.500
361.00,20.672
362.00,20.852
363.00,20.962
364.00,21.099
365.00,21.170
366.00,21.270
367.00,21.372
368.00,21.446
369.00,21.473
370.00,21.519
371.00,21.524
372.00,21.541
373.00,21.573
374.00,21.573
375.00,21.606
376.00,21.508
377.00,21.488
378.00,21.440
379.00,21.385
380.00,21.379
381.00,21.372
382.00,21.341
383.00,21.381
384.00,21.379
385.00,21.445
386.00,21.451
387.00,21.503
388.00,21.548
389.00,21.550
390.00,21.611
391.00,21.638
392.00,21.611
393.00,21.636
394.00,21.642
395.00,21.665
396.00,21.682
397.00,21.703
398.00,21.719
399.00,21.698
400.00,21.693
401.00,21.743
402.00,21.735
403.00,21.764
404.00,21.746
405.00,21.783
406.00,21.694
407.00,21.690
408.00,21.708
409.00,21.648
410.00,21.616
411.00,21.613
412.00,21.616
413.00,21.616
414.00,21.597
415.00,21.604
416.00,21.664
417.00,21.661
418.00,21.677
419.00,21.761
420.00,21.805
421.00,21.847
422.00,21.879
423.00,21.917
424.00,21.952
425.00,21.985
426.00,22.010
427.00,22.068
428.00,22.125
429.00,22.150
430.00,22.218
431.00,22.257
432.00,22.317
433.00,22.367
434.00,22.465
435.00,22.513
436.00,22.591
437.00,22.633
438.00,22.706
439.00,22.774
440.00,22.865
441.00,22.940
442.00,23.030
443.00,23.113
444.00,23.234
445.00,23.300
446.00,23.399
447.00,23.512
448.00,23.600
449.00,23.731
450.00,23.796
451.00,23.877
452.00,23.988
453.00,24.131
454.00,24.261
455.00,24.361
456.00,24.491
457.00,24.592
458.00,24.700
459.00,24.830
460.00,24.974
461.00,25.120
462.00,25.205
463.00,25.375
464.00,25.496
465.00,25.635
466.00,25.739
467.00,25.906
468.00,25.965
469.00,26.081
470.00,26.210
471.00,26.307
472.00,26.456
473.00,26.520
474.00,26.658
475.00,26.789
476.00,26.877
477.00,27.029
478.00,27.112
479.00,27.302
480.00,27.444
481.00,27.552
482.00,27.741
483.00,27.875
484.00,28.027
485.00,28.200
486.00,28.324
487.00,28.478
488.00,28.638
489.00,28.796
490.00,28.908
491.00,29.083
492.00,29.284
493.00,29.431
494.00,29.390
495.00,29.501
496.00,29.724
497.00,29.856
498.00,30.024
499.00,30.178
500.00,30.235
501.00,30.298
502.00,30.514
503.00,30.670
504.00,30.699
505.00,30.798
506.00,31.001
507.00,31.058
508.00,31.116
509.00,31.334
510.00,31.467
511.00,31.556
512.00,31.752
513.00,31.832
514.00,31.986
515.00,32.107
516.00,32.199
517.00,32.311
518.00,32.446
519.00,32.468
520.00,32.547
521.00,32.662
522.00,32.767
523.00,32.778
524.00,32.855
525.00,33.052
526.00,33.119
527.00,33.172
528.00,33.243
529.00,33.428
530.00,33.561
531.00,33.685
532.00,33.758
533.00,33.840
534.00,33.955
535.00,34.015
536.00,34.067
537.00,34.150
538.00,34.224
539.00,34.318
540.00,34.376
541.00,34.439
542.00,34.504
543.00,34.564
544.00,34.608
545.00,34.719
546.00,34.751
547.00,34.844
548.00,35.004
549.00,35.045
550.00,35.052
551.00,35.138
552.00,35.210
553.00,35.228
554.00,35.333
555.00,35.401
556.00,35.495
557.00,35.522
558.00,35.558
559.00,35.629
560.00,35.657
561.00,35.807
562.00,35.842
563.00,35.772
564.00,35.880
565.00,35.993
566.00,35.896
567.00,35.991
568.00,36.089
569.00,36.070
570.00,36.201
571.00,36.215
572.00,36.251
573.00,36.247
574.00,36.338
575.00,36.317
576.00,36.340
577.00,36.415
578.00,36.534
579.00,36.591
580.00,36.619
581.00,36.777
582.00,36.835
583.00,36.879
584.00,36.965
585.00,37.031
586.00,37.066
587.00,37.124
588.00,37.122
589.00,37.094
590.00,37.186
591.00,37.256
592.00,37.241
593.00,37.276
594.00,37.381
595.00,37.422
596.00,37.514
597.00,37.578
598.00,37.676
599.00,37.700
600.00,37.761
601.00,37.727
602.00,37.718
603.00,37.800
604.00,37.825
605.00,37.909
606.00,37.921
607.00,37.969
608.00,38.140
609.00,38.255
610.00,38.139
611.00,38.161
612.00,38.241
613.00,38.297
614.00,38.322
615.00,38.446
616.00,38.535
617.00,38.526
618.00,38.553
619.00,38.573
620.00,38.615
621.00,38.721
622.00,38.825
623.00,38.869
624.00,38.934
625.00,39.006
626.00,39.061
627.00,39.095
628.00,39.149
629.00,39.184
630.00,39.223
631.00,39.332
632.00,39.416
633.00,39.464
634.00,39.634
635.00,39.696
636.00,39.741
637.00,39.791
638.00,39.891
639.00,39.991
640.00,40.013
641.00,40.070
642.00,40.143
643.00,40.198
644.00,40.329
645.00,40.380
646.00,40.557
647.00,40.587
648.00,40.728
649.00,40.752
650.00,40.781
651.00,40.886
652.00,41.017
653.00,41.037
654.00,41.133
655.00,41.315
656.00,41.537
657.00,41.453
658.00,41.503
659.00,41.610
660.00,41.626
661.00,41.695
662.00,41.909
663.00,41.941
664.00,42.154
665.00,42.339
666.00,42.328
667.00,42.433
668.00,42.390
669.00,42.625
670.00,42.832
671.00,42.621
672.00,42.899
673.00,42.981
674.00,42.986
675.00,43.085
676.00,43.352
677.00,43.463
678.00,43.281
679.00,43.543
680.00,43.615
681.00,43.836
682.00,43.836
683.00,43.905
684.00,43.998
685.00,44.027
686.00,44.052
687.00,44.107
688.00,44.270
689.00,44.239
690.00,44.585
691.00,44.804
692.00,44.536
693.00,44.728
694.00,44.841
695.00,44.904
696.00,45.071
697.00,45.186
698.00,45.107
699.00,45.333
700.00,45.491
701.00,45.529
702.00,45.639
703.00,45.746
704.00,45.817
705.00,45.803
706.00,45.886
707.00,45.954
708.00,45.896
709.00,46.248
710.00,46.572
711.00,46.208
712.00,46.310
713.00,46.460
714.00,46.581
715.00,46.579
716.00,46.557
717.00,46.787
718.00,46.870
719.00,46.910
720.00,46.912
721.00,51.447
722.00,51.435
723.00,51.416
724.00,51.416
725.00,51.404
726.00,51.427
727.00,51.437
728.00,51.499
729.00,51.516
730.00,51.632
731.00,51.633
732.00,51.646
733.00,51.684
734.00,51.712
735.00,51.830
736.00,51.800
737.00,51.803
738.00,51.872
739.00,51.935
740.00,51.970
741.00,51.946
742.00,52.071
743.00,51.989
744.00,52.009
745.00,52.034
746.00,52.013
747.00,52.091
748.00,52.079
749.00,52.102
750.00,52.049
751.00,52.014
752.00,52.086
753.00,52.135
754.00,52.109
755.00,52.172
756.00,52.182
757.00,52.207
758.00,52.174
759.00,52.195
760.00,52.206
761.00,52.203
762.00,52.167
763.00,52.279
764.00,52.289
765.00,52.260
766.00,52.304
767.00,52.351
768.00,52.320
769.00,52.254
770.00,52.384
771.00,52.294
772.00,52.363
773.00,52.384
774.00,52.378
775.00,52.417
776.00,52.376
777.00,52.380
778.00,52.415
779.00,52.513
780.00,52.420
781.00,52.477
782.00,52.476
783.00,52.558
784.00,52.429
785.00,52.386
786.00,52.500
787.00,52.451
788.00,52.475
789.00,52.453
790.00,52.430
791.00,52.365
792.00,52.426
793.00,52.378
794.00,52.348
795.00,52.374
796.00,52.366
797.00,52.297
798.00,52.347
799.00,52.370
800.00,52.305
801.00,52.297
802.00,52.321
803.00,52.413
804.00,52.267
805.00,52.309
806.00,52.332
807.00,52.272
808.00,52.335
809.00,52.275
810.00,52.189
811.00,52.204
812.00,52.264
813.00,52.158
814.00,52.214
815.00,52.198
816.00,52.221
817.00,52.166
818.00,52.077
819.00,52.102
820.00,52.075
821.00,52.046
822.00,52.116
823.00,52.036
824.00,52.035
825.00,52.020
826.00,51.996
827.00,52.053
828.00,51.971
829.00,51.969
830.00,51.958
831.00,54.160
832.00,54.151
833.00,54.123
834.00,54.146
835.00,54.062
836.00,54.121
837.00,54.052
838.00,54.050
839.00,54.090
840.00,54.023
841.00,53.984
842.00,53.976
843.00,53.985
844.00,54.030
845.00,53.926
846.00,53.922
847.00,53.905
848.00,53.863
849.00,53.806
850.00,53.786
851.00,53.743
852.00,53.747
853.00,53.685
854.00,53.689
855.00,53.647
856.00,53.635
857.00,53.596
858.00,53.578
859.00,53.559
860.00,53.516
861.00,53.497
862.00,53.481
863.00,53.527
864.00,53.450
865.00,53.491
866.00,53.644
867.00,53.457
868.00,53.458
869.00,53.448
870.00,53.434
871.00,53.363
872.00,53.560
873.00,53.410
874.00,53.439
875.00,53.372
876.00,53.391
877.00,53.368
878.00,53.342
879.00,53.329
880.00,53.309
881.00,53.275
882.00,53.277
883.00,53.275
884.00,53.251
885.00,53.225
886.00,53.206
887.00,53.191
888.00,53.179
889.00,53.144
890.00,53.123
891.00,53.108
892.00,53.102
893.00,53.076
894.00,53.073
895.00,53.041
896.00,53.014
897.00,52.990
898.00,52.959
899.00,52.986
900.00,52.973
901.00,52.970
902.00,52.963
903.00,52.931
904.00,52.903
905.00,52.909
906.00,52.900
907.00,52.871
908.00,52.845
909.00,52.845
910.00,52.771
911.00,52.787
912.00,52.773
913.00,52.722
914.00,52.691
915.00,52.695
916.00,52.683
917.00,52.636
918.00,52.617
919.00,52.611
920.00,52.622
921.00,52.561
922.00,52.552
923.00,52.553
924.00,52.508
925.00,52.498
926.00,52.497
927.00,52.468
928.00,52.434
929.00,52.443
930.00,52.394
931.00,52.416
932.00,52.310
933.00,52.377
934.00,52.362
935.00,52.312
936.00,52.371
937.00,52.292
938.00,52.257
939.00,52.269
940.00,52.242
941.00,52.213
942.00,52.219
943.00,52.215
944.00,52.165
945.00,52.179
946.00,52.161
947.00,52.105
948.00,52.094
949.00,52.082
950.00,52.063
951.00,52.034
952.00,52.000
953.00,51.980
954.00,51.965
955.00,51.911
956.00,51.915
957.00,51.941
958.00,51.888
959.00,51.845
960.00,51.822
961.00,51.810
962.00,51.808
963.00,51.774
964.00,51.779
965.00,51.776
966.00,51.749
967.00,51.749
968.00,51.722
969.00,51.747
970.00,51.721
971.00,51.728
972.00,51.689
973.00,51.721
974.00,51.741
975.00,51.727
976.00,51.729
977.00,51.696
978.00,51.753
979.00,51.718
980.00,51.725
981.00,51.742
982.00,51.708
983.00,51.706
984.00,51.687
985.00,51.711
986.00,51.673
987.00,51.676
988.00,51.652
989.00,51.651
990.00,51.632
991.00,51.605
992.00,51.630
993.00,51.580
994.00,51.566
995.00,51.562
996.00,51.541
997.00,51.563
998.00,51.523
999.00,51.542
1000.00,51.510
1001.00,51.503
1002.00,51.498
1003.00,51.495
1004.00,51.463
1005.00,51.438
1006.00,51.467
1007.00,51.423
1008.00,51.425
1009.00,51.401
1010.00,51.375
1011.00,51.388
1012.00,51.360
1013.00,51.357
1014.00,51.326
1015.00,51.332
1016.00,51.275
1017.00,51.283
1018.00,51.325
1019.00,51.251
1020.00,51.243
1021.00,51.212
1022.00,51.233
1023.00,51.174
1024.00,51.165
1025.00,51.161
1026.00,51.149
1027.00,51.129
1028.00,51.122
1029.00,51.100
1030.00,51.084
1031.00,51.092
1032.00,51.033
1033.00,51.067
1034.00,51.028
1035.00,50.978
1036.00,50.967
1037.00,50.924
1038.00,50.927
1039.00,50.894
1040.00,50.862
1041.00,50.861
1042.00,50.852
1043.00,50.814
1044.00,50.844
1045.00,50.827
1046.00,50.834
1047.00,50.882
1048.00,50.861
1049.00,50.863
1050.00,50.861
1051.00,50.899
1052.00,50.911
1053.00,50.903
1054.00,50.902
1055.00,50.937
1056.00,50.937
1057.00,50.928
1058.00,50.929
1059.00,50.910
1060.00,50.908
1061.00,50.897
1062.00,50.871
1063.00,50.885
1064.00,50.880
1065.00,50.866
1066.00,50.873
1067.00,50.841
1068.00,50.862
1069.00,50.847
1070.00,50.814
1071.00,50.802
1072.00,50.811
1073.00,50.784
1074.00,50.789
1075.00,50.780
1076.00,50.764
1077.00,50.758
1078.00,50.753
1079.00,50.748
1080.00,50.749
1081.00,50.721
1082.00,50.715
1083.00,50.719
1084.00,50.697
1085.00,50.707
1086.00,50.693
1087.00,50.679
1088.00,50.672
1089.00,50.659
1090.00,50.649
1091.00,50.651
1092.00,50.629
1093.00,50.622
1094.00,50.629
1095.00,50.611
1096.00,50.588
1097.00,50.591
1098.00,50.583
1099.00,50.587
1100.00,50.563
1101.00,50.548
1102.00,50.557
1103.00,50.536
1104.00,50.521
1105.00,50.512
1106.00,50.512
1107.00,50.506
1108.00,50.498
1109.00,50.474
1110.00,50.484
1111.00,50.481
1112.00,50.454
1113.00,50.453
1114.00,50.438
1115.00,50.437
1116.00,50.422
1117.00,50.394
1118.00,50.410
1119.00,50.395
1120.00,50.373
1121.00,50.382
1122.00,50.372
1123.00,50.362
1124.00,50.372
1125.00,50.356
1126.00,50.353
1127.00,50.355
1128.00,50.324
1129.00,50.321
1130.00,50.319
1131.00,50.302
1132.00,50.311
1133.00,50.299
1134.00,50.268
1135.00,50.270
1136.00,50.258
1137.00,50.265
1138.00,50.265
1139.00,50.279
1140.00,50.290
1141.00,50.264
1142.00,50.249
1143.00,50.272
1144.00,50.246
1145.00,50.227
1146.00,50.231
1147.00,50.209
1148.00,50.202
1149.00,50.210
1150.00,50.212
1151.00,50.223
1152.00,50.221
1153.00,50.205
1154.00,50.211
1155.00,50.209
1156.00,50.176
1157.00,50.176
1158.00,50.182
1159.00,50.183
1160.00,50.172
1161.00,50.165
1162.00,50.173
1163.00,50.168
1164.00,50.151
1165.00,50.160
1166.00,50.158
1167.00,50.151
1168.00,50.174
1169.00,50.160
1170.00,50.171
1171.00,50.168
1172.00,50.139
1173.00,50.148
1174.00,50.149
1175.00,50.131
1176.00,50.149
1177.00,50.137
1178.00,50.127
1179.00,50.153
1180.00,50.131
1181.00,50.134
1182.00,50.121
1183.00,50.119
1184.00,50.122
1185.00,50.150
1186.00,50.142
1187.00,50.140
1188.00,50.130
1189.00,50.102
1190.00,50.114
1191.00,50.117
1192.00,50.117
1193.00,50.103
1194.00,50.109
1195.00,50.098
1196.00,50.107
1197.00,50.097
1198.00,50.112
1199.00,50.101
1200.00,50.094
1201.00,50.130
1202.00,50.073
1203.00,50.072
1204.00,50.075
1205.00,50.089
1206.00,50.063
1207.00,50.058
1208.00,50.051
1209.00,50.069
1210.00,50.069
1211.00,50.071
1212.00,50.107
1213.00,50.054
1214.00,50.075
1215.00,50.065
1216.00,50.059
1217.00,50.078
1218.00,50.064
1219.00,50.062
1220.00,50.054
1221.00,50.079
1222.00,50.056
1223.00,50.065
1224.00,50.067
1225.00,50.050
1226.00,50.061
1227.00,50.050
1228.00,50.078
1229.00,50.089
1230.00,50.082
1231.00,50.101
1232.00,50.136
1233.00,50.115
1234.00,50.111
1235.00,50.110
1236.00,50.102
1237.00,50.106
1238.00,50.108
1239.00,50.121
1240.00,50.113
1241.00,50.092
1242.00,50.118
1243.00,50.117
1244.00,50.091
1245.00,50.128
1246.00,50.130
1247.00,50.144
1248.00,50.126
1249.00,50.138
1250.00,50.152
1251.00,50.137
1252.00,50.139
1253.00,50.140
1254.00,50.160
1255.00,50.141
1256.00,50.128
1257.00,50.134
1258.00,50.161
1259.00,50.163
1260.00,50.163
1261.00,50.178
1262.00,50.167
1263.00,50.141
1264.00,50.177
1265.00,50.179
1266.00,50.161
1267.00,50.187
1268.00,50.205
1269.00,50.196
1270.00,50.203
1271.00,50.195
1272.00,50.201
1273.00,50.217
1274.00,50.204
1275.00,50.220
1276.00,50.217
1277.00,50.207
1278.00,50.246
1279.00,50.220
1280.00,50.215
1281.00,50.230
1282.00,50.239
1283.00,50.236
1284.00,50.242
1285.00,50.211
1286.00,50.243
1287.00,50.246
1288.00,50.241
1289.00,50.245
1290.00,50.243
1291.00,50.250
1292.00,50.252
1293.00,50.245
1294.00,50.280
1295.00,50.278
1296.00,50.269
1297.00,50.301
1298.00,50.325
1299.00,50.286
1300.00,50.313
1301.00,50.305
1302.00,50.303
1303.00,50.338
1304.00,50.298
1305.00,50.319
1306.00,50.344
1307.00,50.369
1308.00,50.366
1309.00,50.360
1310.00,50.356
1311.00,50.368
1312.00,50.345
1313.00,50.347
1314.00,50.372
1315.00,50.379
1316.00,50.375
1317.00,50.407
1318.00,50.387
1319.00,50.403
1320.00,50.413
1321.00,50.565
1322.00,50.588
1323.00,50.563
1324.00,50.546
1325.00,50.540
1326.00,50.571
1327.00,50.536
1328.00,50.535
1329.00,50.534
1330.00,50.524
1331.00,50.566
1332.00,50.544
1333.00,50.528
1334.00,50.600
1335.00,50.593
1336.00,50.640
1337.00,50.661
1338.00,50.704
1339.00,50.759
1340.00,50.796
1341.00,50.877
1342.00,50.945
1343.00,50.979
1344.00,51.046
1345.00,51.109
1346.00,51.115
1347.00,51.159
1348.00,51.194
1349.00,51.212
1350.00,51.212
1351.00,51.230
1352.00,51.244
1353.00,51.222
1354.00,51.229
1355.00,51.214
1356.00,51.254
1357.00,51.247
1358.00,51.286
1359.00,51.317
1360.00,51.317
1361.00,51.247
1362.00,51.254
1363.00,51.306
1364.00,51.301
1365.00,51.254
1366.00,51.355
1367.00,51.215
1368.00,51.190
1369.00,51.317
1370.00,51.217
1371.00,51.171
1372.00,51.209
1373.00,51.248
1374.00,51.283
1375.00,51.263
1376.00,51.225
1377.00,51.244
1378.00,51.275
1379.00,51.249
1380.00,51.260
1381.00,51.219
1382.00,51.220
1383.00,51.226
1384.00,51.148
1385.00,51.235
1386.00,51.242
1387.00,51.123
1388.00,51.173
1389.00,51.286
1390.00,51.228
1391.00,51.172
1392.00,51.233
1393.00,51.349
1394.00,51.252
1395.00,51.256
1396.00,51.055
1397.00,51.196
1398.00,51.222
1399.00,51.253
1400.00,51.193
1401.00,51.160
1402.00,51.305
1403.00,51.217
1404.00,51.192
1405.00,51.264
1406.00,51.245
1407.00,51.302
1408.00,51.246
1409.00,51.255
1410.00,51.289
1411.00,51.296
1412.00,51.362
1413.00,51.641
1414.00,51.284
1415.00,51.304
1416.00,51.333
1417.00,51.351
1418.00,51.330
1419.00,51.329
1420.00,51.364
1421.00,51.437
1422.00,51.412
1423.00,51.399
1424.00,51.428
1425.00,51.449
1426.00,51.451
1427.00,51.459
1428.00,51.472
1429.00,51.477
1430.00,51.490
1431.00,51.471
1432.00,51.527
1433.00,51.544
1434.00,51.520
1435.00,51.578
1436.00,51.604
1437.00,51.566
1438.00,51.600
1439.00,51.627
1440.00,51.640
1441.00,51.629
1442.00,51.628
1443.00,51.680
1444.00,51.736
1445.00,51.668
1446.00,51.694
1447.00,51.729
1448.00,51.749
1449.00,51.770
1450.00,51.758
1451.00,51.788
1452.00,51.799
1453.00,51.816
1454.00,51.833
1455.00,51.844
1456.00,51.842
1457.00,51.866
1458.00,51.889
1459.00,51.885
1460.00,51.916
1461.00,51.923
1462.00,51.952
1463.00,51.978
1464.00,51.965
1465.00,52.004
1466.00,51.996
1467.00,52.009
1468.00,52.060
1469.00,52.030
1470.00,52.037
1471.00,52.065
1472.00,52.064
1473.00,52.105
1474.00,52.124
1475.00,52.131
1476.00,52.155
1477.00,52.147
1478.00,52.142
1479.00,52.190
1480.00,52.182
1481.00,52.168
1482.00,52.214
1483.00,52.211
1484.00,52.240
1485.00,52.246
1486.00,52.240
1487.00,52.265
1488.00,52.288
1489.00,52.262
1490.00,52.305
1491.00,52.301
1492.00,52.310
1493.00,52.314
1494.00,52.328
1495.00,52.333
1496.00,52.353
1497.00,52.355
1498.00,52.369
1499.00,52.384
1500.00,52.390
1501.00, 
1502.00, 
1503.00, 
1504.00, 
1505.00, 
1506.00, 
1507.00, 
1508.00, 
1509.00, 
1510.00, 
1511.00, 
1512.00, 
1513.00, 
1514.00, 
1515.00, 
1516.00, 
1517.00, 
1518.00, 
1519.00, 
1520.00, 
1521.00, 
1522.00, 
1523.00, 
1524.00, 
1525.00, 
1526.00, 
1527.00, 
1528.00, 
1529.00, 
1530.00, 
1531.00, 
1532.00, 
1533.00, 
1534.00, 
1535.00, 
1536.00, 
1537.00, 
1538.00, 
1539.00, 
1540.00, 
1541.00, 
1542.00, 
1543.00, 
1544.00, 
1545.00, 
1546.00, 
1547.00, 
1548.00, 
1549.00, 
1550.00, 
1551.00, 
1552.00, 
1553.00, 
1554.00, 
1555.00, 
1556.00, 
1557.00, 
1558.00, 
1559.00, 
1560.00, 
1561.00, 
1562.00, 
1563.00, 
1564.00, 
1565.00, 
1566.00, 
1567.00, 
1568.00, 
1569.00, 
1570.00, 
1571.00, 
1572.00, 
1573.00, 
1574.00, 
1575.00, 
1576.00, 
1577.00, 
1578.00, 
1579.00, 
1580.00, 
1581.00, 
1582.00, 
1583.00, 
1584.00, 
1585.00, 
1586.00, 
1587.00, 
1588.00, 
1589.00, 
1590.00, 
1591.00, 
1592.00, 
1593.00, 
1594.00, 
1595.00, 
1596.00, 
1597.00, 
1598.00, 
1599.00, 
1600.00, 
1601.00, 
1602.00, 
1603.00, 
1604.00, 
1605.00, 
1606.00, 
1607.00, 
1608.00, 
1609.00, 
1610.00, 
1611.00, 
1612.00, 
1613.00, 
1614.00, 
1615.00, 
1616.00, 
1617.00, 
1618.00, 
1619.00, 
1620.00, 
1621.00, 
1622.00, 
1623.00, 
1624.00, 
1625.00, 
1626.00, 
1627.00, 
1628.00, 
1629.00, 
1630.00, 
1631.00, 
1632.00, 
1633.00, 
1634.00, 
1635.00, 
1636.00, 
1637.00, 
1638.00, 
1639.00, 
1640.00, 
1641.00, 
1642.00, 
1643.00, 
1644.00, 
1645.00, 
1646.00, 
1647.00, 
1648.00, 
1649.00, 
1650.00, 
1651.00, 
1652.00, 
1653.00, 
1654.00, 
1655.00, 
1656.00, 
1657.00, 
1658.00, 
1659.00, 
1660.00, 
1661.00, 
1662.00, 
1663.00, 
1664.00, 
1665.00, 
1666.00, 
1667.00, 
1668.00, 
1669.00, 
1670.00, 
1671.00, 
1672.00, 
1673.00, 
1674.00, 
1675.00, 
1676.00, 
1677.00, 
1678.00, 
1679.00, 
1680.00, 
1681.00, 
1682.00, 
1683.00, 
1684.00, 
1685.00, 
1686.00, 
1687.00, 
1688.00, 
1689.00, 
1690.00, 
1691.00, 
1692.00, 
1693.00, 
1694.00, 
1695.00, 
1696.00, 
1697.00, 
1698.00, 
1699.00, 
1700.00, 
1701.00, 
1702.00, 
1703.00, 
1704.00, 
1705.00, 
1706.00, 
1707.00, 
1708.00, 
1709.00, 
1710.00, 
1711.00, 
1712.00, 
1713.00, 
1714.00, 
1715.00, 
1716.00, 
1717.00, 
1718.00, 
1719.00, 
1720.00, 
1721.00, 
1722.00, 
1723.00, 
1724.00, 
1725.00, 
1726.00, 
1727.00, 
1728.00, 
1729.00, 
1730.00, 
1731.00, 
1732.00, 
1733.00, 
1734.00, 
1735.00, 
1736.00, 
1737.00, 
1738.00, 
1739.00, 
1740.00, 
1741.00, 
1742.00, 
1743.00, 
1744.00, 
1745.00, 
1746.00, 
1747.00, 
1748.00, 
1749.00, 
1750.00, 
1751.00, 
1752.00, 
1753.00, 
1754.00, 
1755.00, 
1756.00, 
1757.00, 
1758.00, 
1759.00, 
1760.00, 
1761.00, 
1762.00, 
1763.00, 
1764.00, 
1765.00, 
1766.00, 
1767.00, 
1768.00, 
1769.00, 
1770.00, 
1771.00, 
1772.00, 
1773.00, 
1774.00, 
1775.00, 
1776.00, 
1777.00, 
1778.00, 
1779.00, 
1780.00, 
1781.00, 
1782.00, 
1783.00, 
1784.00, 
1785.00, 
1786.00, 
1787.00, 
1788.00, 
1789.00, 
1790.00, 
1791.00, 
1792.00, 
1793.00, 
1794.00, 
1795.00, 
1796.00, 
1797.00, 
1798.00, 
1799.00, 
1800.00, 
1801.00, 
1802.00, 
1803.00, 
1804.00, 
1805.00, 
1806.00, 
1807.00, 
1808.00, 
1809.00, 
1810.00, 
1811.00, 
1812.00, 
1813.00, 
1814.00, 
1815.00, 
1816.00, 
1817.00, 
1818.00, 
1819.00, 
1820.00, 
1821.00, 
1822.00, 
1823.00, 
1824.00, 
1825.00, 
1826.00, 
1827.00, 
1828.00, 
1829.00, 
1830.00, 
1831.00, 
1832.00, 
1833.00, 
1834.00, 
1835.00, 
1836.00, 
1837.00, 
1838.00, 
1839.00, 
1840.00, 
1841.00, 
1842.00, 
1843.00, 
1844.00, 
1845.00, 
1846.00, 
1847.00, 
1848.00, 
1849.00, 
1850.00, 
1851.00, 
1852.00, 
1853.00, 
1854.00, 
1855.00, 
1856.00, 
1857.00, 
1858.00, 
1859.00, 
1860.00, 
1861.00, 
1862.00, 
1863.00, 
1864.00, 
1865.00, 
1866.00, 
1867.00, 
1868.00, 
1869.00, 
1870.00, 
1871.00, 
1872.00, 
1873.00, 
1874.00, 
1875.00, 
1876.00, 
1877.00, 
1878.00, 
1879.00, 
1880.00, 
1881.00, 
1882.00, 
1883.00, 
1884.00, 
1885.00, 
1886.00, 
1887.00, 
1888.00, 
1889.00, 
1890.00, 
1891.00, 
1892.00, 
1893.00, 
1894.00, 
1895.00, 
1896.00, 
1897.00, 
1898.00, 
1899.00, 
1900.00, 
1901.00, 
1902.00, 
1903.00, 
1904.00, 
1905.00, 
1906.00, 
1907.00, 
1908.00, 
1909.00, 
1910.00, 
1911.00, 
1912.00, 
1913.00, 
1914.00, 
1915.00, 
1916.00, 
1917.00, 
1918.00, 
1919.00, 
1920.00, 
1921.00, 
1922.00, 
1923.00, 
1924.00, 
1925.00, 
1926.00, 
1927.00, 
1928.00, 
1929.00, 
1930.00, 
1931.00, 
1932.00, 
1933.00, 
1934.00, 
1935.00, 
1936.00, 
1937.00, 
1938.00, 
1939.00, 
1940.00, 
1941.00, 
1942.00, 
1943.00, 
1944.00, 
1945.00, 
1946.00, 
1947.00, 
1948.00, 
1949.00, 
1950.00, 
1951.00, 
1952.00, 
1953.00, 
1954.00, 
1955.00, 
1956.00, 
1957.00, 
1958.00, 
1959.00, 
1960.00, 
1961.00, 
1962.00, 
1963.00, 
1964.00, 
1965.00, 
1966.00, 
1967.00, 
1968.00, 
1969.00, 
1970.00, 
1971.00, 
1972.00, 
1973.00, 
1974.00, 
1975.00, 
1976.00, 
1977.00, 
1978.00, 
1979.00, 
1980.00, 
1981.00, 
1982.00, 
1983.00, 
1984.00, 
1985.00, 
1986.00, 
1987.00, 
1988.00, 
1989.00, 
1990.00, 
1991.00, 
1992.00, 
1993.00, 
1994.00, 
1995.00, 
1996.00, 
1997.00, 
1998.00, 
1999.00, 
2000.00, 
2001.00, 
2002.00, 
2003.00, 
2004.00, 
2005.00, 
2006.00, 
2007.00, 
2008.00, 
2009.00, 
2010.00, 
2011.00, 
2012.00, 
2013.00, 
2014.00, 
2015.00, 
2016.00, 
2017.00, 
2018.00, 
2019.00, 
2020.00, 
2021.00, 
2022.00, 
2023.00, 
2024.00, 
2025.00, 
2026.00, 
2027.00, 
2028.00, 
2029.00, 
2030.00, 
2031.00, 
2032.00, 
2033.00, 
2034.00, 
2035.00, 
2036.00, 
2037.00, 
2038.00, 
2039.00, 
2040.00, 
2041.00, 
2042.00, 
2043.00, 
2044.00, 
2045.00, 
2046.00, 
2047.00, 
2048.00, 
2049.00, 
2050.00, 
2051.00, 
2052.00, 
2053.00, 
2054.00, 
2055.00, 
2056.00, 
2057.00, 
2058.00, 
2059.00, 
2060.00, 
2061.00, 
2062.00, 
2063.00, 
2064.00, 
2065.00, 
2066.00, 
2067.00, 
2068.00, 
2069.00, 
2070.00, 
2071.00, 
2072.00, 
2073.00, 
2074.00, 
2075.00, 
2076.00, 
2077.00, 
2078.00, 
2079.00, 
2080.00, 
2081.00, 
2082.00, 
2083.00, 
2084.00, 
2085.00, 
2086.00, 
2087.00, 
2088.00, 
2089.00, 
2090.00, 
2091.00, 
2092.00, 
2093.00, 
2094.00, 
2095.00, 
2096.00, 
2097.00, 
2098.00, 
2099.00, 
2100.00, 
2101.00, 
2102.00, 
2103.00, 
2104.00, 
2105.00, 
2106.00, 
2107.00, 
2108.00, 
2109.00, 
2110.00, 
2111.00, 
2112.00, 
2113.00, 
2114.00, 
2115.00, 
2116.00, 
2117.00, 
2118.00, 
2119.00, 
2120.00, 
2121.00, 
2122.00, 
2123.00, 
2124.00, 
2125.00, 
2126.00, 
2127.00, 
2128.00, 
2129.00, 
2130.00, 
2131.00, 
2132.00, 
2133.00, 
2134.00, 
2135.00, 
2136.00, 
2137.00, 
2138.00, 
2139.00, 
2140.00, 
2141.00, 
2142.00, 
2143.00, 
2144.00, 
2145.00, 
2146.00, 
2147.00, 
2148.00, 
2149.00, 
2150.00, 
2151.00, 
2152.00, 
2153.00, 
2154.00, 
2155.00, 
2156.00, 
2157.00, 
2158.00, 
2159.00, 
2160.00, 
2161.00, 
2162.00, 
2163.00, 
2164.00, 
2165.00, 
2166.00, 
2167.00, 
2168.00, 
2169.00, 
2170.00, 
2171.00, 
2172.00, 
2173.00, 
2174.00, 
2175.00, 
2176.00, 
2177.00, 
2178.00, 
2179.00, 
2180.00, 
2181.00, 
2182.00, 
2183.00, 
2184.00, 
2185.00, 
2186.00, 
2187.00, 
2188.00, 
2189.00, 
2190.00, 
2191.00, 
2192.00, 
2193.00, 
2194.00, 
2195.00, 
2196.00, 
2197.00, 
2198.00, 
2199.00, 
2200.00, 
2201.00, 
2202.00, 
2203.00, 
2204.00, 
2205.00, 
2206.00, 
2207.00, 
2208.00, 
2209.00, 
2210.00, 
2211.00, 
2212.00, 
2213.00, 
2214.00, 
2215.00, 
2216.00, 
2217.00, 
2218.00, 
2219.00, 
2220.00, 
2221.00, 
2222.00, 
2223.00, 
2224.00, 
2225.00, 
2226.00, 
2227.00, 
2228.00, 
2229.00, 
2230.00, 
2231.00, 
2232.00, 
2233.00, 
2234.00, 
2235.00, 
2236.00, 
2237.00, 
2238.00, 
2239.00, 
2240.00, 
2241.00, 
2242.00, 
2243.00, 
2244.00, 
2245.00, 
2246.00, 
2247.00, 
2248.00, 
2249.00, 
2250.00, 
2251.00, 
2252.00, 
2253.00, 
2254.00, 
2255.00, 
2256.00, 
2257.00, 
2258.00, 
2259.00, 
2260.00, 
2261.00, 
2262.00, 
2263.00, 
2264.00, 
2265.00, 
2266.00, 
2267.00, 
2268.00, 
2269.00, 
2270.00, 
2271.00, 
2272.00, 
2273.00, 
2274.00, 
2275.00, 
2276.00, 
2277.00, 
2278.00, 
2279.00, 
2280.00, 
2281.00, 
2282.00, 
2283.00, 
2284.00, 
2285.00, 
2286.00, 
2287.00, 
2288.00, 
2289.00, 
2290.00, 
2291.00, 
2292.00, 
2293.00, 
2294.00, 
2295.00, 
2296.00, 
2297.00, 
2298.00, 
2299.00, 
2300.00, 
2301.00, 
2302.00, 
2303.00, 
2304.00, 
2305.00, 
2306.00, 
2307.00, 
2308.00, 
2309.00, 
2310.00, 
2311.00, 
2312.00, 
2313.00, 
2314.00, 
2315.00, 
2316.00, 
2317.00, 
2318.00, 
2319.00, 
2320.00, 
2321.00, 
2322.00, 
2323.00, 
2324.00, 
2325.00, 
2326.00, 
2327.00, 
2328.00, 
2329.00, 
2330.00, 
2331.00, 
2332.00, 
2333.00, 
2334.00, 
2335.00, 
2336.00, 
2337.00, 
2338.00, 
2339.00, 
2340.00, 
2341.00, 
2342.00, 
2343.00, 
2344.00, 
2345.00, 
2346.00, 
2347.00, 
2348.00, 
2349.00, 
2350.00, 
2351.00, 
2352.00, 
2353.00, 
2354.00, 
2355.00, 
2356.00, 
2357.00, 
2358.00, 
2359.00, 
2360.00, 
2361.00, 
2362.00, 
2363.00, 
2364.00, 
2365.00, 
2366.00, 
2367.00, 
2368.00, 
2369.00, 
2370.00, 
2371.00, 
2372.00, 
2373.00, 
2374.00, 
2375.00, 
2376.00, 
2377.00, 
2378.00, 
2379.00, 
2380.00, 
2381.00, 
2382.00, 
2383.00, 
2384.00, 
2385.00, 
2386.00, 
2387.00, 
2388.00, 
2389.00, 
2390.00, 
2391.00, 
2392.00, 
2393.00, 
2394.00, 
2395.00, 
2396.00, 
2397.00, 
2398.00, 
2399.00, 
2400.00, 
2401.00, 
2402.00, 
2403.00, 
2404.00, 
2405.00, 
2406.00, 
2407.00, 
2408.00, 
2409.00, 
2410.00, 
2411.00, 
2412.00, 
2413.00, 
2414.00, 
2415.00, 
2416.00, 
2417.00, 
2418.00, 
2419.00, 
2420.00, 
2421.00, 
2422.00, 
2423.00, 
2424.00, 
2425.00, 
2426.00, 
2427.00, 
2428.00, 
2429.00, 
2430.00, 
2431.00, 
2432.00, 
2433.00, 
2434.00, 
2435.00, 
2436.00, 
2437.00, 
2438.00, 
2439.00, 
2440.00, 
2441.00, 
2442.00, 
2443.00, 
2444.00, 
2445.00, 
2446.00, 
2447.00, 
2448.00, 
2449.00, 
2450.00, 
2451.00, 
2452.00, 
2453.00, 
2454.00, 
2455.00, 
2456.00, 
2457.00, 
2458.00, 
2459.00, 
2460.00, 
2461.00, 
2462.00, 
2463.00, 
2464.00, 
2465.00, 
2466.00, 
2467.00, 
2468.00, 
2469.00, 
2470.00, 
2471.00, 
2472.00, 
2473.00, 
2474.00, 
2475.00, 
2476.00, 
2477.00, 
2478.00, 
2479.00, 
2480.00, 
2481.00, 
2482.00, 
2483.00, 
2484.00, 
2485.00, 
2486.00, 
2487.00, 
2488.00, 
2489.00, 
2490.00, 
2491.00, 
2492.00, 
2493.00, 
2494.00, 
2495.00, 
2496.00, 
2497.00, 
2498.00, 
2499.00, 
2500.00, 
2501.00, 
2502.00, 
2503.00, 
2504.00, 
2505.00, 
2506.00, 
2507.00, 
2508.00, 
2509.00, 
2510.00, 
2511.00, 
2512.00, 
2513.00, 
2514.00, 
2515.00, 
2516.00, 
2517.00, 
2518.00, 
2519.00, 
2520.00, 
2521.00, 
2522.00, 
2523.00, 
2524.00, 
2525.00, 
2526.00, 
2527.00, 
2528.00, 
2529.00, 
2530.00, 
2531.00, 
2532.00, 
2533.00, 
2534.00, 
2535.00, 
2536.00, 
2537.00, 
2538.00, 
2539.00, 
2540.00, 
2541.00, 
2542.00, 
2543.00, 
2544.00, 
2545.00, 
2546.00, 
2547.00, 
2548.00, 
2549.00, 
2550.00, 
2551.00, 
2552.00, 
2553.00, 
2554.00, 
2555.00, 
2556.00, 
2557.00, 
2558.00, 
2559.00, 
2560.00, 
2561.00, 
2562.00, 
2563.00, 
2564.00, 
2565.00, 
2566.00, 
2567.00, 
2568.00, 
2569.00, 
2570.00, 
2571.00, 
2572.00, 
2573.00, 
2574.00, 
2575.00, 
2576.00, 
2577.00, 
2578.00, 
2579.00, 
2580.00, 
2581.00, 
2582.00, 
2583.00, 
2584.00, 
2585.00, 
2586.00, 
2587.00, 
2588.00, 
2589.00, 
2590.00, 
2591.00, 
2592.00, 
2593.00, 
2594.00, 
2595.00, 
2596.00, 
2597.00, 
2598.00, 
2599.00, 
2600.00, 
