"2cP5 - RawData"
"Wavelength nm.","T%"
200.00,0.003
201.00,0.001
202.00,-0.001
203.00,-0.001
204.00,0.003
205.00,0.002
206.00,0.001
207.00,0.002
208.00,-0.004
209.00,-0.000
210.00,0.001
211.00,-0.000
212.00,-0.000
213.00,0.001
214.00,0.002
215.00,-0.001
216.00,0.002
217.00,0.000
218.00,0.001
219.00,0.003
220.00,0.001
221.00,0.003
222.00,-0.001
223.00,-0.001
224.00,-0.001
225.00,0.001
226.00,0.001
227.00,0.001
228.00,0.000
229.00,0.002
230.00,0.000
231.00,-0.001
232.00,0.001
233.00,0.000
234.00,0.002
235.00,0.001
236.00,-0.001
237.00,-0.001
238.00,0.002
239.00,0.000
240.00,0.002
241.00,0.000
242.00,0.002
243.00,-0.000
244.00,-0.001
245.00,0.002
246.00,0.002
247.00,-0.001
248.00,0.000
249.00,0.000
250.00,0.000
251.00,-0.000
252.00,0.002
253.00,0.002
254.00,-0.001
255.00,-0.001
256.00,0.001
257.00,0.001
258.00,-0.000
259.00,0.001
260.00,0.002
261.00,0.001
262.00,0.001
263.00,-0.002
264.00,0.001
265.00,0.000
266.00,0.001
267.00,0.001
268.00,-0.000
269.00,0.001
270.00,-0.000
271.00,-0.000
272.00,-0.000
273.00,-0.001
274.00,-0.001
275.00,-0.001
276.00,0.001
277.00,0.001
278.00,-0.002
279.00,0.000
280.00,0.000
281.00,0.001
282.00,0.001
283.00,-0.000
284.00,-0.000
285.00,0.001
286.00,0.001
287.00,-0.001
288.00,0.004
289.00,0.000
290.00,-0.001
291.00,-0.001
292.00,0.001
293.00,-0.000
294.00,0.000
295.00,-0.000
296.00,0.001
297.00,0.001
298.00,0.002
299.00,0.002
300.00,0.001
301.00,0.004
302.00,0.005
303.00,0.006
304.00,0.010
305.00,0.017
306.00,0.025
307.00,0.038
308.00,0.059
309.00,0.091
310.00,0.128
311.00,0.172
312.00,0.240
313.00,0.325
314.00,0.426
315.00,0.553
316.00,0.702
317.00,0.871
318.00,1.105
319.00,1.354
320.00,1.647
321.00,1.968
322.00,2.339
323.00,2.752
324.00,3.178
325.00,3.631
326.00,4.078
327.00,4.627
328.00,5.170
329.00,5.717
330.00,6.274
331.00,6.878
332.00,7.444
333.00,8.085
334.00,8.669
335.00,9.291
336.00,9.892
337.00,10.480
338.00,11.105
339.00,11.657
340.00,12.238
341.00,12.780
342.00,13.256
343.00,13.701
344.00,14.245
345.00,14.723
346.00,15.145
347.00,15.569
348.00,15.936
349.00,16.289
350.00,16.653
351.00,16.956
352.00,17.219
353.00,17.485
354.00,17.792
355.00,18.050
356.00,18.263
357.00,18.468
358.00,18.663
359.00,18.859
360.00,19.036
361.00,19.176
362.00,19.336
363.00,19.469
364.00,19.537
365.00,19.632
366.00,19.712
367.00,19.801
368.00,19.852
369.00,19.856
370.00,19.932
371.00,19.939
372.00,19.919
373.00,19.938
374.00,19.929
375.00,19.928
376.00,19.899
377.00,19.831
378.00,19.802
379.00,19.735
380.00,19.754
381.00,19.743
382.00,19.704
383.00,19.715
384.00,19.734
385.00,19.770
386.00,19.764
387.00,19.823
388.00,19.866
389.00,19.858
390.00,19.893
391.00,19.903
392.00,19.917
393.00,19.915
394.00,19.929
395.00,19.962
396.00,19.942
397.00,19.935
398.00,19.949
399.00,19.958
400.00,19.984
401.00,19.983
402.00,19.978
403.00,19.953
404.00,19.954
405.00,19.969
406.00,19.916
407.00,19.919
408.00,19.909
409.00,19.858
410.00,19.805
411.00,19.814
412.00,19.810
413.00,19.842
414.00,19.827
415.00,19.832
416.00,19.877
417.00,19.839
418.00,19.845
419.00,19.939
420.00,19.984
421.00,20.030
422.00,20.054
423.00,20.117
424.00,20.133
425.00,20.166
426.00,20.197
427.00,20.252
428.00,20.322
429.00,20.331
430.00,20.401
431.00,20.468
432.00,20.488
433.00,20.536
434.00,20.631
435.00,20.693
436.00,20.746
437.00,20.808
438.00,20.840
439.00,20.957
440.00,21.014
441.00,21.114
442.00,21.213
443.00,21.289
444.00,21.390
445.00,21.467
446.00,21.565
447.00,21.664
448.00,21.773
449.00,21.903
450.00,21.976
451.00,22.042
452.00,22.163
453.00,22.285
454.00,22.399
455.00,22.524
456.00,22.659
457.00,22.744
458.00,22.860
459.00,22.999
460.00,23.125
461.00,23.264
462.00,23.374
463.00,23.536
464.00,23.648
465.00,23.780
466.00,23.916
467.00,24.033
468.00,24.103
469.00,24.250
470.00,24.377
471.00,24.478
472.00,24.612
473.00,24.705
474.00,24.842
475.00,24.960
476.00,25.079
477.00,25.204
478.00,25.309
479.00,25.477
480.00,25.640
481.00,25.765
482.00,25.882
483.00,26.069
484.00,26.174
485.00,26.384
486.00,26.518
487.00,26.673
488.00,26.836
489.00,27.000
490.00,27.159
491.00,27.297
492.00,27.527
493.00,27.676
494.00,27.647
495.00,27.779
496.00,27.979
497.00,28.102
498.00,28.293
499.00,28.486
500.00,28.528
501.00,28.646
502.00,28.798
503.00,28.945
504.00,29.008
505.00,29.162
506.00,29.331
507.00,29.399
508.00,29.537
509.00,29.687
510.00,29.806
511.00,29.899
512.00,30.099
513.00,30.219
514.00,30.333
515.00,30.500
516.00,30.600
517.00,30.674
518.00,30.835
519.00,30.878
520.00,30.950
521.00,31.076
522.00,31.173
523.00,31.201
524.00,31.319
525.00,31.493
526.00,31.552
527.00,31.585
528.00,31.667
529.00,31.857
530.00,32.027
531.00,32.139
532.00,32.200
533.00,32.280
534.00,32.428
535.00,32.469
536.00,32.588
537.00,32.636
538.00,32.717
539.00,32.800
540.00,32.872
541.00,32.931
542.00,32.993
543.00,33.034
544.00,33.130
545.00,33.214
546.00,33.224
547.00,33.380
548.00,33.485
549.00,33.512
550.00,33.636
551.00,33.731
552.00,33.803
553.00,33.824
554.00,33.894
555.00,33.964
556.00,34.031
557.00,34.071
558.00,34.123
559.00,34.218
560.00,34.273
561.00,34.354
562.00,34.409
563.00,34.429
564.00,34.502
565.00,34.544
566.00,34.531
567.00,34.565
568.00,34.640
569.00,34.679
570.00,34.711
571.00,34.799
572.00,34.818
573.00,34.796
574.00,34.873
575.00,34.867
576.00,34.896
577.00,34.939
578.00,35.080
579.00,35.143
580.00,35.168
581.00,35.280
582.00,35.415
583.00,35.424
584.00,35.505
585.00,35.564
586.00,35.631
587.00,35.682
588.00,35.680
589.00,35.669
590.00,35.755
591.00,35.842
592.00,35.774
593.00,35.820
594.00,35.926
595.00,35.994
596.00,36.069
597.00,36.157
598.00,36.246
599.00,36.196
600.00,36.234
601.00,36.241
602.00,36.294
603.00,36.388
604.00,36.414
605.00,36.463
606.00,36.500
607.00,36.487
608.00,36.642
609.00,36.804
610.00,36.649
611.00,36.725
612.00,36.775
613.00,36.878
614.00,36.920
615.00,36.974
616.00,37.036
617.00,37.058
618.00,37.063
619.00,37.151
620.00,37.216
621.00,37.272
622.00,37.317
623.00,37.407
624.00,37.460
625.00,37.517
626.00,37.564
627.00,37.632
628.00,37.689
629.00,37.723
630.00,37.759
631.00,37.883
632.00,37.969
633.00,38.038
634.00,38.162
635.00,38.266
636.00,38.287
637.00,38.371
638.00,38.424
639.00,38.541
640.00,38.544
641.00,38.603
642.00,38.715
643.00,38.766
644.00,38.855
645.00,38.941
646.00,39.106
647.00,39.166
648.00,39.295
649.00,39.284
650.00,39.344
651.00,39.507
652.00,39.600
653.00,39.637
654.00,39.668
655.00,39.919
656.00,40.154
657.00,40.025
658.00,40.057
659.00,40.186
660.00,40.289
661.00,40.397
662.00,40.499
663.00,40.573
664.00,40.812
665.00,40.965
666.00,40.940
667.00,41.034
668.00,41.016
669.00,41.244
670.00,41.480
671.00,41.416
672.00,41.573
673.00,41.648
674.00,41.625
675.00,41.696
676.00,41.994
677.00,42.133
678.00,42.032
679.00,42.259
680.00,42.241
681.00,42.557
682.00,42.558
683.00,42.513
684.00,42.731
685.00,42.848
686.00,42.753
687.00,42.908
688.00,42.959
689.00,42.972
690.00,43.392
691.00,43.614
692.00,43.439
693.00,43.498
694.00,43.644
695.00,43.769
696.00,43.830
697.00,43.934
698.00,43.978
699.00,44.257
700.00,44.419
701.00,44.425
702.00,44.550
703.00,44.640
704.00,44.697
705.00,44.692
706.00,44.752
707.00,44.886
708.00,44.891
709.00,45.196
710.00,45.577
711.00,45.243
712.00,45.263
713.00,45.290
714.00,45.578
715.00,45.535
716.00,45.553
717.00,45.724
718.00,45.852
719.00,45.938
720.00,45.981
721.00,50.485
722.00,50.441
723.00,50.509
724.00,50.519
725.00,50.521
726.00,50.559
727.00,50.590
728.00,50.644
729.00,50.648
730.00,50.732
731.00,50.801
732.00,50.831
733.00,50.881
734.00,50.900
735.00,51.057
736.00,51.014
737.00,51.107
738.00,51.082
739.00,51.158
740.00,51.221
741.00,51.170
742.00,51.275
743.00,51.284
744.00,51.255
745.00,51.418
746.00,51.342
747.00,51.427
748.00,51.360
749.00,51.383
750.00,51.445
751.00,51.406
752.00,51.408
753.00,51.476
754.00,51.486
755.00,51.533
756.00,51.557
757.00,51.506
758.00,51.583
759.00,51.584
760.00,51.579
761.00,51.674
762.00,51.641
763.00,51.702
764.00,51.702
765.00,51.719
766.00,51.700
767.00,51.827
768.00,51.802
769.00,51.700
770.00,51.871
771.00,51.786
772.00,51.843
773.00,51.818
774.00,51.900
775.00,51.882
776.00,51.919
777.00,51.859
778.00,51.940
779.00,52.034
780.00,51.949
781.00,51.991
782.00,52.006
783.00,51.976
784.00,52.007
785.00,51.979
786.00,52.022
787.00,52.015
788.00,52.047
789.00,51.964
790.00,51.986
791.00,52.038
792.00,51.948
793.00,51.953
794.00,51.993
795.00,51.970
796.00,51.994
797.00,51.880
798.00,51.901
799.00,52.039
800.00,51.884
801.00,51.897
802.00,51.939
803.00,51.954
804.00,51.880
805.00,51.964
806.00,51.896
807.00,51.884
808.00,51.911
809.00,51.889
810.00,51.858
811.00,51.870
812.00,51.903
813.00,51.759
814.00,51.851
815.00,51.801
816.00,51.880
817.00,51.881
818.00,51.733
819.00,51.738
820.00,51.715
821.00,51.708
822.00,51.709
823.00,51.710
824.00,51.752
825.00,51.768
826.00,51.695
827.00,51.754
828.00,51.607
829.00,51.692
830.00,51.629
831.00,53.842
832.00,53.826
833.00,53.833
834.00,53.821
835.00,53.750
836.00,53.768
837.00,53.690
838.00,53.734
839.00,53.729
840.00,53.706
841.00,53.650
842.00,53.657
843.00,53.684
844.00,53.670
845.00,53.588
846.00,53.601
847.00,53.606
848.00,53.532
849.00,53.508
850.00,53.487
851.00,53.408
852.00,53.437
853.00,53.380
854.00,53.415
855.00,53.353
856.00,53.336
857.00,53.417
858.00,53.320
859.00,53.300
860.00,53.250
861.00,53.243
862.00,53.198
863.00,53.235
864.00,53.165
865.00,53.226
866.00,53.173
867.00,53.187
868.00,53.186
869.00,53.166
870.00,53.154
871.00,53.087
872.00,53.194
873.00,53.138
874.00,53.129
875.00,53.102
876.00,53.109
877.00,53.107
878.00,53.085
879.00,53.078
880.00,53.038
881.00,53.021
882.00,53.035
883.00,53.013
884.00,52.990
885.00,52.969
886.00,52.952
887.00,52.919
888.00,52.955
889.00,52.898
890.00,52.895
891.00,52.851
892.00,52.863
893.00,52.837
894.00,52.828
895.00,52.772
896.00,52.764
897.00,52.750
898.00,52.718
899.00,52.728
900.00,52.736
901.00,52.730
902.00,52.729
903.00,52.683
904.00,52.668
905.00,52.661
906.00,52.663
907.00,52.618
908.00,52.575
909.00,52.600
910.00,52.536
911.00,52.542
912.00,52.549
913.00,52.460
914.00,52.450
915.00,52.448
916.00,52.431
917.00,52.414
918.00,52.414
919.00,52.365
920.00,52.375
921.00,52.360
922.00,52.330
923.00,52.329
924.00,52.270
925.00,52.283
926.00,52.266
927.00,52.257
928.00,52.228
929.00,52.216
930.00,52.177
931.00,52.211
932.00,52.088
933.00,52.178
934.00,52.145
935.00,52.121
936.00,52.074
937.00,52.063
938.00,52.044
939.00,52.051
940.00,52.029
941.00,52.008
942.00,52.074
943.00,51.995
944.00,51.950
945.00,51.962
946.00,51.929
947.00,51.873
948.00,51.882
949.00,51.866
950.00,51.847
951.00,51.816
952.00,51.796
953.00,51.761
954.00,51.741
955.00,51.705
956.00,51.679
957.00,51.607
958.00,51.668
959.00,51.606
960.00,51.610
961.00,51.604
962.00,51.596
963.00,51.546
964.00,51.548
965.00,51.552
966.00,51.537
967.00,51.531
968.00,51.501
969.00,51.518
970.00,51.508
971.00,51.518
972.00,51.479
973.00,51.521
974.00,51.527
975.00,51.507
976.00,51.530
977.00,51.499
978.00,51.548
979.00,51.503
980.00,51.510
981.00,51.525
982.00,51.501
983.00,51.511
984.00,51.488
985.00,51.498
986.00,51.468
987.00,51.483
988.00,51.440
989.00,51.455
990.00,51.440
991.00,51.420
992.00,51.437
993.00,51.400
994.00,51.391
995.00,51.372
996.00,51.362
997.00,51.364
998.00,51.325
999.00,51.333
1000.00,51.311
1001.00,51.298
1002.00,51.253
1003.00,51.275
1004.00,51.254
1005.00,51.223
1006.00,51.266
1007.00,51.231
1008.00,51.233
1009.00,51.208
1010.00,51.189
1011.00,51.197
1012.00,51.165
1013.00,51.165
1014.00,51.123
1015.00,51.140
1016.00,51.091
1017.00,51.086
1018.00,51.081
1019.00,51.039
1020.00,51.043
1021.00,51.015
1022.00,51.046
1023.00,50.999
1024.00,50.987
1025.00,50.984
1026.00,50.965
1027.00,50.939
1028.00,50.949
1029.00,50.912
1030.00,50.899
1031.00,50.927
1032.00,50.866
1033.00,50.871
1034.00,50.824
1035.00,50.771
1036.00,50.759
1037.00,50.738
1038.00,50.744
1039.00,50.703
1040.00,50.682
1041.00,50.662
1042.00,50.651
1043.00,50.612
1044.00,50.649
1045.00,50.632
1046.00,50.602
1047.00,50.642
1048.00,50.657
1049.00,50.661
1050.00,50.664
1051.00,50.705
1052.00,50.713
1053.00,50.721
1054.00,50.706
1055.00,50.743
1056.00,50.739
1057.00,50.741
1058.00,50.736
1059.00,50.723
1060.00,50.730
1061.00,50.709
1062.00,50.688
1063.00,50.709
1064.00,50.721
1065.00,50.717
1066.00,50.670
1067.00,50.652
1068.00,50.678
1069.00,50.656
1070.00,50.632
1071.00,50.637
1072.00,50.642
1073.00,50.602
1074.00,50.609
1075.00,50.593
1076.00,50.584
1077.00,50.572
1078.00,50.545
1079.00,50.550
1080.00,50.571
1081.00,50.548
1082.00,50.530
1083.00,50.526
1084.00,50.509
1085.00,50.526
1086.00,50.507
1087.00,50.491
1088.00,50.491
1089.00,50.484
1090.00,50.470
1091.00,50.470
1092.00,50.453
1093.00,50.441
1094.00,50.419
1095.00,50.414
1096.00,50.396
1097.00,50.405
1098.00,50.388
1099.00,50.393
1100.00,50.382
1101.00,50.361
1102.00,50.352
1103.00,50.337
1104.00,50.335
1105.00,50.326
1106.00,50.310
1107.00,50.320
1108.00,50.304
1109.00,50.300
1110.00,50.323
1111.00,50.296
1112.00,50.267
1113.00,50.267
1114.00,50.258
1115.00,50.271
1116.00,50.260
1117.00,50.233
1118.00,50.247
1119.00,50.226
1120.00,50.208
1121.00,50.217
1122.00,50.197
1123.00,50.174
1124.00,50.172
1125.00,50.172
1126.00,50.163
1127.00,50.155
1128.00,50.127
1129.00,50.124
1130.00,50.114
1131.00,50.106
1132.00,50.117
1133.00,50.114
1134.00,50.077
1135.00,50.082
1136.00,50.075
1137.00,50.088
1138.00,50.077
1139.00,50.080
1140.00,50.087
1141.00,50.077
1142.00,50.059
1143.00,50.078
1144.00,50.047
1145.00,50.043
1146.00,50.053
1147.00,50.032
1148.00,50.028
1149.00,50.045
1150.00,50.034
1151.00,50.052
1152.00,50.030
1153.00,50.011
1154.00,50.023
1155.00,50.038
1156.00,50.006
1157.00,49.987
1158.00,49.996
1159.00,49.999
1160.00,49.986
1161.00,49.985
1162.00,49.996
1163.00,49.991
1164.00,49.992
1165.00,50.002
1166.00,49.996
1167.00,49.967
1168.00,50.005
1169.00,49.990
1170.00,50.001
1171.00,49.988
1172.00,49.959
1173.00,49.958
1174.00,49.966
1175.00,49.954
1176.00,49.970
1177.00,49.955
1178.00,49.945
1179.00,49.970
1180.00,49.955
1181.00,49.972
1182.00,49.960
1183.00,49.944
1184.00,49.956
1185.00,49.956
1186.00,49.923
1187.00,49.939
1188.00,49.933
1189.00,49.918
1190.00,49.912
1191.00,49.911
1192.00,49.935
1193.00,49.923
1194.00,49.917
1195.00,49.902
1196.00,49.930
1197.00,49.922
1198.00,49.915
1199.00,49.906
1200.00,49.900
1201.00,49.920
1202.00,49.885
1203.00,49.900
1204.00,49.879
1205.00,49.902
1206.00,49.893
1207.00,49.899
1208.00,49.878
1209.00,49.897
1210.00,49.900
1211.00,49.889
1212.00,49.908
1213.00,49.867
1214.00,49.903
1215.00,49.879
1216.00,49.892
1217.00,49.921
1218.00,49.875
1219.00,49.874
1220.00,49.867
1221.00,49.885
1222.00,49.859
1223.00,49.884
1224.00,49.890
1225.00,49.876
1226.00,49.896
1227.00,49.882
1228.00,49.909
1229.00,49.908
1230.00,49.910
1231.00,49.917
1232.00,49.943
1233.00,49.931
1234.00,49.931
1235.00,49.915
1236.00,49.919
1237.00,49.921
1238.00,49.915
1239.00,49.928
1240.00,49.909
1241.00,49.906
1242.00,49.924
1243.00,49.924
1244.00,49.900
1245.00,49.942
1246.00,49.942
1247.00,49.948
1248.00,49.930
1249.00,49.942
1250.00,49.960
1251.00,49.948
1252.00,49.954
1253.00,49.944
1254.00,49.977
1255.00,49.958
1256.00,49.941
1257.00,49.939
1258.00,49.982
1259.00,49.979
1260.00,49.983
1261.00,49.992
1262.00,49.975
1263.00,49.962
1264.00,49.992
1265.00,49.989
1266.00,49.977
1267.00,49.991
1268.00,49.992
1269.00,50.009
1270.00,50.015
1271.00,50.004
1272.00,50.021
1273.00,50.037
1274.00,50.022
1275.00,50.032
1276.00,50.029
1277.00,50.021
1278.00,50.040
1279.00,50.013
1280.00,50.032
1281.00,50.032
1282.00,50.038
1283.00,50.055
1284.00,50.057
1285.00,50.016
1286.00,50.048
1287.00,50.055
1288.00,50.046
1289.00,50.047
1290.00,50.069
1291.00,50.073
1292.00,50.102
1293.00,50.086
1294.00,50.109
1295.00,50.114
1296.00,50.102
1297.00,50.129
1298.00,50.137
1299.00,50.101
1300.00,50.119
1301.00,50.113
1302.00,50.139
1303.00,50.143
1304.00,50.118
1305.00,50.145
1306.00,50.161
1307.00,50.153
1308.00,50.162
1309.00,50.161
1310.00,50.146
1311.00,50.152
1312.00,50.138
1313.00,50.175
1314.00,50.191
1315.00,50.194
1316.00,50.202
1317.00,50.236
1318.00,50.218
1319.00,50.232
1320.00,50.247
1321.00,50.402
1322.00,50.419
1323.00,50.387
1324.00,50.357
1325.00,50.363
1326.00,50.381
1327.00,50.360
1328.00,50.344
1329.00,50.339
1330.00,50.330
1331.00,50.385
1332.00,50.366
1333.00,50.319
1334.00,50.381
1335.00,50.385
1336.00,50.454
1337.00,50.435
1338.00,50.516
1339.00,50.565
1340.00,50.607
1341.00,50.688
1342.00,50.754
1343.00,50.778
1344.00,50.853
1345.00,50.906
1346.00,50.911
1347.00,50.958
1348.00,50.984
1349.00,51.028
1350.00,51.048
1351.00,51.030
1352.00,51.067
1353.00,51.078
1354.00,51.045
1355.00,51.016
1356.00,51.088
1357.00,51.052
1358.00,51.073
1359.00,51.130
1360.00,51.065
1361.00,51.105
1362.00,51.077
1363.00,51.109
1364.00,51.184
1365.00,51.084
1366.00,51.135
1367.00,51.074
1368.00,51.012
1369.00,51.098
1370.00,51.050
1371.00,51.012
1372.00,51.055
1373.00,51.062
1374.00,51.092
1375.00,51.067
1376.00,51.052
1377.00,51.057
1378.00,51.014
1379.00,51.053
1380.00,51.056
1381.00,51.048
1382.00,51.009
1383.00,51.041
1384.00,50.979
1385.00,50.997
1386.00,51.068
1387.00,51.005
1388.00,50.984
1389.00,50.963
1390.00,50.943
1391.00,51.084
1392.00,51.006
1393.00,51.069
1394.00,51.089
1395.00,51.147
1396.00,50.900
1397.00,50.903
1398.00,51.008
1399.00,51.113
1400.00,51.077
1401.00,50.940
1402.00,50.991
1403.00,51.076
1404.00,51.040
1405.00,51.090
1406.00,51.078
1407.00,51.092
1408.00,51.166
1409.00,51.058
1410.00,51.099
1411.00,51.085
1412.00,51.093
1413.00,51.102
1414.00,51.119
1415.00,51.093
1416.00,51.129
1417.00,51.126
1418.00,51.135
1419.00,51.156
1420.00,51.145
1421.00,51.201
1422.00,51.202
1423.00,51.203
1424.00,51.220
1425.00,51.231
1426.00,51.244
1427.00,51.282
1428.00,51.273
1429.00,51.279
1430.00,51.292
1431.00,51.285
1432.00,51.319
1433.00,51.336
1434.00,51.303
1435.00,51.366
1436.00,51.403
1437.00,51.379
1438.00,51.399
1439.00,51.418
1440.00,51.433
1441.00,51.430
1442.00,51.424
1443.00,51.481
1444.00,51.540
1445.00,51.460
1446.00,51.489
1447.00,51.529
1448.00,51.561
1449.00,51.563
1450.00,51.552
1451.00,51.572
1452.00,51.591
1453.00,51.594
1454.00,51.626
1455.00,51.653
1456.00,51.649
1457.00,51.650
1458.00,51.683
1459.00,51.693
1460.00,51.711
1461.00,51.713
1462.00,51.745
1463.00,51.749
1464.00,51.750
1465.00,51.778
1466.00,51.772
1467.00,51.782
1468.00,51.831
1469.00,51.805
1470.00,51.825
1471.00,51.859
1472.00,51.863
1473.00,51.881
1474.00,51.911
1475.00,51.918
1476.00,51.935
1477.00,51.922
1478.00,51.920
1479.00,51.961
1480.00,51.972
1481.00,51.965
1482.00,51.999
1483.00,51.997
1484.00,52.043
1485.00,52.038
1486.00,52.022
1487.00,52.055
1488.00,52.086
1489.00,52.075
1490.00,52.107
1491.00,52.101
1492.00,52.122
1493.00,52.106
1494.00,52.122
1495.00,52.144
1496.00,52.159
1497.00,52.141
1498.00,52.162
1499.00,52.189
1500.00,52.191
1501.00, 
1502.00, 
1503.00, 
1504.00, 
1505.00, 
1506.00, 
1507.00, 
1508.00, 
1509.00, 
1510.00, 
1511.00, 
1512.00, 
1513.00, 
1514.00, 
1515.00, 
1516.00, 
1517.00, 
1518.00, 
1519.00, 
1520.00, 
1521.00, 
1522.00, 
1523.00, 
1524.00, 
1525.00, 
1526.00, 
1527.00, 
1528.00, 
1529.00, 
1530.00, 
1531.00, 
1532.00, 
1533.00, 
1534.00, 
1535.00, 
1536.00, 
1537.00, 
1538.00, 
1539.00, 
1540.00, 
1541.00, 
1542.00, 
1543.00, 
1544.00, 
1545.00, 
1546.00, 
1547.00, 
1548.00, 
1549.00, 
1550.00, 
1551.00, 
1552.00, 
1553.00, 
1554.00, 
1555.00, 
1556.00, 
1557.00, 
1558.00, 
1559.00, 
1560.00, 
1561.00, 
1562.00, 
1563.00, 
1564.00, 
1565.00, 
1566.00, 
1567.00, 
1568.00, 
1569.00, 
1570.00, 
1571.00, 
1572.00, 
1573.00, 
1574.00, 
1575.00, 
1576.00, 
1577.00, 
1578.00, 
1579.00, 
1580.00, 
1581.00, 
1582.00, 
1583.00, 
1584.00, 
1585.00, 
1586.00, 
1587.00, 
1588.00, 
1589.00, 
1590.00, 
1591.00, 
1592.00, 
1593.00, 
1594.00, 
1595.00, 
1596.00, 
1597.00, 
1598.00, 
1599.00, 
1600.00, 
1601.00, 
1602.00, 
1603.00, 
1604.00, 
1605.00, 
1606.00, 
1607.00, 
1608.00, 
1609.00, 
1610.00, 
1611.00, 
1612.00, 
1613.00, 
1614.00, 
1615.00, 
1616.00, 
1617.00, 
1618.00, 
1619.00, 
1620.00, 
1621.00, 
1622.00, 
1623.00, 
1624.00, 
1625.00, 
1626.00, 
1627.00, 
1628.00, 
1629.00, 
1630.00, 
1631.00, 
1632.00, 
1633.00, 
1634.00, 
1635.00, 
1636.00, 
1637.00, 
1638.00, 
1639.00, 
1640.00, 
1641.00, 
1642.00, 
1643.00, 
1644.00, 
1645.00, 
1646.00, 
1647.00, 
1648.00, 
1649.00, 
1650.00, 
1651.00, 
1652.00, 
1653.00, 
1654.00, 
1655.00, 
1656.00, 
1657.00, 
1658.00, 
1659.00, 
1660.00, 
1661.00, 
1662.00, 
1663.00, 
1664.00, 
1665.00, 
1666.00, 
1667.00, 
1668.00, 
1669.00, 
1670.00, 
1671.00, 
1672.00, 
1673.00, 
1674.00, 
1675.00, 
1676.00, 
1677.00, 
1678.00, 
1679.00, 
1680.00, 
1681.00, 
1682.00, 
1683.00, 
1684.00, 
1685.00, 
1686.00, 
1687.00, 
1688.00, 
1689.00, 
1690.00, 
1691.00, 
1692.00, 
1693.00, 
1694.00, 
1695.00, 
1696.00, 
1697.00, 
1698.00, 
1699.00, 
1700.00, 
1701.00, 
1702.00, 
1703.00, 
1704.00, 
1705.00, 
1706.00, 
1707.00, 
1708.00, 
1709.00, 
1710.00, 
1711.00, 
1712.00, 
1713.00, 
1714.00, 
1715.00, 
1716.00, 
1717.00, 
1718.00, 
1719.00, 
1720.00, 
1721.00, 
1722.00, 
1723.00, 
1724.00, 
1725.00, 
1726.00, 
1727.00, 
1728.00, 
1729.00, 
1730.00, 
1731.00, 
1732.00, 
1733.00, 
1734.00, 
1735.00, 
1736.00, 
1737.00, 
1738.00, 
1739.00, 
1740.00, 
1741.00, 
1742.00, 
1743.00, 
1744.00, 
1745.00, 
1746.00, 
1747.00, 
1748.00, 
1749.00, 
1750.00, 
1751.00, 
1752.00, 
1753.00, 
1754.00, 
1755.00, 
1756.00, 
1757.00, 
1758.00, 
1759.00, 
1760.00, 
1761.00, 
1762.00, 
1763.00, 
1764.00, 
1765.00, 
1766.00, 
1767.00, 
1768.00, 
1769.00, 
1770.00, 
1771.00, 
1772.00, 
1773.00, 
1774.00, 
1775.00, 
1776.00, 
1777.00, 
1778.00, 
1779.00, 
1780.00, 
1781.00, 
1782.00, 
1783.00, 
1784.00, 
1785.00, 
1786.00, 
1787.00, 
1788.00, 
1789.00, 
1790.00, 
1791.00, 
1792.00, 
1793.00, 
1794.00, 
1795.00, 
1796.00, 
1797.00, 
1798.00, 
1799.00, 
1800.00, 
1801.00, 
1802.00, 
1803.00, 
1804.00, 
1805.00, 
1806.00, 
1807.00, 
1808.00, 
1809.00, 
1810.00, 
1811.00, 
1812.00, 
1813.00, 
1814.00, 
1815.00, 
1816.00, 
1817.00, 
1818.00, 
1819.00, 
1820.00, 
1821.00, 
1822.00, 
1823.00, 
1824.00, 
1825.00, 
1826.00, 
1827.00, 
1828.00, 
1829.00, 
1830.00, 
1831.00, 
1832.00, 
1833.00, 
1834.00, 
1835.00, 
1836.00, 
1837.00, 
1838.00, 
1839.00, 
1840.00, 
1841.00, 
1842.00, 
1843.00, 
1844.00, 
1845.00, 
1846.00, 
1847.00, 
1848.00, 
1849.00, 
1850.00, 
1851.00, 
1852.00, 
1853.00, 
1854.00, 
1855.00, 
1856.00, 
1857.00, 
1858.00, 
1859.00, 
1860.00, 
1861.00, 
1862.00, 
1863.00, 
1864.00, 
1865.00, 
1866.00, 
1867.00, 
1868.00, 
1869.00, 
1870.00, 
1871.00, 
1872.00, 
1873.00, 
1874.00, 
1875.00, 
1876.00, 
1877.00, 
1878.00, 
1879.00, 
1880.00, 
1881.00, 
1882.00, 
1883.00, 
1884.00, 
1885.00, 
1886.00, 
1887.00, 
1888.00, 
1889.00, 
1890.00, 
1891.00, 
1892.00, 
1893.00, 
1894.00, 
1895.00, 
1896.00, 
1897.00, 
1898.00, 
1899.00, 
1900.00, 
1901.00, 
1902.00, 
1903.00, 
1904.00, 
1905.00, 
1906.00, 
1907.00, 
1908.00, 
1909.00, 
1910.00, 
1911.00, 
1912.00, 
1913.00, 
1914.00, 
1915.00, 
1916.00, 
1917.00, 
1918.00, 
1919.00, 
1920.00, 
1921.00, 
1922.00, 
1923.00, 
1924.00, 
1925.00, 
1926.00, 
1927.00, 
1928.00, 
1929.00, 
1930.00, 
1931.00, 
1932.00, 
1933.00, 
1934.00, 
1935.00, 
1936.00, 
1937.00, 
1938.00, 
1939.00, 
1940.00, 
1941.00, 
1942.00, 
1943.00, 
1944.00, 
1945.00, 
1946.00, 
1947.00, 
1948.00, 
1949.00, 
1950.00, 
1951.00, 
1952.00, 
1953.00, 
1954.00, 
1955.00, 
1956.00, 
1957.00, 
1958.00, 
1959.00, 
1960.00, 
1961.00, 
1962.00, 
1963.00, 
1964.00, 
1965.00, 
1966.00, 
1967.00, 
1968.00, 
1969.00, 
1970.00, 
1971.00, 
1972.00, 
1973.00, 
1974.00, 
1975.00, 
1976.00, 
1977.00, 
1978.00, 
1979.00, 
1980.00, 
1981.00, 
1982.00, 
1983.00, 
1984.00, 
1985.00, 
1986.00, 
1987.00, 
1988.00, 
1989.00, 
1990.00, 
1991.00, 
1992.00, 
1993.00, 
1994.00, 
1995.00, 
1996.00, 
1997.00, 
1998.00, 
1999.00, 
2000.00, 
2001.00, 
2002.00, 
2003.00, 
2004.00, 
2005.00, 
2006.00, 
2007.00, 
2008.00, 
2009.00, 
2010.00, 
2011.00, 
2012.00, 
2013.00, 
2014.00, 
2015.00, 
2016.00, 
2017.00, 
2018.00, 
2019.00, 
2020.00, 
2021.00, 
2022.00, 
2023.00, 
2024.00, 
2025.00, 
2026.00, 
2027.00, 
2028.00, 
2029.00, 
2030.00, 
2031.00, 
2032.00, 
2033.00, 
2034.00, 
2035.00, 
2036.00, 
2037.00, 
2038.00, 
2039.00, 
2040.00, 
2041.00, 
2042.00, 
2043.00, 
2044.00, 
2045.00, 
2046.00, 
2047.00, 
2048.00, 
2049.00, 
2050.00, 
2051.00, 
2052.00, 
2053.00, 
2054.00, 
2055.00, 
2056.00, 
2057.00, 
2058.00, 
2059.00, 
2060.00, 
2061.00, 
2062.00, 
2063.00, 
2064.00, 
2065.00, 
2066.00, 
2067.00, 
2068.00, 
2069.00, 
2070.00, 
2071.00, 
2072.00, 
2073.00, 
2074.00, 
2075.00, 
2076.00, 
2077.00, 
2078.00, 
2079.00, 
2080.00, 
2081.00, 
2082.00, 
2083.00, 
2084.00, 
2085.00, 
2086.00, 
2087.00, 
2088.00, 
2089.00, 
2090.00, 
2091.00, 
2092.00, 
2093.00, 
2094.00, 
2095.00, 
2096.00, 
2097.00, 
2098.00, 
2099.00, 
2100.00, 
2101.00, 
2102.00, 
2103.00, 
2104.00, 
2105.00, 
2106.00, 
2107.00, 
2108.00, 
2109.00, 
2110.00, 
2111.00, 
2112.00, 
2113.00, 
2114.00, 
2115.00, 
2116.00, 
2117.00, 
2118.00, 
2119.00, 
2120.00, 
2121.00, 
2122.00, 
2123.00, 
2124.00, 
2125.00, 
2126.00, 
2127.00, 
2128.00, 
2129.00, 
2130.00, 
2131.00, 
2132.00, 
2133.00, 
2134.00, 
2135.00, 
2136.00, 
2137.00, 
2138.00, 
2139.00, 
2140.00, 
2141.00, 
2142.00, 
2143.00, 
2144.00, 
2145.00, 
2146.00, 
2147.00, 
2148.00, 
2149.00, 
2150.00, 
2151.00, 
2152.00, 
2153.00, 
2154.00, 
2155.00, 
2156.00, 
2157.00, 
2158.00, 
2159.00, 
2160.00, 
2161.00, 
2162.00, 
2163.00, 
2164.00, 
2165.00, 
2166.00, 
2167.00, 
2168.00, 
2169.00, 
2170.00, 
2171.00, 
2172.00, 
2173.00, 
2174.00, 
2175.00, 
2176.00, 
2177.00, 
2178.00, 
2179.00, 
2180.00, 
2181.00, 
2182.00, 
2183.00, 
2184.00, 
2185.00, 
2186.00, 
2187.00, 
2188.00, 
2189.00, 
2190.00, 
2191.00, 
2192.00, 
2193.00, 
2194.00, 
2195.00, 
2196.00, 
2197.00, 
2198.00, 
2199.00, 
2200.00, 
2201.00, 
2202.00, 
2203.00, 
2204.00, 
2205.00, 
2206.00, 
2207.00, 
2208.00, 
2209.00, 
2210.00, 
2211.00, 
2212.00, 
2213.00, 
2214.00, 
2215.00, 
2216.00, 
2217.00, 
2218.00, 
2219.00, 
2220.00, 
2221.00, 
2222.00, 
2223.00, 
2224.00, 
2225.00, 
2226.00, 
2227.00, 
2228.00, 
2229.00, 
2230.00, 
2231.00, 
2232.00, 
2233.00, 
2234.00, 
2235.00, 
2236.00, 
2237.00, 
2238.00, 
2239.00, 
2240.00, 
2241.00, 
2242.00, 
2243.00, 
2244.00, 
2245.00, 
2246.00, 
2247.00, 
2248.00, 
2249.00, 
2250.00, 
2251.00, 
2252.00, 
2253.00, 
2254.00, 
2255.00, 
2256.00, 
2257.00, 
2258.00, 
2259.00, 
2260.00, 
2261.00, 
2262.00, 
2263.00, 
2264.00, 
2265.00, 
2266.00, 
2267.00, 
2268.00, 
2269.00, 
2270.00, 
2271.00, 
2272.00, 
2273.00, 
2274.00, 
2275.00, 
2276.00, 
2277.00, 
2278.00, 
2279.00, 
2280.00, 
2281.00, 
2282.00, 
2283.00, 
2284.00, 
2285.00, 
2286.00, 
2287.00, 
2288.00, 
2289.00, 
2290.00, 
2291.00, 
2292.00, 
2293.00, 
2294.00, 
2295.00, 
2296.00, 
2297.00, 
2298.00, 
2299.00, 
2300.00, 
2301.00, 
2302.00, 
2303.00, 
2304.00, 
2305.00, 
2306.00, 
2307.00, 
2308.00, 
2309.00, 
2310.00, 
2311.00, 
2312.00, 
2313.00, 
2314.00, 
2315.00, 
2316.00, 
2317.00, 
2318.00, 
2319.00, 
2320.00, 
2321.00, 
2322.00, 
2323.00, 
2324.00, 
2325.00, 
2326.00, 
2327.00, 
2328.00, 
2329.00, 
2330.00, 
2331.00, 
2332.00, 
2333.00, 
2334.00, 
2335.00, 
2336.00, 
2337.00, 
2338.00, 
2339.00, 
2340.00, 
2341.00, 
2342.00, 
2343.00, 
2344.00, 
2345.00, 
2346.00, 
2347.00, 
2348.00, 
2349.00, 
2350.00, 
2351.00, 
2352.00, 
2353.00, 
2354.00, 
2355.00, 
2356.00, 
2357.00, 
2358.00, 
2359.00, 
2360.00, 
2361.00, 
2362.00, 
2363.00, 
2364.00, 
2365.00, 
2366.00, 
2367.00, 
2368.00, 
2369.00, 
2370.00, 
2371.00, 
2372.00, 
2373.00, 
2374.00, 
2375.00, 
2376.00, 
2377.00, 
2378.00, 
2379.00, 
2380.00, 
2381.00, 
2382.00, 
2383.00, 
2384.00, 
2385.00, 
2386.00, 
2387.00, 
2388.00, 
2389.00, 
2390.00, 
2391.00, 
2392.00, 
2393.00, 
2394.00, 
2395.00, 
2396.00, 
2397.00, 
2398.00, 
2399.00, 
2400.00, 
2401.00, 
2402.00, 
2403.00, 
2404.00, 
2405.00, 
2406.00, 
2407.00, 
2408.00, 
2409.00, 
2410.00, 
2411.00, 
2412.00, 
2413.00, 
2414.00, 
2415.00, 
2416.00, 
2417.00, 
2418.00, 
2419.00, 
2420.00, 
2421.00, 
2422.00, 
2423.00, 
2424.00, 
2425.00, 
2426.00, 
2427.00, 
2428.00, 
2429.00, 
2430.00, 
2431.00, 
2432.00, 
2433.00, 
2434.00, 
2435.00, 
2436.00, 
2437.00, 
2438.00, 
2439.00, 
2440.00, 
2441.00, 
2442.00, 
2443.00, 
2444.00, 
2445.00, 
2446.00, 
2447.00, 
2448.00, 
2449.00, 
2450.00, 
2451.00, 
2452.00, 
2453.00, 
2454.00, 
2455.00, 
2456.00, 
2457.00, 
2458.00, 
2459.00, 
2460.00, 
2461.00, 
2462.00, 
2463.00, 
2464.00, 
2465.00, 
2466.00, 
2467.00, 
2468.00, 
2469.00, 
2470.00, 
2471.00, 
2472.00, 
2473.00, 
2474.00, 
2475.00, 
2476.00, 
2477.00, 
2478.00, 
2479.00, 
2480.00, 
2481.00, 
2482.00, 
2483.00, 
2484.00, 
2485.00, 
2486.00, 
2487.00, 
2488.00, 
2489.00, 
2490.00, 
2491.00, 
2492.00, 
2493.00, 
2494.00, 
2495.00, 
2496.00, 
2497.00, 
2498.00, 
2499.00, 
2500.00, 
2501.00, 
2502.00, 
2503.00, 
2504.00, 
2505.00, 
2506.00, 
2507.00, 
2508.00, 
2509.00, 
2510.00, 
2511.00, 
2512.00, 
2513.00, 
2514.00, 
2515.00, 
2516.00, 
2517.00, 
2518.00, 
2519.00, 
2520.00, 
2521.00, 
2522.00, 
2523.00, 
2524.00, 
2525.00, 
2526.00, 
2527.00, 
2528.00, 
2529.00, 
2530.00, 
2531.00, 
2532.00, 
2533.00, 
2534.00, 
2535.00, 
2536.00, 
2537.00, 
2538.00, 
2539.00, 
2540.00, 
2541.00, 
2542.00, 
2543.00, 
2544.00, 
2545.00, 
2546.00, 
2547.00, 
2548.00, 
2549.00, 
2550.00, 
2551.00, 
2552.00, 
2553.00, 
2554.00, 
2555.00, 
2556.00, 
2557.00, 
2558.00, 
2559.00, 
2560.00, 
2561.00, 
2562.00, 
2563.00, 
2564.00, 
2565.00, 
2566.00, 
2567.00, 
2568.00, 
2569.00, 
2570.00, 
2571.00, 
2572.00, 
2573.00, 
2574.00, 
2575.00, 
2576.00, 
2577.00, 
2578.00, 
2579.00, 
2580.00, 
2581.00, 
2582.00, 
2583.00, 
2584.00, 
2585.00, 
2586.00, 
2587.00, 
2588.00, 
2589.00, 
2590.00, 
2591.00, 
2592.00, 
2593.00, 
2594.00, 
2595.00, 
2596.00, 
2597.00, 
2598.00, 
2599.00, 
2600.00, 
