"1aP2 - RawData"
"Wavelength nm.","T%"
200.00,0.002
201.00,0.002
202.00,-0.002
203.00,0.001
204.00,0.001
205.00,0.001
206.00,0.001
207.00,0.002
208.00,0.004
209.00,0.002
210.00,-0.002
211.00,0.000
212.00,0.001
213.00,0.002
214.00,0.003
215.00,0.001
216.00,-0.001
217.00,0.001
218.00,0.003
219.00,0.001
220.00,-0.000
221.00,0.000
222.00,0.000
223.00,-0.002
224.00,-0.000
225.00,0.001
226.00,0.002
227.00,-0.000
228.00,0.001
229.00,0.002
230.00,0.001
231.00,-0.000
232.00,0.002
233.00,0.001
234.00,0.001
235.00,0.002
236.00,-0.001
237.00,-0.000
238.00,-0.000
239.00,-0.000
240.00,0.003
241.00,0.000
242.00,-0.001
243.00,-0.000
244.00,0.001
245.00,0.000
246.00,0.002
247.00,0.001
248.00,0.001
249.00,0.002
250.00,-0.001
251.00,-0.001
252.00,0.001
253.00,-0.000
254.00,0.000
255.00,0.001
256.00,0.001
257.00,0.001
258.00,-0.000
259.00,0.001
260.00,0.001
261.00,0.000
262.00,0.001
263.00,-0.002
264.00,0.001
265.00,-0.001
266.00,-0.000
267.00,0.001
268.00,0.000
269.00,0.001
270.00,0.002
271.00,-0.001
272.00,0.000
273.00,-0.001
274.00,-0.000
275.00,-0.001
276.00,0.001
277.00,0.000
278.00,-0.002
279.00,0.001
280.00,0.001
281.00,0.000
282.00,0.001
283.00,0.000
284.00,0.001
285.00,-0.001
286.00,-0.001
287.00,-0.001
288.00,0.001
289.00,0.001
290.00,-0.000
291.00,-0.001
292.00,0.001
293.00,-0.000
294.00,0.001
295.00,-0.001
296.00,0.001
297.00,-0.000
298.00,0.001
299.00,0.002
300.00,0.003
301.00,0.005
302.00,0.007
303.00,0.011
304.00,0.017
305.00,0.028
306.00,0.045
307.00,0.067
308.00,0.095
309.00,0.148
310.00,0.204
311.00,0.277
312.00,0.381
313.00,0.512
314.00,0.666
315.00,0.859
316.00,1.083
317.00,1.371
318.00,1.675
319.00,2.039
320.00,2.460
321.00,2.935
322.00,3.430
323.00,3.998
324.00,4.592
325.00,5.210
326.00,5.829
327.00,6.523
328.00,7.200
329.00,7.948
330.00,8.688
331.00,9.438
332.00,10.138
333.00,10.960
334.00,11.686
335.00,12.406
336.00,13.206
337.00,13.787
338.00,14.645
339.00,15.258
340.00,15.962
341.00,16.608
342.00,17.207
343.00,17.750
344.00,18.339
345.00,18.920
346.00,19.391
347.00,19.753
348.00,20.256
349.00,20.549
350.00,21.009
351.00,21.375
352.00,21.695
353.00,22.000
354.00,22.296
355.00,22.543
356.00,22.800
357.00,23.025
358.00,23.236
359.00,23.477
360.00,23.652
361.00,23.758
362.00,23.910
363.00,24.029
364.00,24.090
365.00,24.244
366.00,24.293
367.00,24.359
368.00,24.381
369.00,24.434
370.00,24.510
371.00,24.506
372.00,24.446
373.00,24.433
374.00,24.475
375.00,24.457
376.00,24.369
377.00,24.256
378.00,24.219
379.00,24.098
380.00,24.089
381.00,24.109
382.00,24.033
383.00,24.055
384.00,24.091
385.00,24.090
386.00,24.113
387.00,24.200
388.00,24.309
389.00,24.168
390.00,24.217
391.00,24.209
392.00,24.221
393.00,24.230
394.00,24.257
395.00,24.293
396.00,24.245
397.00,24.245
398.00,24.241
399.00,24.239
400.00,24.231
401.00,24.194
402.00,24.245
403.00,24.199
404.00,24.194
405.00,24.161
406.00,24.169
407.00,24.101
408.00,24.103
409.00,24.072
410.00,24.024
411.00,24.028
412.00,23.980
413.00,24.016
414.00,23.973
415.00,24.024
416.00,24.041
417.00,23.991
418.00,24.063
419.00,24.162
420.00,24.216
421.00,24.180
422.00,24.193
423.00,24.240
424.00,24.278
425.00,24.310
426.00,24.316
427.00,24.405
428.00,24.446
429.00,24.455
430.00,24.524
431.00,24.597
432.00,24.596
433.00,24.693
434.00,24.740
435.00,24.823
436.00,24.897
437.00,24.930
438.00,25.011
439.00,25.059
440.00,25.160
441.00,25.214
442.00,25.322
443.00,25.389
444.00,25.485
445.00,25.547
446.00,25.681
447.00,25.743
448.00,25.855
449.00,25.985
450.00,26.085
451.00,26.148
452.00,26.237
453.00,26.401
454.00,26.459
455.00,26.609
456.00,26.715
457.00,26.822
458.00,26.893
459.00,27.077
460.00,27.206
461.00,27.327
462.00,27.421
463.00,27.593
464.00,27.730
465.00,27.838
466.00,28.003
467.00,28.138
468.00,28.197
469.00,28.289
470.00,28.387
471.00,28.510
472.00,28.646
473.00,28.730
474.00,28.853
475.00,28.987
476.00,29.058
477.00,29.189
478.00,29.310
479.00,29.519
480.00,29.600
481.00,29.733
482.00,29.893
483.00,30.060
484.00,30.250
485.00,30.367
486.00,30.566
487.00,30.681
488.00,30.827
489.00,31.004
490.00,31.133
491.00,31.300
492.00,31.543
493.00,31.688
494.00,31.661
495.00,31.758
496.00,31.888
497.00,32.004
498.00,32.134
499.00,32.302
500.00,32.457
501.00,32.515
502.00,32.630
503.00,32.835
504.00,32.770
505.00,33.008
506.00,33.150
507.00,33.214
508.00,33.362
509.00,33.546
510.00,33.625
511.00,33.696
512.00,33.905
513.00,34.051
514.00,34.140
515.00,34.299
516.00,34.416
517.00,34.487
518.00,34.611
519.00,34.640
520.00,34.734
521.00,34.827
522.00,34.938
523.00,34.939
524.00,35.074
525.00,35.174
526.00,35.299
527.00,35.379
528.00,35.423
529.00,35.649
530.00,35.771
531.00,35.858
532.00,35.934
533.00,36.058
534.00,36.132
535.00,36.213
536.00,36.240
537.00,36.340
538.00,36.392
539.00,36.399
540.00,36.495
541.00,36.498
542.00,36.606
543.00,36.630
544.00,36.736
545.00,36.740
546.00,36.756
547.00,36.961
548.00,37.038
549.00,37.102
550.00,37.197
551.00,37.299
552.00,37.348
553.00,37.366
554.00,37.448
555.00,37.474
556.00,37.566
557.00,37.593
558.00,37.634
559.00,37.726
560.00,37.765
561.00,37.849
562.00,37.935
563.00,38.028
564.00,38.042
565.00,38.038
566.00,38.067
567.00,38.070
568.00,38.143
569.00,38.168
570.00,38.197
571.00,38.256
572.00,38.293
573.00,38.248
574.00,38.288
575.00,38.299
576.00,38.304
577.00,38.372
578.00,38.507
579.00,38.496
580.00,38.520
581.00,38.706
582.00,38.762
583.00,38.782
584.00,38.932
585.00,38.957
586.00,38.929
587.00,39.033
588.00,39.039
589.00,38.962
590.00,39.030
591.00,39.135
592.00,39.049
593.00,39.097
594.00,39.217
595.00,39.321
596.00,39.332
597.00,39.426
598.00,39.510
599.00,39.540
600.00,39.574
601.00,39.540
602.00,39.528
603.00,39.614
604.00,39.696
605.00,39.739
606.00,39.762
607.00,39.817
608.00,39.997
609.00,40.029
610.00,39.806
611.00,39.873
612.00,39.875
613.00,40.034
614.00,40.104
615.00,40.127
616.00,40.068
617.00,40.124
618.00,40.302
619.00,40.455
620.00,40.469
621.00,40.394
622.00,40.503
623.00,40.594
624.00,40.715
625.00,40.676
626.00,40.741
627.00,40.799
628.00,40.800
629.00,40.866
630.00,40.901
631.00,40.971
632.00,40.939
633.00,41.201
634.00,41.275
635.00,41.355
636.00,41.411
637.00,41.418
638.00,41.484
639.00,41.613
640.00,41.613
641.00,41.657
642.00,41.682
643.00,41.714
644.00,41.881
645.00,42.005
646.00,42.074
647.00,42.098
648.00,42.158
649.00,42.171
650.00,42.242
651.00,42.456
652.00,42.538
653.00,42.542
654.00,42.603
655.00,42.799
656.00,43.076
657.00,42.916
658.00,43.025
659.00,43.084
660.00,43.167
661.00,43.250
662.00,43.276
663.00,43.370
664.00,43.635
665.00,43.848
666.00,43.721
667.00,43.787
668.00,43.815
669.00,44.002
670.00,44.332
671.00,44.266
672.00,44.299
673.00,44.355
674.00,44.518
675.00,44.565
676.00,44.682
677.00,44.835
678.00,44.629
679.00,44.774
680.00,44.929
681.00,45.079
682.00,44.959
683.00,44.902
684.00,45.403
685.00,45.637
686.00,45.383
687.00,45.477
688.00,45.570
689.00,45.516
690.00,45.933
691.00,46.046
692.00,45.763
693.00,45.899
694.00,45.848
695.00,46.227
696.00,46.423
697.00,46.318
698.00,46.243
699.00,46.613
700.00,46.704
701.00,46.603
702.00,46.758
703.00,47.128
704.00,46.996
705.00,46.802
706.00,46.913
707.00,46.963
708.00,47.139
709.00,47.657
710.00,47.323
711.00,47.267
712.00,47.406
713.00,47.517
714.00,47.620
715.00,47.585
716.00,47.617
717.00,47.852
718.00,47.954
719.00,47.943
720.00,48.021
721.00,52.544
722.00,52.519
723.00,52.454
724.00,52.496
725.00,52.567
726.00,52.568
727.00,52.601
728.00,52.562
729.00,52.536
730.00,52.640
731.00,52.720
732.00,52.682
733.00,52.773
734.00,52.784
735.00,52.831
736.00,52.858
737.00,52.862
738.00,52.952
739.00,52.966
740.00,52.958
741.00,53.087
742.00,53.133
743.00,53.097
744.00,53.051
745.00,53.144
746.00,53.084
747.00,53.108
748.00,53.105
749.00,53.077
750.00,53.092
751.00,53.077
752.00,53.075
753.00,53.101
754.00,53.158
755.00,53.075
756.00,53.164
757.00,53.178
758.00,53.178
759.00,53.171
760.00,53.225
761.00,53.204
762.00,53.252
763.00,53.285
764.00,53.201
765.00,53.292
766.00,53.317
767.00,53.219
768.00,53.332
769.00,53.282
770.00,53.450
771.00,53.326
772.00,53.338
773.00,53.383
774.00,53.464
775.00,53.526
776.00,53.449
777.00,53.462
778.00,53.498
779.00,53.490
780.00,53.479
781.00,53.451
782.00,53.446
783.00,53.414
784.00,53.515
785.00,53.399
786.00,53.510
787.00,53.431
788.00,53.446
789.00,53.446
790.00,53.421
791.00,53.443
792.00,53.361
793.00,53.365
794.00,53.379
795.00,53.442
796.00,53.386
797.00,53.309
798.00,53.364
799.00,53.328
800.00,53.323
801.00,53.307
802.00,53.315
803.00,53.326
804.00,53.252
805.00,53.345
806.00,53.173
807.00,53.235
808.00,53.346
809.00,53.270
810.00,53.180
811.00,53.208
812.00,53.260
813.00,53.194
814.00,53.191
815.00,53.139
816.00,53.186
817.00,53.238
818.00,53.012
819.00,53.104
820.00,53.087
821.00,53.095
822.00,53.116
823.00,53.007
824.00,53.084
825.00,52.950
826.00,52.994
827.00,53.036
828.00,53.096
829.00,53.095
830.00,53.090
831.00,55.628
832.00,55.628
833.00,55.553
834.00,55.588
835.00,55.583
836.00,55.588
837.00,55.523
838.00,55.530
839.00,55.545
840.00,55.474
841.00,55.489
842.00,55.457
843.00,55.474
844.00,55.453
845.00,55.401
846.00,55.402
847.00,55.375
848.00,55.421
849.00,55.296
850.00,55.336
851.00,55.222
852.00,55.312
853.00,55.199
854.00,55.206
855.00,55.119
856.00,55.196
857.00,54.992
858.00,55.081
859.00,55.124
860.00,55.047
861.00,55.123
862.00,55.139
863.00,55.061
864.00,55.003
865.00,55.037
866.00,55.025
867.00,55.020
868.00,55.001
869.00,54.972
870.00,55.033
871.00,54.963
872.00,54.993
873.00,54.930
874.00,54.999
875.00,54.886
876.00,54.931
877.00,55.062
878.00,54.940
879.00,54.887
880.00,54.937
881.00,54.927
882.00,54.939
883.00,54.893
884.00,54.869
885.00,54.837
886.00,54.878
887.00,54.790
888.00,54.771
889.00,54.773
890.00,54.776
891.00,54.715
892.00,54.714
893.00,54.699
894.00,54.686
895.00,54.662
896.00,54.655
897.00,54.653
898.00,54.587
899.00,54.654
900.00,54.600
901.00,54.570
902.00,54.666
903.00,54.549
904.00,54.531
905.00,54.566
906.00,54.545
907.00,54.511
908.00,54.454
909.00,54.485
910.00,54.453
911.00,54.431
912.00,54.433
913.00,54.412
914.00,54.415
915.00,54.398
916.00,54.318
917.00,54.425
918.00,54.357
919.00,54.315
920.00,54.259
921.00,54.302
922.00,54.266
923.00,54.253
924.00,54.175
925.00,54.223
926.00,54.160
927.00,54.157
928.00,54.089
929.00,54.179
930.00,54.070
931.00,54.097
932.00,54.162
933.00,54.089
934.00,54.049
935.00,54.036
936.00,54.021
937.00,54.022
938.00,54.006
939.00,53.994
940.00,53.945
941.00,53.957
942.00,53.916
943.00,53.919
944.00,53.847
945.00,53.876
946.00,53.883
947.00,53.814
948.00,53.823
949.00,53.794
950.00,53.790
951.00,53.764
952.00,53.777
953.00,53.704
954.00,53.704
955.00,53.630
956.00,53.646
957.00,53.604
958.00,53.644
959.00,53.572
960.00,53.585
961.00,53.566
962.00,53.590
963.00,53.526
964.00,53.504
965.00,53.550
966.00,53.511
967.00,53.510
968.00,53.476
969.00,53.527
970.00,53.471
971.00,53.484
972.00,53.449
973.00,53.490
974.00,53.528
975.00,53.470
976.00,53.492
977.00,53.456
978.00,53.584
979.00,53.486
980.00,53.469
981.00,53.514
982.00,53.452
983.00,53.490
984.00,53.440
985.00,53.491
986.00,53.424
987.00,53.467
988.00,53.403
989.00,53.401
990.00,53.423
991.00,53.390
992.00,53.394
993.00,53.405
994.00,53.360
995.00,53.379
996.00,53.359
997.00,53.356
998.00,53.318
999.00,53.346
1000.00,53.290
1001.00,53.291
1002.00,53.279
1003.00,53.250
1004.00,53.259
1005.00,53.211
1006.00,53.274
1007.00,53.228
1008.00,53.225
1009.00,53.226
1010.00,53.196
1011.00,53.200
1012.00,53.155
1013.00,53.166
1014.00,53.144
1015.00,53.175
1016.00,53.115
1017.00,53.119
1018.00,53.179
1019.00,53.074
1020.00,53.099
1021.00,53.064
1022.00,53.063
1023.00,53.021
1024.00,53.059
1025.00,53.002
1026.00,52.984
1027.00,52.966
1028.00,52.957
1029.00,52.948
1030.00,52.889
1031.00,52.928
1032.00,52.870
1033.00,52.876
1034.00,52.854
1035.00,52.816
1036.00,52.803
1037.00,52.785
1038.00,52.797
1039.00,52.764
1040.00,52.734
1041.00,52.699
1042.00,52.709
1043.00,52.679
1044.00,52.708
1045.00,52.693
1046.00,52.673
1047.00,52.707
1048.00,52.708
1049.00,52.721
1050.00,52.722
1051.00,52.768
1052.00,52.732
1053.00,52.779
1054.00,52.785
1055.00,52.817
1056.00,52.842
1057.00,52.827
1058.00,52.812
1059.00,52.804
1060.00,52.827
1061.00,52.803
1062.00,52.795
1063.00,52.786
1064.00,52.811
1065.00,52.764
1066.00,52.772
1067.00,52.765
1068.00,52.800
1069.00,52.731
1070.00,52.735
1071.00,52.701
1072.00,52.745
1073.00,52.702
1074.00,52.702
1075.00,52.691
1076.00,52.698
1077.00,52.671
1078.00,52.670
1079.00,52.676
1080.00,52.677
1081.00,52.688
1082.00,52.669
1083.00,52.662
1084.00,52.671
1085.00,52.704
1086.00,52.639
1087.00,52.644
1088.00,52.634
1089.00,52.626
1090.00,52.605
1091.00,52.634
1092.00,52.600
1093.00,52.597
1094.00,52.578
1095.00,52.575
1096.00,52.540
1097.00,52.566
1098.00,52.536
1099.00,52.538
1100.00,52.551
1101.00,52.528
1102.00,52.504
1103.00,52.521
1104.00,52.488
1105.00,52.502
1106.00,52.469
1107.00,52.481
1108.00,52.456
1109.00,52.455
1110.00,52.447
1111.00,52.439
1112.00,52.448
1113.00,52.467
1114.00,52.433
1115.00,52.429
1116.00,52.403
1117.00,52.385
1118.00,52.377
1119.00,52.401
1120.00,52.377
1121.00,52.386
1122.00,52.371
1123.00,52.343
1124.00,52.352
1125.00,52.369
1126.00,52.344
1127.00,52.377
1128.00,52.346
1129.00,52.337
1130.00,52.304
1131.00,52.313
1132.00,52.292
1133.00,52.325
1134.00,52.273
1135.00,52.278
1136.00,52.288
1137.00,52.295
1138.00,52.295
1139.00,52.301
1140.00,52.284
1141.00,52.291
1142.00,52.254
1143.00,52.285
1144.00,52.255
1145.00,52.272
1146.00,52.275
1147.00,52.261
1148.00,52.235
1149.00,52.280
1150.00,52.271
1151.00,52.264
1152.00,52.259
1153.00,52.264
1154.00,52.243
1155.00,52.260
1156.00,52.226
1157.00,52.251
1158.00,52.235
1159.00,52.226
1160.00,52.231
1161.00,52.257
1162.00,52.242
1163.00,52.235
1164.00,52.241
1165.00,52.230
1166.00,52.245
1167.00,52.219
1168.00,52.269
1169.00,52.243
1170.00,52.246
1171.00,52.245
1172.00,52.241
1173.00,52.219
1174.00,52.228
1175.00,52.217
1176.00,52.218
1177.00,52.209
1178.00,52.199
1179.00,52.227
1180.00,52.207
1181.00,52.227
1182.00,52.212
1183.00,52.206
1184.00,52.196
1185.00,52.237
1186.00,52.208
1187.00,52.213
1188.00,52.222
1189.00,52.211
1190.00,52.217
1191.00,52.207
1192.00,52.239
1193.00,52.217
1194.00,52.222
1195.00,52.182
1196.00,52.224
1197.00,52.229
1198.00,52.193
1199.00,52.215
1200.00,52.211
1201.00,52.245
1202.00,52.198
1203.00,52.202
1204.00,52.221
1205.00,52.230
1206.00,52.210
1207.00,52.225
1208.00,52.199
1209.00,52.212
1210.00,52.223
1211.00,52.198
1212.00,52.235
1213.00,52.191
1214.00,52.223
1215.00,52.205
1216.00,52.213
1217.00,52.215
1218.00,52.186
1219.00,52.210
1220.00,52.187
1221.00,52.230
1222.00,52.209
1223.00,52.210
1224.00,52.211
1225.00,52.182
1226.00,52.205
1227.00,52.211
1228.00,52.225
1229.00,52.230
1230.00,52.257
1231.00,52.237
1232.00,52.282
1233.00,52.261
1234.00,52.263
1235.00,52.269
1236.00,52.260
1237.00,52.276
1238.00,52.252
1239.00,52.271
1240.00,52.252
1241.00,52.270
1242.00,52.266
1243.00,52.285
1244.00,52.255
1245.00,52.295
1246.00,52.311
1247.00,52.283
1248.00,52.284
1249.00,52.293
1250.00,52.320
1251.00,52.297
1252.00,52.327
1253.00,52.325
1254.00,52.325
1255.00,52.334
1256.00,52.306
1257.00,52.308
1258.00,52.334
1259.00,52.318
1260.00,52.344
1261.00,52.342
1262.00,52.334
1263.00,52.329
1264.00,52.341
1265.00,52.365
1266.00,52.349
1267.00,52.397
1268.00,52.378
1269.00,52.371
1270.00,52.388
1271.00,52.393
1272.00,52.389
1273.00,52.412
1274.00,52.390
1275.00,52.409
1276.00,52.408
1277.00,52.416
1278.00,52.407
1279.00,52.421
1280.00,52.398
1281.00,52.453
1282.00,52.465
1283.00,52.438
1284.00,52.473
1285.00,52.449
1286.00,52.457
1287.00,52.464
1288.00,52.465
1289.00,52.467
1290.00,52.522
1291.00,52.481
1292.00,52.495
1293.00,52.485
1294.00,52.506
1295.00,52.534
1296.00,52.525
1297.00,52.529
1298.00,52.585
1299.00,52.519
1300.00,52.552
1301.00,52.510
1302.00,52.558
1303.00,52.546
1304.00,52.545
1305.00,52.573
1306.00,52.569
1307.00,52.577
1308.00,52.575
1309.00,52.608
1310.00,52.576
1311.00,52.574
1312.00,52.586
1313.00,52.605
1314.00,52.628
1315.00,52.634
1316.00,52.624
1317.00,52.677
1318.00,52.649
1319.00,52.651
1320.00,52.640
1321.00,52.830
1322.00,52.809
1323.00,52.798
1324.00,52.787
1325.00,52.787
1326.00,52.815
1327.00,52.776
1328.00,52.791
1329.00,52.773
1330.00,52.783
1331.00,52.792
1332.00,52.782
1333.00,52.796
1334.00,52.829
1335.00,52.832
1336.00,52.853
1337.00,52.887
1338.00,52.941
1339.00,52.998
1340.00,53.041
1341.00,53.113
1342.00,53.198
1343.00,53.202
1344.00,53.269
1345.00,53.341
1346.00,53.372
1347.00,53.369
1348.00,53.420
1349.00,53.421
1350.00,53.471
1351.00,53.451
1352.00,53.489
1353.00,53.499
1354.00,53.461
1355.00,53.422
1356.00,53.515
1357.00,53.478
1358.00,53.533
1359.00,53.518
1360.00,53.581
1361.00,53.456
1362.00,53.446
1363.00,53.655
1364.00,53.632
1365.00,53.502
1366.00,53.571
1367.00,53.497
1368.00,53.489
1369.00,53.574
1370.00,53.508
1371.00,53.335
1372.00,53.465
1373.00,53.520
1374.00,53.543
1375.00,53.523
1376.00,53.509
1377.00,53.494
1378.00,53.634
1379.00,53.504
1380.00,53.564
1381.00,53.555
1382.00,53.513
1383.00,53.562
1384.00,53.449
1385.00,53.468
1386.00,53.527
1387.00,53.428
1388.00,53.508
1389.00,53.438
1390.00,53.489
1391.00,53.542
1392.00,53.468
1393.00,53.444
1394.00,53.555
1395.00,53.500
1396.00,53.427
1397.00,53.480
1398.00,53.475
1399.00,53.501
1400.00,53.476
1401.00,53.465
1402.00,53.554
1403.00,53.509
1404.00,53.539
1405.00,53.539
1406.00,53.570
1407.00,53.548
1408.00,53.598
1409.00,53.515
1410.00,53.576
1411.00,53.535
1412.00,53.630
1413.00,53.571
1414.00,53.563
1415.00,53.580
1416.00,53.630
1417.00,53.653
1418.00,53.614
1419.00,53.654
1420.00,53.633
1421.00,53.691
1422.00,53.671
1423.00,53.695
1424.00,53.668
1425.00,53.728
1426.00,53.715
1427.00,53.759
1428.00,53.713
1429.00,53.743
1430.00,53.771
1431.00,53.754
1432.00,53.767
1433.00,53.811
1434.00,53.777
1435.00,53.871
1436.00,53.862
1437.00,53.844
1438.00,53.853
1439.00,53.878
1440.00,53.895
1441.00,53.908
1442.00,53.920
1443.00,53.915
1444.00,54.001
1445.00,53.911
1446.00,53.968
1447.00,53.984
1448.00,54.070
1449.00,54.042
1450.00,54.038
1451.00,54.043
1452.00,54.081
1453.00,54.066
1454.00,54.118
1455.00,54.128
1456.00,54.131
1457.00,54.122
1458.00,54.170
1459.00,54.178
1460.00,54.217
1461.00,54.190
1462.00,54.246
1463.00,54.228
1464.00,54.240
1465.00,54.257
1466.00,54.268
1467.00,54.267
1468.00,54.355
1469.00,54.304
1470.00,54.320
1471.00,54.337
1472.00,54.346
1473.00,54.362
1474.00,54.411
1475.00,54.380
1476.00,54.415
1477.00,54.395
1478.00,54.424
1479.00,54.454
1480.00,54.445
1481.00,54.443
1482.00,54.496
1483.00,54.475
1484.00,54.504
1485.00,54.502
1486.00,54.512
1487.00,54.543
1488.00,54.560
1489.00,54.535
1490.00,54.563
1491.00,54.552
1492.00,54.582
1493.00,54.569
1494.00,54.612
1495.00,54.587
1496.00,54.645
1497.00,54.594
1498.00,54.632
1499.00,54.657
1500.00,54.646
1501.00, 
1502.00, 
1503.00, 
1504.00, 
1505.00, 
1506.00, 
1507.00, 
1508.00, 
1509.00, 
1510.00, 
1511.00, 
1512.00, 
1513.00, 
1514.00, 
1515.00, 
1516.00, 
1517.00, 
1518.00, 
1519.00, 
1520.00, 
1521.00, 
1522.00, 
1523.00, 
1524.00, 
1525.00, 
1526.00, 
1527.00, 
1528.00, 
1529.00, 
1530.00, 
1531.00, 
1532.00, 
1533.00, 
1534.00, 
1535.00, 
1536.00, 
1537.00, 
1538.00, 
1539.00, 
1540.00, 
1541.00, 
1542.00, 
1543.00, 
1544.00, 
1545.00, 
1546.00, 
1547.00, 
1548.00, 
1549.00, 
1550.00, 
1551.00, 
1552.00, 
1553.00, 
1554.00, 
1555.00, 
1556.00, 
1557.00, 
1558.00, 
1559.00, 
1560.00, 
1561.00, 
1562.00, 
1563.00, 
1564.00, 
1565.00, 
1566.00, 
1567.00, 
1568.00, 
1569.00, 
1570.00, 
1571.00, 
1572.00, 
1573.00, 
1574.00, 
1575.00, 
1576.00, 
1577.00, 
1578.00, 
1579.00, 
1580.00, 
1581.00, 
1582.00, 
1583.00, 
1584.00, 
1585.00, 
1586.00, 
1587.00, 
1588.00, 
1589.00, 
1590.00, 
1591.00, 
1592.00, 
1593.00, 
1594.00, 
1595.00, 
1596.00, 
1597.00, 
1598.00, 
1599.00, 
1600.00, 
1601.00, 
1602.00, 
1603.00, 
1604.00, 
1605.00, 
1606.00, 
1607.00, 
1608.00, 
1609.00, 
1610.00, 
1611.00, 
1612.00, 
1613.00, 
1614.00, 
1615.00, 
1616.00, 
1617.00, 
1618.00, 
1619.00, 
1620.00, 
1621.00, 
1622.00, 
1623.00, 
1624.00, 
1625.00, 
1626.00, 
1627.00, 
1628.00, 
1629.00, 
1630.00, 
1631.00, 
1632.00, 
1633.00, 
1634.00, 
1635.00, 
1636.00, 
1637.00, 
1638.00, 
1639.00, 
1640.00, 
1641.00, 
1642.00, 
1643.00, 
1644.00, 
1645.00, 
1646.00, 
1647.00, 
1648.00, 
1649.00, 
1650.00, 
1651.00, 
1652.00, 
1653.00, 
1654.00, 
1655.00, 
1656.00, 
1657.00, 
1658.00, 
1659.00, 
1660.00, 
1661.00, 
1662.00, 
1663.00, 
1664.00, 
1665.00, 
1666.00, 
1667.00, 
1668.00, 
1669.00, 
1670.00, 
1671.00, 
1672.00, 
1673.00, 
1674.00, 
1675.00, 
1676.00, 
1677.00, 
1678.00, 
1679.00, 
1680.00, 
1681.00, 
1682.00, 
1683.00, 
1684.00, 
1685.00, 
1686.00, 
1687.00, 
1688.00, 
1689.00, 
1690.00, 
1691.00, 
1692.00, 
1693.00, 
1694.00, 
1695.00, 
1696.00, 
1697.00, 
1698.00, 
1699.00, 
1700.00, 
1701.00, 
1702.00, 
1703.00, 
1704.00, 
1705.00, 
1706.00, 
1707.00, 
1708.00, 
1709.00, 
1710.00, 
1711.00, 
1712.00, 
1713.00, 
1714.00, 
1715.00, 
1716.00, 
1717.00, 
1718.00, 
1719.00, 
1720.00, 
1721.00, 
1722.00, 
1723.00, 
1724.00, 
1725.00, 
1726.00, 
1727.00, 
1728.00, 
1729.00, 
1730.00, 
1731.00, 
1732.00, 
1733.00, 
1734.00, 
1735.00, 
1736.00, 
1737.00, 
1738.00, 
1739.00, 
1740.00, 
1741.00, 
1742.00, 
1743.00, 
1744.00, 
1745.00, 
1746.00, 
1747.00, 
1748.00, 
1749.00, 
1750.00, 
1751.00, 
1752.00, 
1753.00, 
1754.00, 
1755.00, 
1756.00, 
1757.00, 
1758.00, 
1759.00, 
1760.00, 
1761.00, 
1762.00, 
1763.00, 
1764.00, 
1765.00, 
1766.00, 
1767.00, 
1768.00, 
1769.00, 
1770.00, 
1771.00, 
1772.00, 
1773.00, 
1774.00, 
1775.00, 
1776.00, 
1777.00, 
1778.00, 
1779.00, 
1780.00, 
1781.00, 
1782.00, 
1783.00, 
1784.00, 
1785.00, 
1786.00, 
1787.00, 
1788.00, 
1789.00, 
1790.00, 
1791.00, 
1792.00, 
1793.00, 
1794.00, 
1795.00, 
1796.00, 
1797.00, 
1798.00, 
1799.00, 
1800.00, 
1801.00, 
1802.00, 
1803.00, 
1804.00, 
1805.00, 
1806.00, 
1807.00, 
1808.00, 
1809.00, 
1810.00, 
1811.00, 
1812.00, 
1813.00, 
1814.00, 
1815.00, 
1816.00, 
1817.00, 
1818.00, 
1819.00, 
1820.00, 
1821.00, 
1822.00, 
1823.00, 
1824.00, 
1825.00, 
1826.00, 
1827.00, 
1828.00, 
1829.00, 
1830.00, 
1831.00, 
1832.00, 
1833.00, 
1834.00, 
1835.00, 
1836.00, 
1837.00, 
1838.00, 
1839.00, 
1840.00, 
1841.00, 
1842.00, 
1843.00, 
1844.00, 
1845.00, 
1846.00, 
1847.00, 
1848.00, 
1849.00, 
1850.00, 
1851.00, 
1852.00, 
1853.00, 
1854.00, 
1855.00, 
1856.00, 
1857.00, 
1858.00, 
1859.00, 
1860.00, 
1861.00, 
1862.00, 
1863.00, 
1864.00, 
1865.00, 
1866.00, 
1867.00, 
1868.00, 
1869.00, 
1870.00, 
1871.00, 
1872.00, 
1873.00, 
1874.00, 
1875.00, 
1876.00, 
1877.00, 
1878.00, 
1879.00, 
1880.00, 
1881.00, 
1882.00, 
1883.00, 
1884.00, 
1885.00, 
1886.00, 
1887.00, 
1888.00, 
1889.00, 
1890.00, 
1891.00, 
1892.00, 
1893.00, 
1894.00, 
1895.00, 
1896.00, 
1897.00, 
1898.00, 
1899.00, 
1900.00, 
1901.00, 
1902.00, 
1903.00, 
1904.00, 
1905.00, 
1906.00, 
1907.00, 
1908.00, 
1909.00, 
1910.00, 
1911.00, 
1912.00, 
1913.00, 
1914.00, 
1915.00, 
1916.00, 
1917.00, 
1918.00, 
1919.00, 
1920.00, 
1921.00, 
1922.00, 
1923.00, 
1924.00, 
1925.00, 
1926.00, 
1927.00, 
1928.00, 
1929.00, 
1930.00, 
1931.00, 
1932.00, 
1933.00, 
1934.00, 
1935.00, 
1936.00, 
1937.00, 
1938.00, 
1939.00, 
1940.00, 
1941.00, 
1942.00, 
1943.00, 
1944.00, 
1945.00, 
1946.00, 
1947.00, 
1948.00, 
1949.00, 
1950.00, 
1951.00, 
1952.00, 
1953.00, 
1954.00, 
1955.00, 
1956.00, 
1957.00, 
1958.00, 
1959.00, 
1960.00, 
1961.00, 
1962.00, 
1963.00, 
1964.00, 
1965.00, 
1966.00, 
1967.00, 
1968.00, 
1969.00, 
1970.00, 
1971.00, 
1972.00, 
1973.00, 
1974.00, 
1975.00, 
1976.00, 
1977.00, 
1978.00, 
1979.00, 
1980.00, 
1981.00, 
1982.00, 
1983.00, 
1984.00, 
1985.00, 
1986.00, 
1987.00, 
1988.00, 
1989.00, 
1990.00, 
1991.00, 
1992.00, 
1993.00, 
1994.00, 
1995.00, 
1996.00, 
1997.00, 
1998.00, 
1999.00, 
2000.00, 
2001.00, 
2002.00, 
2003.00, 
2004.00, 
2005.00, 
2006.00, 
2007.00, 
2008.00, 
2009.00, 
2010.00, 
2011.00, 
2012.00, 
2013.00, 
2014.00, 
2015.00, 
2016.00, 
2017.00, 
2018.00, 
2019.00, 
2020.00, 
2021.00, 
2022.00, 
2023.00, 
2024.00, 
2025.00, 
2026.00, 
2027.00, 
2028.00, 
2029.00, 
2030.00, 
2031.00, 
2032.00, 
2033.00, 
2034.00, 
2035.00, 
2036.00, 
2037.00, 
2038.00, 
2039.00, 
2040.00, 
2041.00, 
2042.00, 
2043.00, 
2044.00, 
2045.00, 
2046.00, 
2047.00, 
2048.00, 
2049.00, 
2050.00, 
2051.00, 
2052.00, 
2053.00, 
2054.00, 
2055.00, 
2056.00, 
2057.00, 
2058.00, 
2059.00, 
2060.00, 
2061.00, 
2062.00, 
2063.00, 
2064.00, 
2065.00, 
2066.00, 
2067.00, 
2068.00, 
2069.00, 
2070.00, 
2071.00, 
2072.00, 
2073.00, 
2074.00, 
2075.00, 
2076.00, 
2077.00, 
2078.00, 
2079.00, 
2080.00, 
2081.00, 
2082.00, 
2083.00, 
2084.00, 
2085.00, 
2086.00, 
2087.00, 
2088.00, 
2089.00, 
2090.00, 
2091.00, 
2092.00, 
2093.00, 
2094.00, 
2095.00, 
2096.00, 
2097.00, 
2098.00, 
2099.00, 
2100.00, 
2101.00, 
2102.00, 
2103.00, 
2104.00, 
2105.00, 
2106.00, 
2107.00, 
2108.00, 
2109.00, 
2110.00, 
2111.00, 
2112.00, 
2113.00, 
2114.00, 
2115.00, 
2116.00, 
2117.00, 
2118.00, 
2119.00, 
2120.00, 
2121.00, 
2122.00, 
2123.00, 
2124.00, 
2125.00, 
2126.00, 
2127.00, 
2128.00, 
2129.00, 
2130.00, 
2131.00, 
2132.00, 
2133.00, 
2134.00, 
2135.00, 
2136.00, 
2137.00, 
2138.00, 
2139.00, 
2140.00, 
2141.00, 
2142.00, 
2143.00, 
2144.00, 
2145.00, 
2146.00, 
2147.00, 
2148.00, 
2149.00, 
2150.00, 
2151.00, 
2152.00, 
2153.00, 
2154.00, 
2155.00, 
2156.00, 
2157.00, 
2158.00, 
2159.00, 
2160.00, 
2161.00, 
2162.00, 
2163.00, 
2164.00, 
2165.00, 
2166.00, 
2167.00, 
2168.00, 
2169.00, 
2170.00, 
2171.00, 
2172.00, 
2173.00, 
2174.00, 
2175.00, 
2176.00, 
2177.00, 
2178.00, 
2179.00, 
2180.00, 
2181.00, 
2182.00, 
2183.00, 
2184.00, 
2185.00, 
2186.00, 
2187.00, 
2188.00, 
2189.00, 
2190.00, 
2191.00, 
2192.00, 
2193.00, 
2194.00, 
2195.00, 
2196.00, 
2197.00, 
2198.00, 
2199.00, 
2200.00, 
2201.00, 
2202.00, 
2203.00, 
2204.00, 
2205.00, 
2206.00, 
2207.00, 
2208.00, 
2209.00, 
2210.00, 
2211.00, 
2212.00, 
2213.00, 
2214.00, 
2215.00, 
2216.00, 
2217.00, 
2218.00, 
2219.00, 
2220.00, 
2221.00, 
2222.00, 
2223.00, 
2224.00, 
2225.00, 
2226.00, 
2227.00, 
2228.00, 
2229.00, 
2230.00, 
2231.00, 
2232.00, 
2233.00, 
2234.00, 
2235.00, 
2236.00, 
2237.00, 
2238.00, 
2239.00, 
2240.00, 
2241.00, 
2242.00, 
2243.00, 
2244.00, 
2245.00, 
2246.00, 
2247.00, 
2248.00, 
2249.00, 
2250.00, 
2251.00, 
2252.00, 
2253.00, 
2254.00, 
2255.00, 
2256.00, 
2257.00, 
2258.00, 
2259.00, 
2260.00, 
2261.00, 
2262.00, 
2263.00, 
2264.00, 
2265.00, 
2266.00, 
2267.00, 
2268.00, 
2269.00, 
2270.00, 
2271.00, 
2272.00, 
2273.00, 
2274.00, 
2275.00, 
2276.00, 
2277.00, 
2278.00, 
2279.00, 
2280.00, 
2281.00, 
2282.00, 
2283.00, 
2284.00, 
2285.00, 
2286.00, 
2287.00, 
2288.00, 
2289.00, 
2290.00, 
2291.00, 
2292.00, 
2293.00, 
2294.00, 
2295.00, 
2296.00, 
2297.00, 
2298.00, 
2299.00, 
2300.00, 
2301.00, 
2302.00, 
2303.00, 
2304.00, 
2305.00, 
2306.00, 
2307.00, 
2308.00, 
2309.00, 
2310.00, 
2311.00, 
2312.00, 
2313.00, 
2314.00, 
2315.00, 
2316.00, 
2317.00, 
2318.00, 
2319.00, 
2320.00, 
2321.00, 
2322.00, 
2323.00, 
2324.00, 
2325.00, 
2326.00, 
2327.00, 
2328.00, 
2329.00, 
2330.00, 
2331.00, 
2332.00, 
2333.00, 
2334.00, 
2335.00, 
2336.00, 
2337.00, 
2338.00, 
2339.00, 
2340.00, 
2341.00, 
2342.00, 
2343.00, 
2344.00, 
2345.00, 
2346.00, 
2347.00, 
2348.00, 
2349.00, 
2350.00, 
2351.00, 
2352.00, 
2353.00, 
2354.00, 
2355.00, 
2356.00, 
2357.00, 
2358.00, 
2359.00, 
2360.00, 
2361.00, 
2362.00, 
2363.00, 
2364.00, 
2365.00, 
2366.00, 
2367.00, 
2368.00, 
2369.00, 
2370.00, 
2371.00, 
2372.00, 
2373.00, 
2374.00, 
2375.00, 
2376.00, 
2377.00, 
2378.00, 
2379.00, 
2380.00, 
2381.00, 
2382.00, 
2383.00, 
2384.00, 
2385.00, 
2386.00, 
2387.00, 
2388.00, 
2389.00, 
2390.00, 
2391.00, 
2392.00, 
2393.00, 
2394.00, 
2395.00, 
2396.00, 
2397.00, 
2398.00, 
2399.00, 
2400.00, 
2401.00, 
2402.00, 
2403.00, 
2404.00, 
2405.00, 
2406.00, 
2407.00, 
2408.00, 
2409.00, 
2410.00, 
2411.00, 
2412.00, 
2413.00, 
2414.00, 
2415.00, 
2416.00, 
2417.00, 
2418.00, 
2419.00, 
2420.00, 
2421.00, 
2422.00, 
2423.00, 
2424.00, 
2425.00, 
2426.00, 
2427.00, 
2428.00, 
2429.00, 
2430.00, 
2431.00, 
2432.00, 
2433.00, 
2434.00, 
2435.00, 
2436.00, 
2437.00, 
2438.00, 
2439.00, 
2440.00, 
2441.00, 
2442.00, 
2443.00, 
2444.00, 
2445.00, 
2446.00, 
2447.00, 
2448.00, 
2449.00, 
2450.00, 
2451.00, 
2452.00, 
2453.00, 
2454.00, 
2455.00, 
2456.00, 
2457.00, 
2458.00, 
2459.00, 
2460.00, 
2461.00, 
2462.00, 
2463.00, 
2464.00, 
2465.00, 
2466.00, 
2467.00, 
2468.00, 
2469.00, 
2470.00, 
2471.00, 
2472.00, 
2473.00, 
2474.00, 
2475.00, 
2476.00, 
2477.00, 
2478.00, 
2479.00, 
2480.00, 
2481.00, 
2482.00, 
2483.00, 
2484.00, 
2485.00, 
2486.00, 
2487.00, 
2488.00, 
2489.00, 
2490.00, 
2491.00, 
2492.00, 
2493.00, 
2494.00, 
2495.00, 
2496.00, 
2497.00, 
2498.00, 
2499.00, 
2500.00, 
2501.00, 
2502.00, 
2503.00, 
2504.00, 
2505.00, 
2506.00, 
2507.00, 
2508.00, 
2509.00, 
2510.00, 
2511.00, 
2512.00, 
2513.00, 
2514.00, 
2515.00, 
2516.00, 
2517.00, 
2518.00, 
2519.00, 
2520.00, 
2521.00, 
2522.00, 
2523.00, 
2524.00, 
2525.00, 
2526.00, 
2527.00, 
2528.00, 
2529.00, 
2530.00, 
2531.00, 
2532.00, 
2533.00, 
2534.00, 
2535.00, 
2536.00, 
2537.00, 
2538.00, 
2539.00, 
2540.00, 
2541.00, 
2542.00, 
2543.00, 
2544.00, 
2545.00, 
2546.00, 
2547.00, 
2548.00, 
2549.00, 
2550.00, 
2551.00, 
2552.00, 
2553.00, 
2554.00, 
2555.00, 
2556.00, 
2557.00, 
2558.00, 
2559.00, 
2560.00, 
2561.00, 
2562.00, 
2563.00, 
2564.00, 
2565.00, 
2566.00, 
2567.00, 
2568.00, 
2569.00, 
2570.00, 
2571.00, 
2572.00, 
2573.00, 
2574.00, 
2575.00, 
2576.00, 
2577.00, 
2578.00, 
2579.00, 
2580.00, 
2581.00, 
2582.00, 
2583.00, 
2584.00, 
2585.00, 
2586.00, 
2587.00, 
2588.00, 
2589.00, 
2590.00, 
2591.00, 
2592.00, 
2593.00, 
2594.00, 
2595.00, 
2596.00, 
2597.00, 
2598.00, 
2599.00, 
2600.00, 
