"1bP2 - RawData"
"Wavelength nm.","T%"
200.00,0.003
201.00,-0.001
202.00,0.000
203.00,-0.000
204.00,-0.001
205.00,0.001
206.00,0.001
207.00,0.006
208.00,0.001
209.00,-0.000
210.00,0.000
211.00,-0.001
212.00,0.002
213.00,-0.000
214.00,0.002
215.00,0.002
216.00,0.003
217.00,0.001
218.00,0.002
219.00,0.002
220.00,0.002
221.00,0.002
222.00,0.001
223.00,-0.001
224.00,0.000
225.00,-0.000
226.00,0.000
227.00,0.002
228.00,-0.001
229.00,0.000
230.00,-0.000
231.00,0.002
232.00,-0.001
233.00,0.002
234.00,0.001
235.00,-0.000
236.00,-0.001
237.00,0.001
238.00,0.002
239.00,-0.000
240.00,0.003
241.00,0.001
242.00,0.001
243.00,-0.000
244.00,-0.001
245.00,-0.000
246.00,-0.001
247.00,0.001
248.00,0.000
249.00,0.001
250.00,-0.001
251.00,0.002
252.00,0.001
253.00,-0.001
254.00,-0.000
255.00,0.001
256.00,0.001
257.00,-0.002
258.00,0.000
259.00,0.001
260.00,0.002
261.00,0.002
262.00,0.001
263.00,-0.001
264.00,0.001
265.00,0.001
266.00,-0.000
267.00,0.000
268.00,0.001
269.00,0.001
270.00,0.001
271.00,-0.001
272.00,-0.001
273.00,0.001
274.00,0.000
275.00,0.001
276.00,0.001
277.00,-0.001
278.00,-0.000
279.00,0.001
280.00,0.001
281.00,0.003
282.00,-0.000
283.00,0.001
284.00,-0.001
285.00,-0.000
286.00,-0.000
287.00,0.002
288.00,-0.001
289.00,-0.001
290.00,0.001
291.00,-0.001
292.00,0.001
293.00,0.002
294.00,-0.000
295.00,0.000
296.00,0.001
297.00,0.002
298.00,0.003
299.00,0.002
300.00,0.004
301.00,0.005
302.00,0.007
303.00,0.012
304.00,0.019
305.00,0.030
306.00,0.045
307.00,0.071
308.00,0.107
309.00,0.166
310.00,0.225
311.00,0.311
312.00,0.411
313.00,0.550
314.00,0.713
315.00,0.922
316.00,1.167
317.00,1.478
318.00,1.799
319.00,2.194
320.00,2.626
321.00,3.126
322.00,3.671
323.00,4.273
324.00,4.917
325.00,5.557
326.00,6.213
327.00,6.836
328.00,7.707
329.00,8.448
330.00,9.253
331.00,10.000
332.00,10.783
333.00,11.622
334.00,12.395
335.00,13.166
336.00,13.968
337.00,14.779
338.00,15.509
339.00,16.161
340.00,16.902
341.00,17.569
342.00,18.172
343.00,18.762
344.00,19.365
345.00,19.964
346.00,20.483
347.00,20.948
348.00,21.330
349.00,21.786
350.00,22.214
351.00,22.567
352.00,22.879
353.00,23.179
354.00,23.522
355.00,23.778
356.00,24.054
357.00,24.298
358.00,24.512
359.00,24.771
360.00,24.973
361.00,25.046
362.00,25.261
363.00,25.399
364.00,25.423
365.00,25.553
366.00,25.608
367.00,25.707
368.00,25.748
369.00,25.788
370.00,25.856
371.00,25.885
372.00,25.803
373.00,25.793
374.00,25.839
375.00,25.808
376.00,25.701
377.00,25.576
378.00,25.556
379.00,25.420
380.00,25.459
381.00,25.419
382.00,25.426
383.00,25.422
384.00,25.434
385.00,25.450
386.00,25.421
387.00,25.576
388.00,25.649
389.00,25.538
390.00,25.620
391.00,25.505
392.00,25.612
393.00,25.535
394.00,25.637
395.00,25.664
396.00,25.619
397.00,25.612
398.00,25.613
399.00,25.640
400.00,25.576
401.00,25.576
402.00,25.615
403.00,25.504
404.00,25.564
405.00,25.474
406.00,25.494
407.00,25.453
408.00,25.453
409.00,25.405
410.00,25.324
411.00,25.366
412.00,25.327
413.00,25.318
414.00,25.234
415.00,25.295
416.00,25.355
417.00,25.284
418.00,25.388
419.00,25.460
420.00,25.524
421.00,25.463
422.00,25.456
423.00,25.543
424.00,25.553
425.00,25.571
426.00,25.579
427.00,25.688
428.00,25.673
429.00,25.704
430.00,25.773
431.00,25.799
432.00,25.824
433.00,25.936
434.00,25.930
435.00,25.989
436.00,26.117
437.00,26.098
438.00,26.240
439.00,26.290
440.00,26.356
441.00,26.464
442.00,26.499
443.00,26.556
444.00,26.651
445.00,26.706
446.00,26.817
447.00,26.936
448.00,27.050
449.00,27.120
450.00,27.249
451.00,27.291
452.00,27.304
453.00,27.529
454.00,27.587
455.00,27.729
456.00,27.838
457.00,27.927
458.00,28.003
459.00,28.188
460.00,28.319
461.00,28.427
462.00,28.505
463.00,28.666
464.00,28.772
465.00,28.886
466.00,29.020
467.00,29.183
468.00,29.215
469.00,29.351
470.00,29.411
471.00,29.504
472.00,29.651
473.00,29.704
474.00,29.788
475.00,29.926
476.00,29.992
477.00,30.149
478.00,30.230
479.00,30.424
480.00,30.533
481.00,30.568
482.00,30.721
483.00,30.880
484.00,31.120
485.00,31.244
486.00,31.386
487.00,31.541
488.00,31.694
489.00,31.872
490.00,32.013
491.00,32.089
492.00,32.409
493.00,32.529
494.00,32.435
495.00,32.556
496.00,32.691
497.00,32.788
498.00,32.976
499.00,33.083
500.00,33.210
501.00,33.323
502.00,33.407
503.00,33.560
504.00,33.550
505.00,33.741
506.00,33.863
507.00,33.840
508.00,34.022
509.00,34.181
510.00,34.312
511.00,34.352
512.00,34.548
513.00,34.686
514.00,34.741
515.00,34.948
516.00,35.008
517.00,35.056
518.00,35.224
519.00,35.299
520.00,35.337
521.00,35.411
522.00,35.530
523.00,35.534
524.00,35.652
525.00,35.769
526.00,35.856
527.00,35.924
528.00,35.999
529.00,36.234
530.00,36.331
531.00,36.386
532.00,36.442
533.00,36.583
534.00,36.654
535.00,36.699
536.00,36.809
537.00,36.877
538.00,36.942
539.00,36.950
540.00,37.049
541.00,37.055
542.00,37.124
543.00,37.129
544.00,37.280
545.00,37.344
546.00,37.247
547.00,37.446
548.00,37.546
549.00,37.539
550.00,37.611
551.00,37.751
552.00,37.809
553.00,37.819
554.00,37.905
555.00,37.937
556.00,37.937
557.00,37.997
558.00,38.095
559.00,38.127
560.00,38.175
561.00,38.340
562.00,38.313
563.00,38.399
564.00,38.442
565.00,38.436
566.00,38.441
567.00,38.481
568.00,38.545
569.00,38.562
570.00,38.596
571.00,38.637
572.00,38.658
573.00,38.648
574.00,38.688
575.00,38.683
576.00,38.648
577.00,38.716
578.00,38.842
579.00,38.887
580.00,38.932
581.00,39.110
582.00,39.199
583.00,39.184
584.00,39.250
585.00,39.305
586.00,39.335
587.00,39.413
588.00,39.431
589.00,39.375
590.00,39.460
591.00,39.489
592.00,39.448
593.00,39.471
594.00,39.616
595.00,39.700
596.00,39.721
597.00,39.768
598.00,39.816
599.00,39.810
600.00,39.911
601.00,39.901
602.00,39.851
603.00,40.005
604.00,40.062
605.00,40.037
606.00,40.047
607.00,40.096
608.00,40.192
609.00,40.354
610.00,40.200
611.00,40.225
612.00,40.291
613.00,40.323
614.00,40.320
615.00,40.482
616.00,40.549
617.00,40.539
618.00,40.538
619.00,40.671
620.00,40.695
621.00,40.692
622.00,40.781
623.00,40.761
624.00,40.891
625.00,40.901
626.00,40.977
627.00,40.987
628.00,41.004
629.00,41.087
630.00,41.075
631.00,41.165
632.00,41.200
633.00,41.335
634.00,41.405
635.00,41.482
636.00,41.533
637.00,41.544
638.00,41.675
639.00,41.729
640.00,41.774
641.00,41.752
642.00,41.823
643.00,41.869
644.00,41.952
645.00,42.065
646.00,42.130
647.00,42.211
648.00,42.259
649.00,42.239
650.00,42.387
651.00,42.534
652.00,42.482
653.00,42.452
654.00,42.628
655.00,42.740
656.00,43.051
657.00,42.830
658.00,42.963
659.00,43.174
660.00,43.114
661.00,43.173
662.00,43.197
663.00,43.274
664.00,43.618
665.00,43.751
666.00,43.528
667.00,43.611
668.00,43.612
669.00,43.969
670.00,44.212
671.00,44.047
672.00,44.072
673.00,44.186
674.00,44.302
675.00,44.338
676.00,44.530
677.00,44.657
678.00,44.399
679.00,44.627
680.00,44.747
681.00,44.816
682.00,44.855
683.00,44.871
684.00,45.053
685.00,45.157
686.00,45.043
687.00,45.154
688.00,45.207
689.00,45.176
690.00,45.538
691.00,45.762
692.00,45.409
693.00,45.502
694.00,45.656
695.00,45.731
696.00,45.791
697.00,45.843
698.00,45.857
699.00,46.229
700.00,46.222
701.00,46.172
702.00,46.248
703.00,46.456
704.00,46.461
705.00,46.367
706.00,46.426
707.00,46.435
708.00,46.639
709.00,47.203
710.00,46.662
711.00,46.632
712.00,46.742
713.00,46.913
714.00,47.116
715.00,47.075
716.00,47.025
717.00,47.111
718.00,47.339
719.00,47.167
720.00,47.195
721.00,52.043
722.00,51.964
723.00,51.942
724.00,51.942
725.00,51.951
726.00,52.028
727.00,51.984
728.00,52.031
729.00,51.984
730.00,52.037
731.00,52.183
732.00,51.959
733.00,52.141
734.00,52.129
735.00,52.177
736.00,52.234
737.00,52.178
738.00,52.250
739.00,52.279
740.00,52.288
741.00,52.365
742.00,52.321
743.00,52.389
744.00,52.307
745.00,52.295
746.00,52.391
747.00,52.346
748.00,52.317
749.00,52.317
750.00,52.317
751.00,52.315
752.00,52.326
753.00,52.277
754.00,52.316
755.00,52.332
756.00,52.366
757.00,52.426
758.00,52.344
759.00,52.345
760.00,52.331
761.00,52.277
762.00,52.385
763.00,52.401
764.00,52.374
765.00,52.337
766.00,52.467
767.00,52.428
768.00,52.440
769.00,52.376
770.00,52.487
771.00,52.509
772.00,52.424
773.00,52.429
774.00,52.488
775.00,52.548
776.00,52.449
777.00,52.550
778.00,52.468
779.00,52.545
780.00,52.545
781.00,52.525
782.00,52.445
783.00,52.387
784.00,52.518
785.00,52.381
786.00,52.515
787.00,52.453
788.00,52.401
789.00,52.468
790.00,52.351
791.00,52.472
792.00,52.469
793.00,52.344
794.00,52.395
795.00,52.388
796.00,52.386
797.00,52.287
798.00,52.313
799.00,52.365
800.00,52.268
801.00,52.301
802.00,52.293
803.00,52.263
804.00,52.243
805.00,52.278
806.00,52.155
807.00,52.151
808.00,52.277
809.00,52.193
810.00,52.085
811.00,52.192
812.00,52.126
813.00,52.107
814.00,52.111
815.00,52.057
816.00,52.086
817.00,52.108
818.00,51.904
819.00,52.002
820.00,52.000
821.00,52.024
822.00,51.932
823.00,51.911
824.00,51.957
825.00,51.843
826.00,51.815
827.00,51.932
828.00,51.990
829.00,51.859
830.00,51.920
831.00,54.599
832.00,54.560
833.00,54.523
834.00,54.568
835.00,54.532
836.00,54.525
837.00,54.468
838.00,54.454
839.00,54.479
840.00,54.397
841.00,54.441
842.00,54.405
843.00,54.366
844.00,54.393
845.00,54.323
846.00,54.333
847.00,54.307
848.00,54.376
849.00,54.245
850.00,54.303
851.00,54.177
852.00,54.244
853.00,54.079
854.00,54.146
855.00,54.048
856.00,54.127
857.00,53.934
858.00,54.005
859.00,54.028
860.00,53.985
861.00,54.083
862.00,53.950
863.00,53.993
864.00,53.938
865.00,53.988
866.00,53.976
867.00,53.939
868.00,54.001
869.00,53.874
870.00,53.955
871.00,53.871
872.00,53.898
873.00,53.840
874.00,53.882
875.00,53.827
876.00,53.860
877.00,53.833
878.00,53.848
879.00,53.821
880.00,53.837
881.00,53.806
882.00,53.827
883.00,53.763
884.00,53.746
885.00,53.702
886.00,53.737
887.00,53.696
888.00,53.679
889.00,53.682
890.00,53.703
891.00,53.637
892.00,53.632
893.00,53.601
894.00,53.604
895.00,53.567
896.00,53.549
897.00,53.531
898.00,53.503
899.00,53.515
900.00,53.499
901.00,53.463
902.00,53.528
903.00,53.450
904.00,53.410
905.00,53.404
906.00,53.454
907.00,53.404
908.00,53.292
909.00,53.414
910.00,53.316
911.00,53.305
912.00,53.298
913.00,53.272
914.00,53.204
915.00,53.332
916.00,53.222
917.00,53.199
918.00,53.184
919.00,53.135
920.00,53.133
921.00,53.158
922.00,53.126
923.00,53.098
924.00,53.041
925.00,53.061
926.00,53.055
927.00,53.058
928.00,52.959
929.00,53.035
930.00,52.955
931.00,52.994
932.00,52.930
933.00,52.958
934.00,52.926
935.00,52.868
936.00,52.835
937.00,52.859
938.00,52.830
939.00,52.835
940.00,52.775
941.00,52.822
942.00,52.770
943.00,52.780
944.00,52.695
945.00,52.731
946.00,52.743
947.00,52.663
948.00,52.683
949.00,52.622
950.00,52.585
951.00,52.659
952.00,52.615
953.00,52.523
954.00,52.541
955.00,52.485
956.00,52.489
957.00,52.458
958.00,52.489
959.00,52.409
960.00,52.430
961.00,52.411
962.00,52.428
963.00,52.376
964.00,52.366
965.00,52.395
966.00,52.345
967.00,52.341
968.00,52.318
969.00,52.357
970.00,52.311
971.00,52.331
972.00,52.293
973.00,52.334
974.00,52.380
975.00,52.311
976.00,52.358
977.00,52.339
978.00,52.389
979.00,52.349
980.00,52.333
981.00,52.421
982.00,52.304
983.00,52.356
984.00,52.314
985.00,52.374
986.00,52.306
987.00,52.347
988.00,52.274
989.00,52.263
990.00,52.292
991.00,52.265
992.00,52.292
993.00,52.251
994.00,52.228
995.00,52.219
996.00,52.209
997.00,52.202
998.00,52.172
999.00,52.213
1000.00,52.152
1001.00,52.150
1002.00,52.138
1003.00,52.136
1004.00,52.133
1005.00,52.068
1006.00,52.131
1007.00,52.104
1008.00,52.105
1009.00,52.088
1010.00,52.077
1011.00,52.072
1012.00,52.033
1013.00,52.034
1014.00,52.012
1015.00,52.033
1016.00,51.982
1017.00,51.987
1018.00,51.983
1019.00,51.941
1020.00,51.995
1021.00,51.909
1022.00,51.930
1023.00,51.887
1024.00,51.875
1025.00,51.860
1026.00,51.850
1027.00,51.820
1028.00,51.811
1029.00,51.814
1030.00,51.762
1031.00,51.793
1032.00,51.750
1033.00,51.743
1034.00,51.713
1035.00,51.686
1036.00,51.660
1037.00,51.644
1038.00,51.627
1039.00,51.603
1040.00,51.598
1041.00,51.554
1042.00,51.567
1043.00,51.531
1044.00,51.559
1045.00,51.539
1046.00,51.523
1047.00,51.563
1048.00,51.574
1049.00,51.588
1050.00,51.568
1051.00,51.629
1052.00,51.607
1053.00,51.667
1054.00,51.635
1055.00,51.670
1056.00,51.685
1057.00,51.666
1058.00,51.656
1059.00,51.643
1060.00,51.660
1061.00,51.634
1062.00,51.628
1063.00,51.623
1064.00,51.650
1065.00,51.619
1066.00,51.616
1067.00,51.618
1068.00,51.640
1069.00,51.589
1070.00,51.594
1071.00,51.561
1072.00,51.590
1073.00,51.561
1074.00,51.561
1075.00,51.554
1076.00,51.560
1077.00,51.527
1078.00,51.522
1079.00,51.523
1080.00,51.553
1081.00,51.554
1082.00,51.511
1083.00,51.513
1084.00,51.510
1085.00,51.508
1086.00,51.480
1087.00,51.481
1088.00,51.466
1089.00,51.456
1090.00,51.415
1091.00,51.455
1092.00,51.439
1093.00,51.427
1094.00,51.404
1095.00,51.428
1096.00,51.411
1097.00,51.411
1098.00,51.394
1099.00,51.394
1100.00,51.386
1101.00,51.374
1102.00,51.352
1103.00,51.376
1104.00,51.342
1105.00,51.353
1106.00,51.337
1107.00,51.336
1108.00,51.319
1109.00,51.310
1110.00,51.290
1111.00,51.284
1112.00,51.271
1113.00,51.283
1114.00,51.281
1115.00,51.279
1116.00,51.265
1117.00,51.263
1118.00,51.248
1119.00,51.265
1120.00,51.236
1121.00,51.244
1122.00,51.214
1123.00,51.192
1124.00,51.197
1125.00,51.202
1126.00,51.193
1127.00,51.231
1128.00,51.173
1129.00,51.167
1130.00,51.146
1131.00,51.152
1132.00,51.129
1133.00,51.159
1134.00,51.124
1135.00,51.123
1136.00,51.119
1137.00,51.125
1138.00,51.121
1139.00,51.143
1140.00,51.132
1141.00,51.154
1142.00,51.133
1143.00,51.159
1144.00,51.122
1145.00,51.110
1146.00,51.101
1147.00,51.121
1148.00,51.086
1149.00,51.116
1150.00,51.114
1151.00,51.105
1152.00,51.096
1153.00,51.103
1154.00,51.081
1155.00,51.093
1156.00,51.070
1157.00,51.111
1158.00,51.082
1159.00,51.082
1160.00,51.089
1161.00,51.113
1162.00,51.087
1163.00,51.087
1164.00,51.093
1165.00,51.073
1166.00,51.090
1167.00,51.047
1168.00,51.095
1169.00,51.068
1170.00,51.067
1171.00,51.065
1172.00,51.071
1173.00,51.058
1174.00,51.081
1175.00,51.078
1176.00,51.072
1177.00,51.063
1178.00,51.045
1179.00,51.076
1180.00,51.067
1181.00,51.078
1182.00,51.060
1183.00,51.080
1184.00,51.057
1185.00,51.091
1186.00,51.059
1187.00,51.058
1188.00,51.067
1189.00,51.046
1190.00,51.058
1191.00,51.048
1192.00,51.078
1193.00,51.061
1194.00,51.067
1195.00,51.044
1196.00,51.086
1197.00,51.071
1198.00,51.060
1199.00,51.068
1200.00,51.071
1201.00,51.100
1202.00,51.057
1203.00,51.080
1204.00,51.055
1205.00,51.093
1206.00,51.061
1207.00,51.063
1208.00,51.055
1209.00,51.065
1210.00,51.074
1211.00,51.042
1212.00,51.081
1213.00,51.039
1214.00,51.050
1215.00,51.041
1216.00,51.044
1217.00,51.050
1218.00,51.048
1219.00,51.061
1220.00,51.031
1221.00,51.059
1222.00,51.020
1223.00,51.055
1224.00,51.051
1225.00,51.023
1226.00,51.032
1227.00,51.033
1228.00,51.048
1229.00,51.047
1230.00,51.080
1231.00,51.054
1232.00,51.109
1233.00,51.096
1234.00,51.101
1235.00,51.110
1236.00,51.087
1237.00,51.112
1238.00,51.094
1239.00,51.103
1240.00,51.081
1241.00,51.096
1242.00,51.080
1243.00,51.094
1244.00,51.066
1245.00,51.109
1246.00,51.125
1247.00,51.098
1248.00,51.097
1249.00,51.128
1250.00,51.142
1251.00,51.122
1252.00,51.142
1253.00,51.111
1254.00,51.144
1255.00,51.147
1256.00,51.123
1257.00,51.126
1258.00,51.155
1259.00,51.144
1260.00,51.169
1261.00,51.161
1262.00,51.168
1263.00,51.165
1264.00,51.191
1265.00,51.197
1266.00,51.170
1267.00,51.207
1268.00,51.210
1269.00,51.222
1270.00,51.230
1271.00,51.234
1272.00,51.223
1273.00,51.245
1274.00,51.217
1275.00,51.222
1276.00,51.225
1277.00,51.244
1278.00,51.256
1279.00,51.293
1280.00,51.243
1281.00,51.263
1282.00,51.270
1283.00,51.260
1284.00,51.293
1285.00,51.271
1286.00,51.294
1287.00,51.287
1288.00,51.275
1289.00,51.274
1290.00,51.335
1291.00,51.295
1292.00,51.297
1293.00,51.300
1294.00,51.307
1295.00,51.322
1296.00,51.320
1297.00,51.328
1298.00,51.391
1299.00,51.329
1300.00,51.370
1301.00,51.340
1302.00,51.383
1303.00,51.368
1304.00,51.366
1305.00,51.385
1306.00,51.374
1307.00,51.385
1308.00,51.390
1309.00,51.408
1310.00,51.387
1311.00,51.382
1312.00,51.406
1313.00,51.429
1314.00,51.432
1315.00,51.453
1316.00,51.444
1317.00,51.502
1318.00,51.472
1319.00,51.470
1320.00,51.460
1321.00,51.614
1322.00,51.610
1323.00,51.628
1324.00,51.594
1325.00,51.599
1326.00,51.638
1327.00,51.608
1328.00,51.606
1329.00,51.596
1330.00,51.602
1331.00,51.619
1332.00,51.597
1333.00,51.601
1334.00,51.632
1335.00,51.640
1336.00,51.678
1337.00,51.716
1338.00,51.761
1339.00,51.809
1340.00,51.865
1341.00,51.935
1342.00,52.010
1343.00,52.029
1344.00,52.104
1345.00,52.174
1346.00,52.195
1347.00,52.206
1348.00,52.248
1349.00,52.240
1350.00,52.276
1351.00,52.279
1352.00,52.295
1353.00,52.319
1354.00,52.296
1355.00,52.241
1356.00,52.354
1357.00,52.300
1358.00,52.367
1359.00,52.352
1360.00,52.375
1361.00,52.274
1362.00,52.334
1363.00,52.401
1364.00,52.338
1365.00,52.298
1366.00,52.308
1367.00,52.297
1368.00,52.351
1369.00,52.143
1370.00,52.325
1371.00,52.248
1372.00,52.307
1373.00,52.298
1374.00,52.333
1375.00,52.308
1376.00,52.308
1377.00,52.300
1378.00,52.389
1379.00,52.312
1380.00,52.330
1381.00,52.336
1382.00,52.209
1383.00,52.323
1384.00,52.197
1385.00,52.265
1386.00,52.324
1387.00,52.247
1388.00,52.200
1389.00,52.285
1390.00,52.268
1391.00,52.266
1392.00,52.239
1393.00,52.302
1394.00,52.286
1395.00,52.209
1396.00,52.182
1397.00,52.283
1398.00,52.272
1399.00,52.221
1400.00,52.230
1401.00,52.237
1402.00,52.311
1403.00,52.230
1404.00,52.301
1405.00,52.290
1406.00,52.352
1407.00,52.321
1408.00,52.345
1409.00,52.307
1410.00,52.360
1411.00,52.332
1412.00,52.416
1413.00,52.344
1414.00,52.343
1415.00,52.340
1416.00,52.374
1417.00,52.414
1418.00,52.357
1419.00,52.389
1420.00,52.383
1421.00,52.463
1422.00,52.451
1423.00,52.468
1424.00,52.467
1425.00,52.520
1426.00,52.465
1427.00,52.517
1428.00,52.508
1429.00,52.572
1430.00,52.538
1431.00,52.545
1432.00,52.556
1433.00,52.584
1434.00,52.551
1435.00,52.640
1436.00,52.623
1437.00,52.614
1438.00,52.630
1439.00,52.659
1440.00,52.657
1441.00,52.670
1442.00,52.682
1443.00,52.708
1444.00,52.860
1445.00,52.740
1446.00,52.749
1447.00,52.770
1448.00,52.806
1449.00,52.795
1450.00,52.804
1451.00,52.806
1452.00,52.846
1453.00,52.813
1454.00,52.860
1455.00,52.877
1456.00,52.875
1457.00,52.869
1458.00,52.912
1459.00,52.915
1460.00,52.952
1461.00,52.912
1462.00,52.969
1463.00,52.950
1464.00,52.966
1465.00,52.983
1466.00,52.990
1467.00,52.998
1468.00,53.083
1469.00,53.040
1470.00,53.063
1471.00,53.083
1472.00,53.080
1473.00,53.082
1474.00,53.134
1475.00,53.113
1476.00,53.140
1477.00,53.121
1478.00,53.147
1479.00,53.163
1480.00,53.162
1481.00,53.152
1482.00,53.194
1483.00,53.202
1484.00,53.243
1485.00,53.233
1486.00,53.234
1487.00,53.255
1488.00,53.310
1489.00,53.255
1490.00,53.285
1491.00,53.284
1492.00,53.294
1493.00,53.275
1494.00,53.320
1495.00,53.288
1496.00,53.336
1497.00,53.306
1498.00,53.365
1499.00,53.373
1500.00,53.364
1501.00, 
1502.00, 
1503.00, 
1504.00, 
1505.00, 
1506.00, 
1507.00, 
1508.00, 
1509.00, 
1510.00, 
1511.00, 
1512.00, 
1513.00, 
1514.00, 
1515.00, 
1516.00, 
1517.00, 
1518.00, 
1519.00, 
1520.00, 
1521.00, 
1522.00, 
1523.00, 
1524.00, 
1525.00, 
1526.00, 
1527.00, 
1528.00, 
1529.00, 
1530.00, 
1531.00, 
1532.00, 
1533.00, 
1534.00, 
1535.00, 
1536.00, 
1537.00, 
1538.00, 
1539.00, 
1540.00, 
1541.00, 
1542.00, 
1543.00, 
1544.00, 
1545.00, 
1546.00, 
1547.00, 
1548.00, 
1549.00, 
1550.00, 
1551.00, 
1552.00, 
1553.00, 
1554.00, 
1555.00, 
1556.00, 
1557.00, 
1558.00, 
1559.00, 
1560.00, 
1561.00, 
1562.00, 
1563.00, 
1564.00, 
1565.00, 
1566.00, 
1567.00, 
1568.00, 
1569.00, 
1570.00, 
1571.00, 
1572.00, 
1573.00, 
1574.00, 
1575.00, 
1576.00, 
1577.00, 
1578.00, 
1579.00, 
1580.00, 
1581.00, 
1582.00, 
1583.00, 
1584.00, 
1585.00, 
1586.00, 
1587.00, 
1588.00, 
1589.00, 
1590.00, 
1591.00, 
1592.00, 
1593.00, 
1594.00, 
1595.00, 
1596.00, 
1597.00, 
1598.00, 
1599.00, 
1600.00, 
1601.00, 
1602.00, 
1603.00, 
1604.00, 
1605.00, 
1606.00, 
1607.00, 
1608.00, 
1609.00, 
1610.00, 
1611.00, 
1612.00, 
1613.00, 
1614.00, 
1615.00, 
1616.00, 
1617.00, 
1618.00, 
1619.00, 
1620.00, 
1621.00, 
1622.00, 
1623.00, 
1624.00, 
1625.00, 
1626.00, 
1627.00, 
1628.00, 
1629.00, 
1630.00, 
1631.00, 
1632.00, 
1633.00, 
1634.00, 
1635.00, 
1636.00, 
1637.00, 
1638.00, 
1639.00, 
1640.00, 
1641.00, 
1642.00, 
1643.00, 
1644.00, 
1645.00, 
1646.00, 
1647.00, 
1648.00, 
1649.00, 
1650.00, 
1651.00, 
1652.00, 
1653.00, 
1654.00, 
1655.00, 
1656.00, 
1657.00, 
1658.00, 
1659.00, 
1660.00, 
1661.00, 
1662.00, 
1663.00, 
1664.00, 
1665.00, 
1666.00, 
1667.00, 
1668.00, 
1669.00, 
1670.00, 
1671.00, 
1672.00, 
1673.00, 
1674.00, 
1675.00, 
1676.00, 
1677.00, 
1678.00, 
1679.00, 
1680.00, 
1681.00, 
1682.00, 
1683.00, 
1684.00, 
1685.00, 
1686.00, 
1687.00, 
1688.00, 
1689.00, 
1690.00, 
1691.00, 
1692.00, 
1693.00, 
1694.00, 
1695.00, 
1696.00, 
1697.00, 
1698.00, 
1699.00, 
1700.00, 
1701.00, 
1702.00, 
1703.00, 
1704.00, 
1705.00, 
1706.00, 
1707.00, 
1708.00, 
1709.00, 
1710.00, 
1711.00, 
1712.00, 
1713.00, 
1714.00, 
1715.00, 
1716.00, 
1717.00, 
1718.00, 
1719.00, 
1720.00, 
1721.00, 
1722.00, 
1723.00, 
1724.00, 
1725.00, 
1726.00, 
1727.00, 
1728.00, 
1729.00, 
1730.00, 
1731.00, 
1732.00, 
1733.00, 
1734.00, 
1735.00, 
1736.00, 
1737.00, 
1738.00, 
1739.00, 
1740.00, 
1741.00, 
1742.00, 
1743.00, 
1744.00, 
1745.00, 
1746.00, 
1747.00, 
1748.00, 
1749.00, 
1750.00, 
1751.00, 
1752.00, 
1753.00, 
1754.00, 
1755.00, 
1756.00, 
1757.00, 
1758.00, 
1759.00, 
1760.00, 
1761.00, 
1762.00, 
1763.00, 
1764.00, 
1765.00, 
1766.00, 
1767.00, 
1768.00, 
1769.00, 
1770.00, 
1771.00, 
1772.00, 
1773.00, 
1774.00, 
1775.00, 
1776.00, 
1777.00, 
1778.00, 
1779.00, 
1780.00, 
1781.00, 
1782.00, 
1783.00, 
1784.00, 
1785.00, 
1786.00, 
1787.00, 
1788.00, 
1789.00, 
1790.00, 
1791.00, 
1792.00, 
1793.00, 
1794.00, 
1795.00, 
1796.00, 
1797.00, 
1798.00, 
1799.00, 
1800.00, 
1801.00, 
1802.00, 
1803.00, 
1804.00, 
1805.00, 
1806.00, 
1807.00, 
1808.00, 
1809.00, 
1810.00, 
1811.00, 
1812.00, 
1813.00, 
1814.00, 
1815.00, 
1816.00, 
1817.00, 
1818.00, 
1819.00, 
1820.00, 
1821.00, 
1822.00, 
1823.00, 
1824.00, 
1825.00, 
1826.00, 
1827.00, 
1828.00, 
1829.00, 
1830.00, 
1831.00, 
1832.00, 
1833.00, 
1834.00, 
1835.00, 
1836.00, 
1837.00, 
1838.00, 
1839.00, 
1840.00, 
1841.00, 
1842.00, 
1843.00, 
1844.00, 
1845.00, 
1846.00, 
1847.00, 
1848.00, 
1849.00, 
1850.00, 
1851.00, 
1852.00, 
1853.00, 
1854.00, 
1855.00, 
1856.00, 
1857.00, 
1858.00, 
1859.00, 
1860.00, 
1861.00, 
1862.00, 
1863.00, 
1864.00, 
1865.00, 
1866.00, 
1867.00, 
1868.00, 
1869.00, 
1870.00, 
1871.00, 
1872.00, 
1873.00, 
1874.00, 
1875.00, 
1876.00, 
1877.00, 
1878.00, 
1879.00, 
1880.00, 
1881.00, 
1882.00, 
1883.00, 
1884.00, 
1885.00, 
1886.00, 
1887.00, 
1888.00, 
1889.00, 
1890.00, 
1891.00, 
1892.00, 
1893.00, 
1894.00, 
1895.00, 
1896.00, 
1897.00, 
1898.00, 
1899.00, 
1900.00, 
1901.00, 
1902.00, 
1903.00, 
1904.00, 
1905.00, 
1906.00, 
1907.00, 
1908.00, 
1909.00, 
1910.00, 
1911.00, 
1912.00, 
1913.00, 
1914.00, 
1915.00, 
1916.00, 
1917.00, 
1918.00, 
1919.00, 
1920.00, 
1921.00, 
1922.00, 
1923.00, 
1924.00, 
1925.00, 
1926.00, 
1927.00, 
1928.00, 
1929.00, 
1930.00, 
1931.00, 
1932.00, 
1933.00, 
1934.00, 
1935.00, 
1936.00, 
1937.00, 
1938.00, 
1939.00, 
1940.00, 
1941.00, 
1942.00, 
1943.00, 
1944.00, 
1945.00, 
1946.00, 
1947.00, 
1948.00, 
1949.00, 
1950.00, 
1951.00, 
1952.00, 
1953.00, 
1954.00, 
1955.00, 
1956.00, 
1957.00, 
1958.00, 
1959.00, 
1960.00, 
1961.00, 
1962.00, 
1963.00, 
1964.00, 
1965.00, 
1966.00, 
1967.00, 
1968.00, 
1969.00, 
1970.00, 
1971.00, 
1972.00, 
1973.00, 
1974.00, 
1975.00, 
1976.00, 
1977.00, 
1978.00, 
1979.00, 
1980.00, 
1981.00, 
1982.00, 
1983.00, 
1984.00, 
1985.00, 
1986.00, 
1987.00, 
1988.00, 
1989.00, 
1990.00, 
1991.00, 
1992.00, 
1993.00, 
1994.00, 
1995.00, 
1996.00, 
1997.00, 
1998.00, 
1999.00, 
2000.00, 
2001.00, 
2002.00, 
2003.00, 
2004.00, 
2005.00, 
2006.00, 
2007.00, 
2008.00, 
2009.00, 
2010.00, 
2011.00, 
2012.00, 
2013.00, 
2014.00, 
2015.00, 
2016.00, 
2017.00, 
2018.00, 
2019.00, 
2020.00, 
2021.00, 
2022.00, 
2023.00, 
2024.00, 
2025.00, 
2026.00, 
2027.00, 
2028.00, 
2029.00, 
2030.00, 
2031.00, 
2032.00, 
2033.00, 
2034.00, 
2035.00, 
2036.00, 
2037.00, 
2038.00, 
2039.00, 
2040.00, 
2041.00, 
2042.00, 
2043.00, 
2044.00, 
2045.00, 
2046.00, 
2047.00, 
2048.00, 
2049.00, 
2050.00, 
2051.00, 
2052.00, 
2053.00, 
2054.00, 
2055.00, 
2056.00, 
2057.00, 
2058.00, 
2059.00, 
2060.00, 
2061.00, 
2062.00, 
2063.00, 
2064.00, 
2065.00, 
2066.00, 
2067.00, 
2068.00, 
2069.00, 
2070.00, 
2071.00, 
2072.00, 
2073.00, 
2074.00, 
2075.00, 
2076.00, 
2077.00, 
2078.00, 
2079.00, 
2080.00, 
2081.00, 
2082.00, 
2083.00, 
2084.00, 
2085.00, 
2086.00, 
2087.00, 
2088.00, 
2089.00, 
2090.00, 
2091.00, 
2092.00, 
2093.00, 
2094.00, 
2095.00, 
2096.00, 
2097.00, 
2098.00, 
2099.00, 
2100.00, 
2101.00, 
2102.00, 
2103.00, 
2104.00, 
2105.00, 
2106.00, 
2107.00, 
2108.00, 
2109.00, 
2110.00, 
2111.00, 
2112.00, 
2113.00, 
2114.00, 
2115.00, 
2116.00, 
2117.00, 
2118.00, 
2119.00, 
2120.00, 
2121.00, 
2122.00, 
2123.00, 
2124.00, 
2125.00, 
2126.00, 
2127.00, 
2128.00, 
2129.00, 
2130.00, 
2131.00, 
2132.00, 
2133.00, 
2134.00, 
2135.00, 
2136.00, 
2137.00, 
2138.00, 
2139.00, 
2140.00, 
2141.00, 
2142.00, 
2143.00, 
2144.00, 
2145.00, 
2146.00, 
2147.00, 
2148.00, 
2149.00, 
2150.00, 
2151.00, 
2152.00, 
2153.00, 
2154.00, 
2155.00, 
2156.00, 
2157.00, 
2158.00, 
2159.00, 
2160.00, 
2161.00, 
2162.00, 
2163.00, 
2164.00, 
2165.00, 
2166.00, 
2167.00, 
2168.00, 
2169.00, 
2170.00, 
2171.00, 
2172.00, 
2173.00, 
2174.00, 
2175.00, 
2176.00, 
2177.00, 
2178.00, 
2179.00, 
2180.00, 
2181.00, 
2182.00, 
2183.00, 
2184.00, 
2185.00, 
2186.00, 
2187.00, 
2188.00, 
2189.00, 
2190.00, 
2191.00, 
2192.00, 
2193.00, 
2194.00, 
2195.00, 
2196.00, 
2197.00, 
2198.00, 
2199.00, 
2200.00, 
2201.00, 
2202.00, 
2203.00, 
2204.00, 
2205.00, 
2206.00, 
2207.00, 
2208.00, 
2209.00, 
2210.00, 
2211.00, 
2212.00, 
2213.00, 
2214.00, 
2215.00, 
2216.00, 
2217.00, 
2218.00, 
2219.00, 
2220.00, 
2221.00, 
2222.00, 
2223.00, 
2224.00, 
2225.00, 
2226.00, 
2227.00, 
2228.00, 
2229.00, 
2230.00, 
2231.00, 
2232.00, 
2233.00, 
2234.00, 
2235.00, 
2236.00, 
2237.00, 
2238.00, 
2239.00, 
2240.00, 
2241.00, 
2242.00, 
2243.00, 
2244.00, 
2245.00, 
2246.00, 
2247.00, 
2248.00, 
2249.00, 
2250.00, 
2251.00, 
2252.00, 
2253.00, 
2254.00, 
2255.00, 
2256.00, 
2257.00, 
2258.00, 
2259.00, 
2260.00, 
2261.00, 
2262.00, 
2263.00, 
2264.00, 
2265.00, 
2266.00, 
2267.00, 
2268.00, 
2269.00, 
2270.00, 
2271.00, 
2272.00, 
2273.00, 
2274.00, 
2275.00, 
2276.00, 
2277.00, 
2278.00, 
2279.00, 
2280.00, 
2281.00, 
2282.00, 
2283.00, 
2284.00, 
2285.00, 
2286.00, 
2287.00, 
2288.00, 
2289.00, 
2290.00, 
2291.00, 
2292.00, 
2293.00, 
2294.00, 
2295.00, 
2296.00, 
2297.00, 
2298.00, 
2299.00, 
2300.00, 
2301.00, 
2302.00, 
2303.00, 
2304.00, 
2305.00, 
2306.00, 
2307.00, 
2308.00, 
2309.00, 
2310.00, 
2311.00, 
2312.00, 
2313.00, 
2314.00, 
2315.00, 
2316.00, 
2317.00, 
2318.00, 
2319.00, 
2320.00, 
2321.00, 
2322.00, 
2323.00, 
2324.00, 
2325.00, 
2326.00, 
2327.00, 
2328.00, 
2329.00, 
2330.00, 
2331.00, 
2332.00, 
2333.00, 
2334.00, 
2335.00, 
2336.00, 
2337.00, 
2338.00, 
2339.00, 
2340.00, 
2341.00, 
2342.00, 
2343.00, 
2344.00, 
2345.00, 
2346.00, 
2347.00, 
2348.00, 
2349.00, 
2350.00, 
2351.00, 
2352.00, 
2353.00, 
2354.00, 
2355.00, 
2356.00, 
2357.00, 
2358.00, 
2359.00, 
2360.00, 
2361.00, 
2362.00, 
2363.00, 
2364.00, 
2365.00, 
2366.00, 
2367.00, 
2368.00, 
2369.00, 
2370.00, 
2371.00, 
2372.00, 
2373.00, 
2374.00, 
2375.00, 
2376.00, 
2377.00, 
2378.00, 
2379.00, 
2380.00, 
2381.00, 
2382.00, 
2383.00, 
2384.00, 
2385.00, 
2386.00, 
2387.00, 
2388.00, 
2389.00, 
2390.00, 
2391.00, 
2392.00, 
2393.00, 
2394.00, 
2395.00, 
2396.00, 
2397.00, 
2398.00, 
2399.00, 
2400.00, 
2401.00, 
2402.00, 
2403.00, 
2404.00, 
2405.00, 
2406.00, 
2407.00, 
2408.00, 
2409.00, 
2410.00, 
2411.00, 
2412.00, 
2413.00, 
2414.00, 
2415.00, 
2416.00, 
2417.00, 
2418.00, 
2419.00, 
2420.00, 
2421.00, 
2422.00, 
2423.00, 
2424.00, 
2425.00, 
2426.00, 
2427.00, 
2428.00, 
2429.00, 
2430.00, 
2431.00, 
2432.00, 
2433.00, 
2434.00, 
2435.00, 
2436.00, 
2437.00, 
2438.00, 
2439.00, 
2440.00, 
2441.00, 
2442.00, 
2443.00, 
2444.00, 
2445.00, 
2446.00, 
2447.00, 
2448.00, 
2449.00, 
2450.00, 
2451.00, 
2452.00, 
2453.00, 
2454.00, 
2455.00, 
2456.00, 
2457.00, 
2458.00, 
2459.00, 
2460.00, 
2461.00, 
2462.00, 
2463.00, 
2464.00, 
2465.00, 
2466.00, 
2467.00, 
2468.00, 
2469.00, 
2470.00, 
2471.00, 
2472.00, 
2473.00, 
2474.00, 
2475.00, 
2476.00, 
2477.00, 
2478.00, 
2479.00, 
2480.00, 
2481.00, 
2482.00, 
2483.00, 
2484.00, 
2485.00, 
2486.00, 
2487.00, 
2488.00, 
2489.00, 
2490.00, 
2491.00, 
2492.00, 
2493.00, 
2494.00, 
2495.00, 
2496.00, 
2497.00, 
2498.00, 
2499.00, 
2500.00, 
2501.00, 
2502.00, 
2503.00, 
2504.00, 
2505.00, 
2506.00, 
2507.00, 
2508.00, 
2509.00, 
2510.00, 
2511.00, 
2512.00, 
2513.00, 
2514.00, 
2515.00, 
2516.00, 
2517.00, 
2518.00, 
2519.00, 
2520.00, 
2521.00, 
2522.00, 
2523.00, 
2524.00, 
2525.00, 
2526.00, 
2527.00, 
2528.00, 
2529.00, 
2530.00, 
2531.00, 
2532.00, 
2533.00, 
2534.00, 
2535.00, 
2536.00, 
2537.00, 
2538.00, 
2539.00, 
2540.00, 
2541.00, 
2542.00, 
2543.00, 
2544.00, 
2545.00, 
2546.00, 
2547.00, 
2548.00, 
2549.00, 
2550.00, 
2551.00, 
2552.00, 
2553.00, 
2554.00, 
2555.00, 
2556.00, 
2557.00, 
2558.00, 
2559.00, 
2560.00, 
2561.00, 
2562.00, 
2563.00, 
2564.00, 
2565.00, 
2566.00, 
2567.00, 
2568.00, 
2569.00, 
2570.00, 
2571.00, 
2572.00, 
2573.00, 
2574.00, 
2575.00, 
2576.00, 
2577.00, 
2578.00, 
2579.00, 
2580.00, 
2581.00, 
2582.00, 
2583.00, 
2584.00, 
2585.00, 
2586.00, 
2587.00, 
2588.00, 
2589.00, 
2590.00, 
2591.00, 
2592.00, 
2593.00, 
2594.00, 
2595.00, 
2596.00, 
2597.00, 
2598.00, 
2599.00, 
2600.00, 
