"1cP1 - RawData"
"Wavelength nm.","T%"
200.00,0.005
201.00,0.001
202.00,-0.001
203.00,0.003
204.00,-0.000
205.00,0.002
206.00,0.000
207.00,-0.001
208.00,0.002
209.00,-0.001
210.00,-0.001
211.00,0.001
212.00,-0.002
213.00,0.000
214.00,0.002
215.00,0.001
216.00,0.004
217.00,0.001
218.00,-0.002
219.00,0.003
220.00,0.002
221.00,0.003
222.00,-0.000
223.00,0.001
224.00,-0.001
225.00,0.000
226.00,-0.002
227.00,0.001
228.00,0.000
229.00,-0.000
230.00,-0.002
231.00,-0.001
232.00,0.000
233.00,0.000
234.00,-0.000
235.00,0.000
236.00,0.001
237.00,0.000
238.00,-0.001
239.00,0.001
240.00,0.000
241.00,0.001
242.00,0.001
243.00,-0.000
244.00,-0.001
245.00,0.000
246.00,0.000
247.00,0.000
248.00,0.001
249.00,-0.000
250.00,-0.000
251.00,-0.001
252.00,0.000
253.00,0.000
254.00,-0.000
255.00,0.000
256.00,0.001
257.00,-0.002
258.00,0.001
259.00,0.001
260.00,0.001
261.00,-0.003
262.00,-0.000
263.00,-0.001
264.00,0.001
265.00,0.000
266.00,-0.000
267.00,0.001
268.00,0.001
269.00,0.001
270.00,0.000
271.00,0.001
272.00,-0.000
273.00,0.000
274.00,0.001
275.00,-0.000
276.00,0.001
277.00,0.002
278.00,0.000
279.00,-0.001
280.00,0.001
281.00,0.000
282.00,-0.000
283.00,-0.000
284.00,-0.001
285.00,-0.001
286.00,0.001
287.00,0.000
288.00,0.001
289.00,0.001
290.00,-0.001
291.00,-0.001
292.00,0.001
293.00,-0.001
294.00,0.000
295.00,0.002
296.00,-0.001
297.00,-0.000
298.00,0.001
299.00,0.000
300.00,0.000
301.00,-0.001
302.00,0.001
303.00,0.000
304.00,0.001
305.00,0.001
306.00,0.002
307.00,0.003
308.00,0.005
309.00,0.010
310.00,0.013
311.00,0.024
312.00,0.038
313.00,0.058
314.00,0.087
315.00,0.126
316.00,0.174
317.00,0.251
318.00,0.343
319.00,0.463
320.00,0.619
321.00,0.810
322.00,1.033
323.00,1.289
324.00,1.598
325.00,1.928
326.00,2.285
327.00,2.703
328.00,3.182
329.00,3.658
330.00,4.204
331.00,4.740
332.00,5.309
333.00,5.948
334.00,6.573
335.00,7.196
336.00,7.862
337.00,8.501
338.00,9.179
339.00,9.797
340.00,10.444
341.00,11.086
342.00,11.675
343.00,12.251
344.00,12.748
345.00,13.398
346.00,13.895
347.00,14.372
348.00,14.814
349.00,15.288
350.00,15.648
351.00,16.096
352.00,16.423
353.00,16.784
354.00,17.101
355.00,17.400
356.00,17.717
357.00,17.947
358.00,18.210
359.00,18.475
360.00,18.658
361.00,18.795
362.00,18.986
363.00,19.160
364.00,19.223
365.00,19.326
366.00,19.406
367.00,19.563
368.00,19.530
369.00,19.611
370.00,19.698
371.00,19.688
372.00,19.713
373.00,19.624
374.00,19.672
375.00,19.618
376.00,19.512
377.00,19.434
378.00,19.336
379.00,19.243
380.00,19.236
381.00,19.272
382.00,19.213
383.00,19.241
384.00,19.288
385.00,19.308
386.00,19.328
387.00,19.427
388.00,19.548
389.00,19.468
390.00,19.538
391.00,19.559
392.00,19.586
393.00,19.602
394.00,19.638
395.00,19.675
396.00,19.579
397.00,19.620
398.00,19.593
399.00,19.655
400.00,19.632
401.00,19.642
402.00,19.640
403.00,19.598
404.00,19.602
405.00,19.552
406.00,19.560
407.00,19.496
408.00,19.509
409.00,19.449
410.00,19.390
411.00,19.416
412.00,19.349
413.00,19.368
414.00,19.341
415.00,19.355
416.00,19.388
417.00,19.357
418.00,19.392
419.00,19.459
420.00,19.508
421.00,19.479
422.00,19.478
423.00,19.532
424.00,19.560
425.00,19.593
426.00,19.608
427.00,19.678
428.00,19.685
429.00,19.740
430.00,19.772
431.00,19.821
432.00,19.815
433.00,19.884
434.00,19.941
435.00,20.011
436.00,20.076
437.00,20.099
438.00,20.189
439.00,20.220
440.00,20.303
441.00,20.387
442.00,20.439
443.00,20.534
444.00,20.623
445.00,20.677
446.00,20.800
447.00,20.851
448.00,20.969
449.00,21.070
450.00,21.173
451.00,21.231
452.00,21.329
453.00,21.479
454.00,21.548
455.00,21.684
456.00,21.793
457.00,21.912
458.00,21.981
459.00,22.114
460.00,22.279
461.00,22.372
462.00,22.486
463.00,22.636
464.00,22.749
465.00,22.860
466.00,23.004
467.00,23.144
468.00,23.221
469.00,23.340
470.00,23.409
471.00,23.503
472.00,23.654
473.00,23.715
474.00,23.849
475.00,23.977
476.00,24.082
477.00,24.184
478.00,24.309
479.00,24.505
480.00,24.614
481.00,24.752
482.00,24.918
483.00,25.036
484.00,25.224
485.00,25.357
486.00,25.510
487.00,25.684
488.00,25.793
489.00,25.970
490.00,26.105
491.00,26.236
492.00,26.472
493.00,26.621
494.00,26.631
495.00,26.753
496.00,26.890
497.00,26.991
498.00,27.147
499.00,27.302
500.00,27.417
501.00,27.561
502.00,27.679
503.00,27.857
504.00,27.877
505.00,28.029
506.00,28.160
507.00,28.252
508.00,28.428
509.00,28.579
510.00,28.704
511.00,28.758
512.00,28.958
513.00,29.095
514.00,29.217
515.00,29.386
516.00,29.462
517.00,29.584
518.00,29.703
519.00,29.786
520.00,29.880
521.00,29.937
522.00,30.071
523.00,30.092
524.00,30.218
525.00,30.363
526.00,30.439
527.00,30.529
528.00,30.609
529.00,30.841
530.00,30.948
531.00,31.042
532.00,31.083
533.00,31.274
534.00,31.325
535.00,31.417
536.00,31.497
537.00,31.596
538.00,31.656
539.00,31.705
540.00,31.788
541.00,31.807
542.00,31.909
543.00,31.988
544.00,32.082
545.00,32.117
546.00,32.182
547.00,32.340
548.00,32.462
549.00,32.499
550.00,32.592
551.00,32.677
552.00,32.817
553.00,32.802
554.00,32.882
555.00,32.937
556.00,33.018
557.00,33.063
558.00,33.124
559.00,33.199
560.00,33.291
561.00,33.363
562.00,33.447
563.00,33.481
564.00,33.560
565.00,33.570
566.00,33.616
567.00,33.641
568.00,33.689
569.00,33.759
570.00,33.811
571.00,33.844
572.00,33.883
573.00,33.846
574.00,33.910
575.00,33.934
576.00,33.895
577.00,34.008
578.00,34.133
579.00,34.177
580.00,34.225
581.00,34.364
582.00,34.448
583.00,34.479
584.00,34.560
585.00,34.634
586.00,34.633
587.00,34.700
588.00,34.729
589.00,34.699
590.00,34.829
591.00,34.886
592.00,34.835
593.00,34.877
594.00,35.030
595.00,35.089
596.00,35.096
597.00,35.169
598.00,35.256
599.00,35.326
600.00,35.378
601.00,35.362
602.00,35.348
603.00,35.434
604.00,35.530
605.00,35.581
606.00,35.611
607.00,35.614
608.00,35.802
609.00,35.863
610.00,35.664
611.00,35.718
612.00,35.875
613.00,35.923
614.00,35.922
615.00,36.109
616.00,36.183
617.00,36.183
618.00,36.217
619.00,36.341
620.00,36.370
621.00,36.304
622.00,36.452
623.00,36.494
624.00,36.562
625.00,36.629
626.00,36.673
627.00,36.673
628.00,36.762
629.00,36.842
630.00,36.868
631.00,36.946
632.00,36.959
633.00,37.186
634.00,37.211
635.00,37.249
636.00,37.335
637.00,37.407
638.00,37.500
639.00,37.630
640.00,37.625
641.00,37.557
642.00,37.701
643.00,37.840
644.00,37.865
645.00,37.968
646.00,38.107
647.00,38.191
648.00,38.276
649.00,38.252
650.00,38.329
651.00,38.513
652.00,38.593
653.00,38.581
654.00,38.713
655.00,38.888
656.00,39.152
657.00,39.019
658.00,39.083
659.00,39.250
660.00,39.276
661.00,39.403
662.00,39.462
663.00,39.533
664.00,39.762
665.00,39.984
666.00,39.912
667.00,39.884
668.00,40.010
669.00,40.326
670.00,40.521
671.00,40.464
672.00,40.554
673.00,40.652
674.00,40.685
675.00,40.804
676.00,41.010
677.00,41.147
678.00,40.983
679.00,41.100
680.00,41.258
681.00,41.420
682.00,41.421
683.00,41.500
684.00,41.576
685.00,41.685
686.00,41.534
687.00,41.885
688.00,42.113
689.00,42.011
690.00,42.320
691.00,42.516
692.00,42.315
693.00,42.294
694.00,42.522
695.00,42.690
696.00,42.679
697.00,42.647
698.00,42.843
699.00,43.256
700.00,43.176
701.00,43.203
702.00,43.309
703.00,43.522
704.00,43.554
705.00,43.438
706.00,43.477
707.00,43.552
708.00,43.730
709.00,44.263
710.00,43.968
711.00,43.888
712.00,44.036
713.00,44.153
714.00,44.257
715.00,44.254
716.00,44.274
717.00,44.474
718.00,44.654
719.00,44.602
720.00,44.727
721.00,49.204
722.00,49.221
723.00,49.202
724.00,49.312
725.00,49.280
726.00,49.347
727.00,49.335
728.00,49.412
729.00,49.390
730.00,49.432
731.00,49.583
732.00,49.505
733.00,49.527
734.00,49.633
735.00,49.639
736.00,49.695
737.00,49.737
738.00,49.791
739.00,49.881
740.00,49.833
741.00,49.911
742.00,49.920
743.00,49.935
744.00,49.877
745.00,49.994
746.00,50.026
747.00,50.084
748.00,49.983
749.00,49.962
750.00,50.036
751.00,50.096
752.00,50.103
753.00,50.042
754.00,50.110
755.00,50.087
756.00,50.125
757.00,50.224
758.00,50.166
759.00,50.121
760.00,50.171
761.00,50.168
762.00,50.231
763.00,50.248
764.00,50.273
765.00,50.202
766.00,50.275
767.00,50.261
768.00,50.388
769.00,50.300
770.00,50.409
771.00,50.342
772.00,50.393
773.00,50.358
774.00,50.439
775.00,50.473
776.00,50.422
777.00,50.470
778.00,50.478
779.00,50.514
780.00,50.524
781.00,50.517
782.00,50.470
783.00,50.441
784.00,50.576
785.00,50.453
786.00,50.552
787.00,50.529
788.00,50.478
789.00,50.516
790.00,50.449
791.00,50.445
792.00,50.500
793.00,50.400
794.00,50.481
795.00,50.426
796.00,50.480
797.00,50.373
798.00,50.456
799.00,50.397
800.00,50.380
801.00,50.438
802.00,50.377
803.00,50.391
804.00,50.326
805.00,50.371
806.00,50.277
807.00,50.289
808.00,50.378
809.00,50.353
810.00,50.282
811.00,50.267
812.00,50.354
813.00,50.277
814.00,50.280
815.00,50.222
816.00,50.222
817.00,50.257
818.00,50.122
819.00,50.178
820.00,50.202
821.00,50.180
822.00,50.212
823.00,50.109
824.00,50.200
825.00,50.017
826.00,50.021
827.00,50.142
828.00,50.162
829.00,50.139
830.00,50.076
831.00,52.473
832.00,52.444
833.00,52.385
834.00,52.433
835.00,52.377
836.00,52.356
837.00,52.364
838.00,52.321
839.00,52.335
840.00,52.271
841.00,52.287
842.00,52.267
843.00,52.264
844.00,52.274
845.00,52.210
846.00,52.212
847.00,52.162
848.00,52.239
849.00,52.099
850.00,52.127
851.00,52.023
852.00,52.077
853.00,51.974
854.00,51.972
855.00,51.906
856.00,51.984
857.00,51.779
858.00,51.793
859.00,51.899
860.00,51.846
861.00,51.886
862.00,51.763
863.00,51.832
864.00,51.761
865.00,51.788
866.00,51.757
867.00,51.734
868.00,51.750
869.00,51.740
870.00,51.765
871.00,51.674
872.00,51.730
873.00,51.768
874.00,51.704
875.00,51.642
876.00,51.681
877.00,51.642
878.00,51.672
879.00,51.651
880.00,51.677
881.00,51.628
882.00,51.632
883.00,51.597
884.00,51.550
885.00,51.511
886.00,51.526
887.00,51.501
888.00,51.482
889.00,51.460
890.00,51.478
891.00,51.414
892.00,51.423
893.00,51.415
894.00,51.392
895.00,51.368
896.00,51.347
897.00,51.327
898.00,51.292
899.00,51.336
900.00,51.270
901.00,51.261
902.00,51.311
903.00,51.219
904.00,51.230
905.00,51.211
906.00,51.214
907.00,51.184
908.00,51.119
909.00,51.136
910.00,51.114
911.00,51.094
912.00,51.088
913.00,51.024
914.00,51.040
915.00,51.017
916.00,51.003
917.00,50.977
918.00,50.989
919.00,50.981
920.00,50.921
921.00,50.937
922.00,50.905
923.00,50.890
924.00,50.824
925.00,50.863
926.00,50.829
927.00,50.843
928.00,50.750
929.00,50.821
930.00,50.744
931.00,50.758
932.00,50.708
933.00,50.734
934.00,50.697
935.00,50.667
936.00,50.620
937.00,50.623
938.00,50.592
939.00,50.608
940.00,50.538
941.00,50.577
942.00,50.522
943.00,50.515
944.00,50.529
945.00,50.490
946.00,50.493
947.00,50.425
948.00,50.428
949.00,50.395
950.00,50.383
951.00,50.347
952.00,50.364
953.00,50.297
954.00,50.314
955.00,50.256
956.00,50.261
957.00,50.195
958.00,50.232
959.00,50.162
960.00,50.172
961.00,50.160
962.00,50.168
963.00,50.111
964.00,50.093
965.00,50.121
966.00,50.108
967.00,50.108
968.00,50.070
969.00,50.112
970.00,50.065
971.00,50.071
972.00,50.046
973.00,50.064
974.00,50.072
975.00,50.040
976.00,50.081
977.00,50.074
978.00,50.112
979.00,50.057
980.00,50.057
981.00,50.084
982.00,50.015
983.00,50.052
984.00,50.022
985.00,50.064
986.00,50.001
987.00,50.043
988.00,49.982
989.00,49.972
990.00,49.983
991.00,49.972
992.00,50.004
993.00,49.951
994.00,49.935
995.00,49.950
996.00,49.932
997.00,49.925
998.00,49.887
999.00,49.931
1000.00,49.857
1001.00,49.846
1002.00,49.856
1003.00,49.837
1004.00,49.821
1005.00,49.780
1006.00,49.834
1007.00,49.789
1008.00,49.777
1009.00,49.766
1010.00,49.762
1011.00,49.759
1012.00,49.703
1013.00,49.727
1014.00,49.686
1015.00,49.702
1016.00,49.653
1017.00,49.655
1018.00,49.655
1019.00,49.603
1020.00,49.638
1021.00,49.621
1022.00,49.597
1023.00,49.543
1024.00,49.557
1025.00,49.538
1026.00,49.526
1027.00,49.503
1028.00,49.488
1029.00,49.486
1030.00,49.442
1031.00,49.466
1032.00,49.408
1033.00,49.421
1034.00,49.398
1035.00,49.345
1036.00,49.332
1037.00,49.320
1038.00,49.311
1039.00,49.279
1040.00,49.274
1041.00,49.223
1042.00,49.231
1043.00,49.208
1044.00,49.250
1045.00,49.231
1046.00,49.212
1047.00,49.257
1048.00,49.247
1049.00,49.266
1050.00,49.257
1051.00,49.301
1052.00,49.274
1053.00,49.311
1054.00,49.299
1055.00,49.324
1056.00,49.323
1057.00,49.312
1058.00,49.307
1059.00,49.309
1060.00,49.332
1061.00,49.301
1062.00,49.304
1063.00,49.304
1064.00,49.313
1065.00,49.277
1066.00,49.293
1067.00,49.265
1068.00,49.295
1069.00,49.233
1070.00,49.234
1071.00,49.210
1072.00,49.243
1073.00,49.211
1074.00,49.216
1075.00,49.200
1076.00,49.218
1077.00,49.180
1078.00,49.152
1079.00,49.171
1080.00,49.166
1081.00,49.164
1082.00,49.167
1083.00,49.142
1084.00,49.133
1085.00,49.133
1086.00,49.122
1087.00,49.128
1088.00,49.110
1089.00,49.102
1090.00,49.083
1091.00,49.105
1092.00,49.083
1093.00,49.091
1094.00,49.081
1095.00,49.069
1096.00,49.029
1097.00,49.037
1098.00,49.034
1099.00,49.019
1100.00,48.989
1101.00,48.996
1102.00,48.973
1103.00,48.988
1104.00,48.964
1105.00,48.961
1106.00,48.943
1107.00,48.939
1108.00,48.918
1109.00,48.927
1110.00,48.919
1111.00,48.910
1112.00,48.899
1113.00,48.905
1114.00,48.893
1115.00,48.904
1116.00,48.871
1117.00,48.858
1118.00,48.848
1119.00,48.861
1120.00,48.857
1121.00,48.875
1122.00,48.872
1123.00,48.831
1124.00,48.821
1125.00,48.826
1126.00,48.809
1127.00,48.833
1128.00,48.805
1129.00,48.799
1130.00,48.777
1131.00,48.798
1132.00,48.770
1133.00,48.775
1134.00,48.751
1135.00,48.755
1136.00,48.732
1137.00,48.740
1138.00,48.737
1139.00,48.757
1140.00,48.739
1141.00,48.745
1142.00,48.734
1143.00,48.759
1144.00,48.701
1145.00,48.709
1146.00,48.706
1147.00,48.709
1148.00,48.694
1149.00,48.722
1150.00,48.716
1151.00,48.721
1152.00,48.697
1153.00,48.708
1154.00,48.685
1155.00,48.691
1156.00,48.671
1157.00,48.697
1158.00,48.681
1159.00,48.679
1160.00,48.682
1161.00,48.693
1162.00,48.687
1163.00,48.698
1164.00,48.706
1165.00,48.680
1166.00,48.693
1167.00,48.661
1168.00,48.696
1169.00,48.666
1170.00,48.670
1171.00,48.661
1172.00,48.672
1173.00,48.656
1174.00,48.661
1175.00,48.666
1176.00,48.663
1177.00,48.648
1178.00,48.637
1179.00,48.669
1180.00,48.655
1181.00,48.686
1182.00,48.669
1183.00,48.669
1184.00,48.654
1185.00,48.673
1186.00,48.648
1187.00,48.653
1188.00,48.647
1189.00,48.645
1190.00,48.655
1191.00,48.637
1192.00,48.660
1193.00,48.634
1194.00,48.651
1195.00,48.627
1196.00,48.663
1197.00,48.657
1198.00,48.644
1199.00,48.651
1200.00,48.650
1201.00,48.680
1202.00,48.643
1203.00,48.665
1204.00,48.647
1205.00,48.671
1206.00,48.653
1207.00,48.650
1208.00,48.653
1209.00,48.656
1210.00,48.665
1211.00,48.645
1212.00,48.674
1213.00,48.625
1214.00,48.658
1215.00,48.638
1216.00,48.650
1217.00,48.654
1218.00,48.637
1219.00,48.668
1220.00,48.641
1221.00,48.658
1222.00,48.638
1223.00,48.661
1224.00,48.658
1225.00,48.631
1226.00,48.652
1227.00,48.655
1228.00,48.678
1229.00,48.663
1230.00,48.705
1231.00,48.691
1232.00,48.715
1233.00,48.714
1234.00,48.718
1235.00,48.700
1236.00,48.691
1237.00,48.721
1238.00,48.701
1239.00,48.719
1240.00,48.704
1241.00,48.734
1242.00,48.706
1243.00,48.715
1244.00,48.704
1245.00,48.750
1246.00,48.740
1247.00,48.742
1248.00,48.750
1249.00,48.793
1250.00,48.828
1251.00,48.774
1252.00,48.792
1253.00,48.759
1254.00,48.778
1255.00,48.798
1256.00,48.763
1257.00,48.753
1258.00,48.792
1259.00,48.780
1260.00,48.812
1261.00,48.813
1262.00,48.810
1263.00,48.806
1264.00,48.818
1265.00,48.829
1266.00,48.818
1267.00,48.848
1268.00,48.846
1269.00,48.836
1270.00,48.836
1271.00,48.856
1272.00,48.858
1273.00,48.877
1274.00,48.866
1275.00,48.879
1276.00,48.866
1277.00,48.891
1278.00,48.890
1279.00,48.910
1280.00,48.893
1281.00,48.927
1282.00,48.930
1283.00,48.917
1284.00,48.945
1285.00,48.927
1286.00,48.948
1287.00,48.936
1288.00,48.947
1289.00,48.928
1290.00,48.980
1291.00,48.962
1292.00,48.970
1293.00,48.973
1294.00,48.988
1295.00,48.988
1296.00,48.992
1297.00,48.998
1298.00,49.045
1299.00,49.005
1300.00,49.039
1301.00,49.008
1302.00,49.054
1303.00,49.039
1304.00,49.035
1305.00,49.066
1306.00,49.063
1307.00,49.076
1308.00,49.071
1309.00,49.094
1310.00,49.091
1311.00,49.094
1312.00,49.100
1313.00,49.119
1314.00,49.109
1315.00,49.140
1316.00,49.124
1317.00,49.162
1318.00,49.150
1319.00,49.165
1320.00,49.151
1321.00,49.332
1322.00,49.316
1323.00,49.307
1324.00,49.300
1325.00,49.289
1326.00,49.318
1327.00,49.300
1328.00,49.299
1329.00,49.300
1330.00,49.321
1331.00,49.325
1332.00,49.315
1333.00,49.342
1334.00,49.365
1335.00,49.364
1336.00,49.398
1337.00,49.450
1338.00,49.521
1339.00,49.532
1340.00,49.588
1341.00,49.660
1342.00,49.724
1343.00,49.757
1344.00,49.823
1345.00,49.880
1346.00,49.924
1347.00,49.940
1348.00,49.977
1349.00,49.979
1350.00,50.019
1351.00,50.032
1352.00,50.049
1353.00,50.167
1354.00,50.080
1355.00,49.996
1356.00,50.088
1357.00,50.059
1358.00,50.086
1359.00,50.095
1360.00,50.146
1361.00,50.130
1362.00,50.030
1363.00,50.177
1364.00,50.180
1365.00,50.080
1366.00,50.181
1367.00,50.092
1368.00,50.080
1369.00,50.114
1370.00,50.105
1371.00,50.021
1372.00,50.082
1373.00,50.073
1374.00,50.121
1375.00,50.087
1376.00,50.104
1377.00,50.060
1378.00,50.196
1379.00,50.108
1380.00,50.141
1381.00,50.124
1382.00,50.038
1383.00,50.126
1384.00,50.014
1385.00,50.080
1386.00,50.131
1387.00,50.061
1388.00,50.036
1389.00,50.063
1390.00,50.121
1391.00,50.081
1392.00,50.061
1393.00,50.137
1394.00,50.136
1395.00,50.102
1396.00,50.032
1397.00,50.161
1398.00,50.096
1399.00,50.098
1400.00,50.084
1401.00,50.096
1402.00,50.106
1403.00,50.032
1404.00,50.096
1405.00,50.099
1406.00,50.140
1407.00,50.128
1408.00,50.136
1409.00,50.095
1410.00,50.170
1411.00,50.148
1412.00,50.215
1413.00,50.149
1414.00,50.177
1415.00,50.182
1416.00,50.213
1417.00,50.236
1418.00,50.208
1419.00,50.237
1420.00,50.241
1421.00,50.304
1422.00,50.295
1423.00,50.330
1424.00,50.333
1425.00,50.364
1426.00,50.346
1427.00,50.391
1428.00,50.368
1429.00,50.383
1430.00,50.392
1431.00,50.416
1432.00,50.428
1433.00,50.458
1434.00,50.434
1435.00,50.515
1436.00,50.516
1437.00,50.528
1438.00,50.553
1439.00,50.573
1440.00,50.587
1441.00,50.585
1442.00,50.614
1443.00,50.631
1444.00,50.680
1445.00,50.633
1446.00,50.684
1447.00,50.702
1448.00,50.750
1449.00,50.743
1450.00,50.742
1451.00,50.761
1452.00,50.808
1453.00,50.794
1454.00,50.829
1455.00,50.855
1456.00,50.879
1457.00,50.868
1458.00,50.909
1459.00,50.897
1460.00,50.929
1461.00,50.911
1462.00,50.979
1463.00,50.967
1464.00,51.010
1465.00,51.010
1466.00,51.004
1467.00,51.025
1468.00,51.100
1469.00,51.063
1470.00,51.090
1471.00,51.097
1472.00,51.093
1473.00,51.113
1474.00,51.163
1475.00,51.162
1476.00,51.188
1477.00,51.159
1478.00,51.204
1479.00,51.211
1480.00,51.210
1481.00,51.215
1482.00,51.256
1483.00,51.265
1484.00,51.299
1485.00,51.296
1486.00,51.311
1487.00,51.329
1488.00,51.352
1489.00,51.329
1490.00,51.368
1491.00,51.367
1492.00,51.402
1493.00,51.375
1494.00,51.428
1495.00,51.411
1496.00,51.453
1497.00,51.426
1498.00,51.459
1499.00,51.483
1500.00,51.490
1501.00, 
1502.00, 
1503.00, 
1504.00, 
1505.00, 
1506.00, 
1507.00, 
1508.00, 
1509.00, 
1510.00, 
1511.00, 
1512.00, 
1513.00, 
1514.00, 
1515.00, 
1516.00, 
1517.00, 
1518.00, 
1519.00, 
1520.00, 
1521.00, 
1522.00, 
1523.00, 
1524.00, 
1525.00, 
1526.00, 
1527.00, 
1528.00, 
1529.00, 
1530.00, 
1531.00, 
1532.00, 
1533.00, 
1534.00, 
1535.00, 
1536.00, 
1537.00, 
1538.00, 
1539.00, 
1540.00, 
1541.00, 
1542.00, 
1543.00, 
1544.00, 
1545.00, 
1546.00, 
1547.00, 
1548.00, 
1549.00, 
1550.00, 
1551.00, 
1552.00, 
1553.00, 
1554.00, 
1555.00, 
1556.00, 
1557.00, 
1558.00, 
1559.00, 
1560.00, 
1561.00, 
1562.00, 
1563.00, 
1564.00, 
1565.00, 
1566.00, 
1567.00, 
1568.00, 
1569.00, 
1570.00, 
1571.00, 
1572.00, 
1573.00, 
1574.00, 
1575.00, 
1576.00, 
1577.00, 
1578.00, 
1579.00, 
1580.00, 
1581.00, 
1582.00, 
1583.00, 
1584.00, 
1585.00, 
1586.00, 
1587.00, 
1588.00, 
1589.00, 
1590.00, 
1591.00, 
1592.00, 
1593.00, 
1594.00, 
1595.00, 
1596.00, 
1597.00, 
1598.00, 
1599.00, 
1600.00, 
1601.00, 
1602.00, 
1603.00, 
1604.00, 
1605.00, 
1606.00, 
1607.00, 
1608.00, 
1609.00, 
1610.00, 
1611.00, 
1612.00, 
1613.00, 
1614.00, 
1615.00, 
1616.00, 
1617.00, 
1618.00, 
1619.00, 
1620.00, 
1621.00, 
1622.00, 
1623.00, 
1624.00, 
1625.00, 
1626.00, 
1627.00, 
1628.00, 
1629.00, 
1630.00, 
1631.00, 
1632.00, 
1633.00, 
1634.00, 
1635.00, 
1636.00, 
1637.00, 
1638.00, 
1639.00, 
1640.00, 
1641.00, 
1642.00, 
1643.00, 
1644.00, 
1645.00, 
1646.00, 
1647.00, 
1648.00, 
1649.00, 
1650.00, 
1651.00, 
1652.00, 
1653.00, 
1654.00, 
1655.00, 
1656.00, 
1657.00, 
1658.00, 
1659.00, 
1660.00, 
1661.00, 
1662.00, 
1663.00, 
1664.00, 
1665.00, 
1666.00, 
1667.00, 
1668.00, 
1669.00, 
1670.00, 
1671.00, 
1672.00, 
1673.00, 
1674.00, 
1675.00, 
1676.00, 
1677.00, 
1678.00, 
1679.00, 
1680.00, 
1681.00, 
1682.00, 
1683.00, 
1684.00, 
1685.00, 
1686.00, 
1687.00, 
1688.00, 
1689.00, 
1690.00, 
1691.00, 
1692.00, 
1693.00, 
1694.00, 
1695.00, 
1696.00, 
1697.00, 
1698.00, 
1699.00, 
1700.00, 
1701.00, 
1702.00, 
1703.00, 
1704.00, 
1705.00, 
1706.00, 
1707.00, 
1708.00, 
1709.00, 
1710.00, 
1711.00, 
1712.00, 
1713.00, 
1714.00, 
1715.00, 
1716.00, 
1717.00, 
1718.00, 
1719.00, 
1720.00, 
1721.00, 
1722.00, 
1723.00, 
1724.00, 
1725.00, 
1726.00, 
1727.00, 
1728.00, 
1729.00, 
1730.00, 
1731.00, 
1732.00, 
1733.00, 
1734.00, 
1735.00, 
1736.00, 
1737.00, 
1738.00, 
1739.00, 
1740.00, 
1741.00, 
1742.00, 
1743.00, 
1744.00, 
1745.00, 
1746.00, 
1747.00, 
1748.00, 
1749.00, 
1750.00, 
1751.00, 
1752.00, 
1753.00, 
1754.00, 
1755.00, 
1756.00, 
1757.00, 
1758.00, 
1759.00, 
1760.00, 
1761.00, 
1762.00, 
1763.00, 
1764.00, 
1765.00, 
1766.00, 
1767.00, 
1768.00, 
1769.00, 
1770.00, 
1771.00, 
1772.00, 
1773.00, 
1774.00, 
1775.00, 
1776.00, 
1777.00, 
1778.00, 
1779.00, 
1780.00, 
1781.00, 
1782.00, 
1783.00, 
1784.00, 
1785.00, 
1786.00, 
1787.00, 
1788.00, 
1789.00, 
1790.00, 
1791.00, 
1792.00, 
1793.00, 
1794.00, 
1795.00, 
1796.00, 
1797.00, 
1798.00, 
1799.00, 
1800.00, 
1801.00, 
1802.00, 
1803.00, 
1804.00, 
1805.00, 
1806.00, 
1807.00, 
1808.00, 
1809.00, 
1810.00, 
1811.00, 
1812.00, 
1813.00, 
1814.00, 
1815.00, 
1816.00, 
1817.00, 
1818.00, 
1819.00, 
1820.00, 
1821.00, 
1822.00, 
1823.00, 
1824.00, 
1825.00, 
1826.00, 
1827.00, 
1828.00, 
1829.00, 
1830.00, 
1831.00, 
1832.00, 
1833.00, 
1834.00, 
1835.00, 
1836.00, 
1837.00, 
1838.00, 
1839.00, 
1840.00, 
1841.00, 
1842.00, 
1843.00, 
1844.00, 
1845.00, 
1846.00, 
1847.00, 
1848.00, 
1849.00, 
1850.00, 
1851.00, 
1852.00, 
1853.00, 
1854.00, 
1855.00, 
1856.00, 
1857.00, 
1858.00, 
1859.00, 
1860.00, 
1861.00, 
1862.00, 
1863.00, 
1864.00, 
1865.00, 
1866.00, 
1867.00, 
1868.00, 
1869.00, 
1870.00, 
1871.00, 
1872.00, 
1873.00, 
1874.00, 
1875.00, 
1876.00, 
1877.00, 
1878.00, 
1879.00, 
1880.00, 
1881.00, 
1882.00, 
1883.00, 
1884.00, 
1885.00, 
1886.00, 
1887.00, 
1888.00, 
1889.00, 
1890.00, 
1891.00, 
1892.00, 
1893.00, 
1894.00, 
1895.00, 
1896.00, 
1897.00, 
1898.00, 
1899.00, 
1900.00, 
1901.00, 
1902.00, 
1903.00, 
1904.00, 
1905.00, 
1906.00, 
1907.00, 
1908.00, 
1909.00, 
1910.00, 
1911.00, 
1912.00, 
1913.00, 
1914.00, 
1915.00, 
1916.00, 
1917.00, 
1918.00, 
1919.00, 
1920.00, 
1921.00, 
1922.00, 
1923.00, 
1924.00, 
1925.00, 
1926.00, 
1927.00, 
1928.00, 
1929.00, 
1930.00, 
1931.00, 
1932.00, 
1933.00, 
1934.00, 
1935.00, 
1936.00, 
1937.00, 
1938.00, 
1939.00, 
1940.00, 
1941.00, 
1942.00, 
1943.00, 
1944.00, 
1945.00, 
1946.00, 
1947.00, 
1948.00, 
1949.00, 
1950.00, 
1951.00, 
1952.00, 
1953.00, 
1954.00, 
1955.00, 
1956.00, 
1957.00, 
1958.00, 
1959.00, 
1960.00, 
1961.00, 
1962.00, 
1963.00, 
1964.00, 
1965.00, 
1966.00, 
1967.00, 
1968.00, 
1969.00, 
1970.00, 
1971.00, 
1972.00, 
1973.00, 
1974.00, 
1975.00, 
1976.00, 
1977.00, 
1978.00, 
1979.00, 
1980.00, 
1981.00, 
1982.00, 
1983.00, 
1984.00, 
1985.00, 
1986.00, 
1987.00, 
1988.00, 
1989.00, 
1990.00, 
1991.00, 
1992.00, 
1993.00, 
1994.00, 
1995.00, 
1996.00, 
1997.00, 
1998.00, 
1999.00, 
2000.00, 
2001.00, 
2002.00, 
2003.00, 
2004.00, 
2005.00, 
2006.00, 
2007.00, 
2008.00, 
2009.00, 
2010.00, 
2011.00, 
2012.00, 
2013.00, 
2014.00, 
2015.00, 
2016.00, 
2017.00, 
2018.00, 
2019.00, 
2020.00, 
2021.00, 
2022.00, 
2023.00, 
2024.00, 
2025.00, 
2026.00, 
2027.00, 
2028.00, 
2029.00, 
2030.00, 
2031.00, 
2032.00, 
2033.00, 
2034.00, 
2035.00, 
2036.00, 
2037.00, 
2038.00, 
2039.00, 
2040.00, 
2041.00, 
2042.00, 
2043.00, 
2044.00, 
2045.00, 
2046.00, 
2047.00, 
2048.00, 
2049.00, 
2050.00, 
2051.00, 
2052.00, 
2053.00, 
2054.00, 
2055.00, 
2056.00, 
2057.00, 
2058.00, 
2059.00, 
2060.00, 
2061.00, 
2062.00, 
2063.00, 
2064.00, 
2065.00, 
2066.00, 
2067.00, 
2068.00, 
2069.00, 
2070.00, 
2071.00, 
2072.00, 
2073.00, 
2074.00, 
2075.00, 
2076.00, 
2077.00, 
2078.00, 
2079.00, 
2080.00, 
2081.00, 
2082.00, 
2083.00, 
2084.00, 
2085.00, 
2086.00, 
2087.00, 
2088.00, 
2089.00, 
2090.00, 
2091.00, 
2092.00, 
2093.00, 
2094.00, 
2095.00, 
2096.00, 
2097.00, 
2098.00, 
2099.00, 
2100.00, 
2101.00, 
2102.00, 
2103.00, 
2104.00, 
2105.00, 
2106.00, 
2107.00, 
2108.00, 
2109.00, 
2110.00, 
2111.00, 
2112.00, 
2113.00, 
2114.00, 
2115.00, 
2116.00, 
2117.00, 
2118.00, 
2119.00, 
2120.00, 
2121.00, 
2122.00, 
2123.00, 
2124.00, 
2125.00, 
2126.00, 
2127.00, 
2128.00, 
2129.00, 
2130.00, 
2131.00, 
2132.00, 
2133.00, 
2134.00, 
2135.00, 
2136.00, 
2137.00, 
2138.00, 
2139.00, 
2140.00, 
2141.00, 
2142.00, 
2143.00, 
2144.00, 
2145.00, 
2146.00, 
2147.00, 
2148.00, 
2149.00, 
2150.00, 
2151.00, 
2152.00, 
2153.00, 
2154.00, 
2155.00, 
2156.00, 
2157.00, 
2158.00, 
2159.00, 
2160.00, 
2161.00, 
2162.00, 
2163.00, 
2164.00, 
2165.00, 
2166.00, 
2167.00, 
2168.00, 
2169.00, 
2170.00, 
2171.00, 
2172.00, 
2173.00, 
2174.00, 
2175.00, 
2176.00, 
2177.00, 
2178.00, 
2179.00, 
2180.00, 
2181.00, 
2182.00, 
2183.00, 
2184.00, 
2185.00, 
2186.00, 
2187.00, 
2188.00, 
2189.00, 
2190.00, 
2191.00, 
2192.00, 
2193.00, 
2194.00, 
2195.00, 
2196.00, 
2197.00, 
2198.00, 
2199.00, 
2200.00, 
2201.00, 
2202.00, 
2203.00, 
2204.00, 
2205.00, 
2206.00, 
2207.00, 
2208.00, 
2209.00, 
2210.00, 
2211.00, 
2212.00, 
2213.00, 
2214.00, 
2215.00, 
2216.00, 
2217.00, 
2218.00, 
2219.00, 
2220.00, 
2221.00, 
2222.00, 
2223.00, 
2224.00, 
2225.00, 
2226.00, 
2227.00, 
2228.00, 
2229.00, 
2230.00, 
2231.00, 
2232.00, 
2233.00, 
2234.00, 
2235.00, 
2236.00, 
2237.00, 
2238.00, 
2239.00, 
2240.00, 
2241.00, 
2242.00, 
2243.00, 
2244.00, 
2245.00, 
2246.00, 
2247.00, 
2248.00, 
2249.00, 
2250.00, 
2251.00, 
2252.00, 
2253.00, 
2254.00, 
2255.00, 
2256.00, 
2257.00, 
2258.00, 
2259.00, 
2260.00, 
2261.00, 
2262.00, 
2263.00, 
2264.00, 
2265.00, 
2266.00, 
2267.00, 
2268.00, 
2269.00, 
2270.00, 
2271.00, 
2272.00, 
2273.00, 
2274.00, 
2275.00, 
2276.00, 
2277.00, 
2278.00, 
2279.00, 
2280.00, 
2281.00, 
2282.00, 
2283.00, 
2284.00, 
2285.00, 
2286.00, 
2287.00, 
2288.00, 
2289.00, 
2290.00, 
2291.00, 
2292.00, 
2293.00, 
2294.00, 
2295.00, 
2296.00, 
2297.00, 
2298.00, 
2299.00, 
2300.00, 
2301.00, 
2302.00, 
2303.00, 
2304.00, 
2305.00, 
2306.00, 
2307.00, 
2308.00, 
2309.00, 
2310.00, 
2311.00, 
2312.00, 
2313.00, 
2314.00, 
2315.00, 
2316.00, 
2317.00, 
2318.00, 
2319.00, 
2320.00, 
2321.00, 
2322.00, 
2323.00, 
2324.00, 
2325.00, 
2326.00, 
2327.00, 
2328.00, 
2329.00, 
2330.00, 
2331.00, 
2332.00, 
2333.00, 
2334.00, 
2335.00, 
2336.00, 
2337.00, 
2338.00, 
2339.00, 
2340.00, 
2341.00, 
2342.00, 
2343.00, 
2344.00, 
2345.00, 
2346.00, 
2347.00, 
2348.00, 
2349.00, 
2350.00, 
2351.00, 
2352.00, 
2353.00, 
2354.00, 
2355.00, 
2356.00, 
2357.00, 
2358.00, 
2359.00, 
2360.00, 
2361.00, 
2362.00, 
2363.00, 
2364.00, 
2365.00, 
2366.00, 
2367.00, 
2368.00, 
2369.00, 
2370.00, 
2371.00, 
2372.00, 
2373.00, 
2374.00, 
2375.00, 
2376.00, 
2377.00, 
2378.00, 
2379.00, 
2380.00, 
2381.00, 
2382.00, 
2383.00, 
2384.00, 
2385.00, 
2386.00, 
2387.00, 
2388.00, 
2389.00, 
2390.00, 
2391.00, 
2392.00, 
2393.00, 
2394.00, 
2395.00, 
2396.00, 
2397.00, 
2398.00, 
2399.00, 
2400.00, 
2401.00, 
2402.00, 
2403.00, 
2404.00, 
2405.00, 
2406.00, 
2407.00, 
2408.00, 
2409.00, 
2410.00, 
2411.00, 
2412.00, 
2413.00, 
2414.00, 
2415.00, 
2416.00, 
2417.00, 
2418.00, 
2419.00, 
2420.00, 
2421.00, 
2422.00, 
2423.00, 
2424.00, 
2425.00, 
2426.00, 
2427.00, 
2428.00, 
2429.00, 
2430.00, 
2431.00, 
2432.00, 
2433.00, 
2434.00, 
2435.00, 
2436.00, 
2437.00, 
2438.00, 
2439.00, 
2440.00, 
2441.00, 
2442.00, 
2443.00, 
2444.00, 
2445.00, 
2446.00, 
2447.00, 
2448.00, 
2449.00, 
2450.00, 
2451.00, 
2452.00, 
2453.00, 
2454.00, 
2455.00, 
2456.00, 
2457.00, 
2458.00, 
2459.00, 
2460.00, 
2461.00, 
2462.00, 
2463.00, 
2464.00, 
2465.00, 
2466.00, 
2467.00, 
2468.00, 
2469.00, 
2470.00, 
2471.00, 
2472.00, 
2473.00, 
2474.00, 
2475.00, 
2476.00, 
2477.00, 
2478.00, 
2479.00, 
2480.00, 
2481.00, 
2482.00, 
2483.00, 
2484.00, 
2485.00, 
2486.00, 
2487.00, 
2488.00, 
2489.00, 
2490.00, 
2491.00, 
2492.00, 
2493.00, 
2494.00, 
2495.00, 
2496.00, 
2497.00, 
2498.00, 
2499.00, 
2500.00, 
2501.00, 
2502.00, 
2503.00, 
2504.00, 
2505.00, 
2506.00, 
2507.00, 
2508.00, 
2509.00, 
2510.00, 
2511.00, 
2512.00, 
2513.00, 
2514.00, 
2515.00, 
2516.00, 
2517.00, 
2518.00, 
2519.00, 
2520.00, 
2521.00, 
2522.00, 
2523.00, 
2524.00, 
2525.00, 
2526.00, 
2527.00, 
2528.00, 
2529.00, 
2530.00, 
2531.00, 
2532.00, 
2533.00, 
2534.00, 
2535.00, 
2536.00, 
2537.00, 
2538.00, 
2539.00, 
2540.00, 
2541.00, 
2542.00, 
2543.00, 
2544.00, 
2545.00, 
2546.00, 
2547.00, 
2548.00, 
2549.00, 
2550.00, 
2551.00, 
2552.00, 
2553.00, 
2554.00, 
2555.00, 
2556.00, 
2557.00, 
2558.00, 
2559.00, 
2560.00, 
2561.00, 
2562.00, 
2563.00, 
2564.00, 
2565.00, 
2566.00, 
2567.00, 
2568.00, 
2569.00, 
2570.00, 
2571.00, 
2572.00, 
2573.00, 
2574.00, 
2575.00, 
2576.00, 
2577.00, 
2578.00, 
2579.00, 
2580.00, 
2581.00, 
2582.00, 
2583.00, 
2584.00, 
2585.00, 
2586.00, 
2587.00, 
2588.00, 
2589.00, 
2590.00, 
2591.00, 
2592.00, 
2593.00, 
2594.00, 
2595.00, 
2596.00, 
2597.00, 
2598.00, 
2599.00, 
2600.00, 
