"1cP3 - RawData"
"Wavelength nm.","T%"
200.00,-0.000
201.00,-0.001
202.00,-0.000
203.00,-0.001
204.00,0.000
205.00,0.001
206.00,0.001
207.00,0.003
208.00,-0.003
209.00,0.002
210.00,-0.000
211.00,-0.001
212.00,-0.001
213.00,-0.000
214.00,0.003
215.00,0.000
216.00,-0.002
217.00,0.001
218.00,0.002
219.00,0.001
220.00,-0.001
221.00,0.002
222.00,0.002
223.00,0.001
224.00,0.001
225.00,-0.001
226.00,-0.001
227.00,0.000
228.00,0.002
229.00,-0.001
230.00,-0.000
231.00,0.003
232.00,-0.001
233.00,-0.003
234.00,0.001
235.00,-0.001
236.00,0.000
237.00,0.000
238.00,-0.000
239.00,0.001
240.00,-0.001
241.00,0.001
242.00,-0.001
243.00,0.001
244.00,0.003
245.00,-0.000
246.00,-0.001
247.00,-0.000
248.00,-0.000
249.00,0.000
250.00,0.000
251.00,0.001
252.00,0.002
253.00,0.001
254.00,0.001
255.00,0.004
256.00,-0.000
257.00,0.000
258.00,-0.001
259.00,0.000
260.00,-0.000
261.00,0.000
262.00,0.000
263.00,0.001
264.00,0.000
265.00,0.001
266.00,0.002
267.00,-0.000
268.00,0.001
269.00,-0.000
270.00,-0.001
271.00,-0.000
272.00,0.000
273.00,-0.000
274.00,0.000
275.00,0.000
276.00,-0.001
277.00,0.001
278.00,0.002
279.00,0.001
280.00,0.001
281.00,0.001
282.00,-0.002
283.00,0.000
284.00,0.001
285.00,-0.001
286.00,-0.000
287.00,0.000
288.00,-0.000
289.00,0.000
290.00,-0.002
291.00,-0.001
292.00,0.000
293.00,0.000
294.00,-0.000
295.00,-0.000
296.00,0.000
297.00,-0.001
298.00,0.001
299.00,-0.000
300.00,0.002
301.00,0.002
302.00,0.001
303.00,0.001
304.00,0.002
305.00,0.002
306.00,0.000
307.00,0.004
308.00,0.006
309.00,0.009
310.00,0.017
311.00,0.026
312.00,0.038
313.00,0.062
314.00,0.092
315.00,0.137
316.00,0.195
317.00,0.275
318.00,0.378
319.00,0.486
320.00,0.677
321.00,0.877
322.00,1.121
323.00,1.407
324.00,1.751
325.00,2.095
326.00,2.489
327.00,2.961
328.00,3.459
329.00,3.996
330.00,4.575
331.00,5.175
332.00,5.829
333.00,6.529
334.00,7.092
335.00,7.888
336.00,8.591
337.00,9.339
338.00,10.064
339.00,10.714
340.00,11.441
341.00,12.165
342.00,12.835
343.00,13.460
344.00,14.070
345.00,14.764
346.00,15.284
347.00,15.805
348.00,16.310
349.00,16.816
350.00,17.277
351.00,17.738
352.00,18.114
353.00,18.548
354.00,18.799
355.00,19.242
356.00,19.596
357.00,19.904
358.00,20.128
359.00,20.477
360.00,20.698
361.00,20.829
362.00,21.059
363.00,21.241
364.00,21.387
365.00,21.526
366.00,21.618
367.00,21.761
368.00,21.830
369.00,21.889
370.00,21.977
371.00,22.003
372.00,21.961
373.00,21.966
374.00,21.988
375.00,21.977
376.00,21.886
377.00,21.743
378.00,21.686
379.00,21.590
380.00,21.605
381.00,21.616
382.00,21.573
383.00,21.636
384.00,21.681
385.00,21.739
386.00,21.761
387.00,21.900
388.00,22.029
389.00,21.934
390.00,22.009
391.00,22.054
392.00,22.107
393.00,22.134
394.00,22.194
395.00,22.217
396.00,22.181
397.00,22.210
398.00,22.174
399.00,22.192
400.00,22.176
401.00,22.180
402.00,22.217
403.00,22.184
404.00,22.179
405.00,22.176
406.00,22.180
407.00,22.123
408.00,22.087
409.00,22.044
410.00,21.962
411.00,21.971
412.00,21.967
413.00,21.958
414.00,21.856
415.00,21.927
416.00,21.985
417.00,21.940
418.00,22.009
419.00,22.051
420.00,22.119
421.00,22.028
422.00,22.039
423.00,22.044
424.00,22.120
425.00,22.176
426.00,22.154
427.00,22.223
428.00,22.259
429.00,22.271
430.00,22.315
431.00,22.375
432.00,22.354
433.00,22.424
434.00,22.460
435.00,22.571
436.00,22.601
437.00,22.657
438.00,22.743
439.00,22.744
440.00,22.850
441.00,22.887
442.00,22.957
443.00,23.045
444.00,23.089
445.00,23.177
446.00,23.269
447.00,23.356
448.00,23.466
449.00,23.549
450.00,23.650
451.00,23.692
452.00,23.790
453.00,23.914
454.00,23.998
455.00,24.121
456.00,24.196
457.00,24.267
458.00,24.407
459.00,24.501
460.00,24.653
461.00,24.771
462.00,24.850
463.00,24.993
464.00,25.101
465.00,25.195
466.00,25.325
467.00,25.485
468.00,25.538
469.00,25.640
470.00,25.697
471.00,25.804
472.00,25.947
473.00,26.016
474.00,26.128
475.00,26.240
476.00,26.319
477.00,26.451
478.00,26.539
479.00,26.740
480.00,26.840
481.00,26.955
482.00,27.137
483.00,27.244
484.00,27.386
485.00,27.547
486.00,27.683
487.00,27.809
488.00,27.939
489.00,28.121
490.00,28.233
491.00,28.367
492.00,28.626
493.00,28.768
494.00,28.710
495.00,28.865
496.00,28.957
497.00,29.033
498.00,29.197
499.00,29.328
500.00,29.435
501.00,29.563
502.00,29.701
503.00,29.820
504.00,29.857
505.00,30.009
506.00,30.123
507.00,30.206
508.00,30.319
509.00,30.512
510.00,30.591
511.00,30.654
512.00,30.877
513.00,31.009
514.00,31.061
515.00,31.202
516.00,31.324
517.00,31.416
518.00,31.557
519.00,31.601
520.00,31.683
521.00,31.789
522.00,31.894
523.00,31.908
524.00,32.042
525.00,32.183
526.00,32.314
527.00,32.382
528.00,32.497
529.00,32.731
530.00,32.825
531.00,32.870
532.00,32.929
533.00,33.059
534.00,33.124
535.00,33.235
536.00,33.275
537.00,33.372
538.00,33.472
539.00,33.506
540.00,33.607
541.00,33.611
542.00,33.679
543.00,33.733
544.00,33.827
545.00,33.963
546.00,33.918
547.00,34.084
548.00,34.177
549.00,34.233
550.00,34.319
551.00,34.410
552.00,34.520
553.00,34.523
554.00,34.595
555.00,34.647
556.00,34.756
557.00,34.811
558.00,34.794
559.00,34.914
560.00,35.003
561.00,35.120
562.00,35.175
563.00,35.246
564.00,35.283
565.00,35.326
566.00,35.340
567.00,35.375
568.00,35.434
569.00,35.481
570.00,35.496
571.00,35.591
572.00,35.614
573.00,35.590
574.00,35.648
575.00,35.669
576.00,35.658
577.00,35.745
578.00,35.897
579.00,35.921
580.00,35.965
581.00,36.130
582.00,36.209
583.00,36.196
584.00,36.309
585.00,36.372
586.00,36.395
587.00,36.466
588.00,36.475
589.00,36.435
590.00,36.562
591.00,36.615
592.00,36.571
593.00,36.623
594.00,36.753
595.00,36.837
596.00,36.835
597.00,36.876
598.00,36.955
599.00,37.023
600.00,37.139
601.00,37.117
602.00,37.090
603.00,37.162
604.00,37.256
605.00,37.376
606.00,37.401
607.00,37.372
608.00,37.551
609.00,37.608
610.00,37.417
611.00,37.449
612.00,37.511
613.00,37.593
614.00,37.646
615.00,37.762
616.00,37.808
617.00,37.816
618.00,37.855
619.00,37.953
620.00,38.012
621.00,37.975
622.00,38.077
623.00,38.136
624.00,38.202
625.00,38.250
626.00,38.297
627.00,38.338
628.00,38.339
629.00,38.427
630.00,38.411
631.00,38.537
632.00,38.598
633.00,38.732
634.00,38.798
635.00,38.879
636.00,38.879
637.00,38.922
638.00,39.009
639.00,39.127
640.00,39.186
641.00,39.192
642.00,39.235
643.00,39.300
644.00,39.397
645.00,39.449
646.00,39.625
647.00,39.628
648.00,39.706
649.00,39.733
650.00,39.745
651.00,39.944
652.00,40.022
653.00,40.046
654.00,40.115
655.00,40.275
656.00,40.523
657.00,40.378
658.00,40.487
659.00,40.638
660.00,40.642
661.00,40.705
662.00,40.755
663.00,40.855
664.00,41.064
665.00,41.264
666.00,41.081
667.00,41.163
668.00,41.254
669.00,41.535
670.00,41.670
671.00,41.522
672.00,41.631
673.00,41.699
674.00,41.816
675.00,41.904
676.00,42.087
677.00,42.219
678.00,41.886
679.00,42.085
680.00,42.203
681.00,42.366
682.00,42.302
683.00,42.324
684.00,42.438
685.00,42.654
686.00,42.654
687.00,42.742
688.00,42.877
689.00,42.786
690.00,43.103
691.00,43.325
692.00,42.894
693.00,43.002
694.00,43.215
695.00,43.311
696.00,43.316
697.00,43.352
698.00,43.392
699.00,43.736
700.00,43.714
701.00,43.679
702.00,43.817
703.00,44.121
704.00,44.034
705.00,43.955
706.00,44.022
707.00,44.028
708.00,44.250
709.00,44.791
710.00,44.169
711.00,44.176
712.00,44.273
713.00,44.254
714.00,44.626
715.00,44.663
716.00,44.501
717.00,44.724
718.00,44.831
719.00,44.784
720.00,44.805
721.00,49.733
722.00,49.718
723.00,49.618
724.00,49.675
725.00,49.702
726.00,49.788
727.00,49.765
728.00,49.744
729.00,49.745
730.00,49.798
731.00,49.868
732.00,49.797
733.00,49.881
734.00,49.879
735.00,49.882
736.00,49.909
737.00,49.961
738.00,50.051
739.00,50.051
740.00,50.035
741.00,50.149
742.00,50.109
743.00,50.155
744.00,50.083
745.00,50.185
746.00,50.104
747.00,50.108
748.00,50.026
749.00,50.059
750.00,50.092
751.00,50.107
752.00,50.059
753.00,50.056
754.00,50.081
755.00,50.056
756.00,50.082
757.00,50.119
758.00,50.118
759.00,50.035
760.00,50.074
761.00,50.093
762.00,50.116
763.00,50.167
764.00,50.124
765.00,50.127
766.00,50.202
767.00,50.137
768.00,50.198
769.00,50.169
770.00,50.224
771.00,50.166
772.00,50.159
773.00,50.169
774.00,50.211
775.00,50.271
776.00,50.231
777.00,50.236
778.00,50.262
779.00,50.242
780.00,50.259
781.00,50.220
782.00,50.212
783.00,50.163
784.00,50.264
785.00,50.124
786.00,50.237
787.00,50.159
788.00,50.218
789.00,50.227
790.00,50.042
791.00,50.244
792.00,50.137
793.00,50.111
794.00,50.121
795.00,50.041
796.00,50.084
797.00,50.026
798.00,50.054
799.00,50.006
800.00,49.989
801.00,49.977
802.00,49.899
803.00,49.988
804.00,49.901
805.00,49.938
806.00,49.804
807.00,49.829
808.00,49.950
809.00,49.889
810.00,49.779
811.00,49.813
812.00,49.827
813.00,49.768
814.00,49.775
815.00,49.727
816.00,49.716
817.00,49.780
818.00,49.612
819.00,49.677
820.00,49.721
821.00,49.660
822.00,49.636
823.00,49.568
824.00,49.610
825.00,49.539
826.00,49.512
827.00,49.646
828.00,49.670
829.00,49.588
830.00,49.599
831.00,52.041
832.00,52.056
833.00,51.976
834.00,51.990
835.00,51.941
836.00,51.940
837.00,51.903
838.00,51.880
839.00,51.909
840.00,51.751
841.00,51.820
842.00,51.768
843.00,51.791
844.00,51.808
845.00,51.747
846.00,51.735
847.00,51.708
848.00,51.763
849.00,51.617
850.00,51.681
851.00,51.540
852.00,51.601
853.00,51.494
854.00,51.507
855.00,51.448
856.00,51.470
857.00,51.293
858.00,51.367
859.00,51.366
860.00,51.339
861.00,51.403
862.00,51.296
863.00,51.313
864.00,51.315
865.00,51.308
866.00,51.276
867.00,51.270
868.00,51.263
869.00,51.216
870.00,51.279
871.00,51.232
872.00,51.220
873.00,51.182
874.00,51.215
875.00,51.176
876.00,51.202
877.00,51.114
878.00,51.237
879.00,51.136
880.00,51.148
881.00,51.125
882.00,51.127
883.00,51.035
884.00,51.052
885.00,51.032
886.00,51.059
887.00,50.991
888.00,50.954
889.00,50.944
890.00,50.960
891.00,50.878
892.00,50.880
893.00,50.873
894.00,50.863
895.00,50.850
896.00,50.782
897.00,50.795
898.00,50.747
899.00,50.769
900.00,50.747
901.00,50.722
902.00,50.771
903.00,50.696
904.00,50.696
905.00,50.656
906.00,50.667
907.00,50.633
908.00,50.578
909.00,50.601
910.00,50.563
911.00,50.547
912.00,50.545
913.00,50.505
914.00,50.505
915.00,50.491
916.00,50.485
917.00,50.411
918.00,50.411
919.00,50.394
920.00,50.358
921.00,50.377
922.00,50.337
923.00,50.325
924.00,50.258
925.00,50.276
926.00,50.238
927.00,50.260
928.00,50.174
929.00,50.221
930.00,50.164
931.00,50.184
932.00,50.076
933.00,50.193
934.00,50.109
935.00,50.093
936.00,50.060
937.00,50.033
938.00,49.989
939.00,50.036
940.00,49.978
941.00,50.003
942.00,49.953
943.00,49.939
944.00,49.897
945.00,49.904
946.00,49.911
947.00,49.837
948.00,49.854
949.00,49.833
950.00,49.825
951.00,49.791
952.00,49.797
953.00,49.758
954.00,49.720
955.00,49.674
956.00,49.664
957.00,49.616
958.00,49.634
959.00,49.573
960.00,49.583
961.00,49.554
962.00,49.558
963.00,49.510
964.00,49.495
965.00,49.509
966.00,49.481
967.00,49.477
968.00,49.452
969.00,49.499
970.00,49.450
971.00,49.466
972.00,49.422
973.00,49.459
974.00,49.497
975.00,49.437
976.00,49.485
977.00,49.480
978.00,49.525
979.00,49.520
980.00,49.474
981.00,49.509
982.00,49.448
983.00,49.481
984.00,49.440
985.00,49.482
986.00,49.413
987.00,49.446
988.00,49.399
989.00,49.393
990.00,49.408
991.00,49.385
992.00,49.407
993.00,49.348
994.00,49.330
995.00,49.395
996.00,49.325
997.00,49.315
998.00,49.283
999.00,49.318
1000.00,49.253
1001.00,49.237
1002.00,49.236
1003.00,49.216
1004.00,49.221
1005.00,49.167
1006.00,49.225
1007.00,49.189
1008.00,49.152
1009.00,49.143
1010.00,49.165
1011.00,49.138
1012.00,49.107
1013.00,49.121
1014.00,49.090
1015.00,49.103
1016.00,49.048
1017.00,49.042
1018.00,49.042
1019.00,48.995
1020.00,49.009
1021.00,48.973
1022.00,48.974
1023.00,48.927
1024.00,48.935
1025.00,48.914
1026.00,48.900
1027.00,48.867
1028.00,48.871
1029.00,48.869
1030.00,48.822
1031.00,48.845
1032.00,48.808
1033.00,48.806
1034.00,48.767
1035.00,48.722
1036.00,48.704
1037.00,48.693
1038.00,48.670
1039.00,48.637
1040.00,48.645
1041.00,48.601
1042.00,48.619
1043.00,48.586
1044.00,48.609
1045.00,48.604
1046.00,48.572
1047.00,48.619
1048.00,48.616
1049.00,48.626
1050.00,48.622
1051.00,48.660
1052.00,48.637
1053.00,48.672
1054.00,48.656
1055.00,48.703
1056.00,48.744
1057.00,48.677
1058.00,48.674
1059.00,48.664
1060.00,48.675
1061.00,48.645
1062.00,48.655
1063.00,48.645
1064.00,48.653
1065.00,48.634
1066.00,48.607
1067.00,48.627
1068.00,48.667
1069.00,48.612
1070.00,48.644
1071.00,48.622
1072.00,48.621
1073.00,48.584
1074.00,48.575
1075.00,48.571
1076.00,48.580
1077.00,48.534
1078.00,48.525
1079.00,48.531
1080.00,48.531
1081.00,48.529
1082.00,48.503
1083.00,48.510
1084.00,48.501
1085.00,48.494
1086.00,48.478
1087.00,48.482
1088.00,48.451
1089.00,48.459
1090.00,48.445
1091.00,48.467
1092.00,48.447
1093.00,48.433
1094.00,48.412
1095.00,48.409
1096.00,48.374
1097.00,48.398
1098.00,48.390
1099.00,48.386
1100.00,48.376
1101.00,48.379
1102.00,48.341
1103.00,48.362
1104.00,48.329
1105.00,48.338
1106.00,48.315
1107.00,48.314
1108.00,48.295
1109.00,48.295
1110.00,48.295
1111.00,48.294
1112.00,48.274
1113.00,48.277
1114.00,48.264
1115.00,48.250
1116.00,48.227
1117.00,48.228
1118.00,48.229
1119.00,48.236
1120.00,48.220
1121.00,48.228
1122.00,48.208
1123.00,48.184
1124.00,48.183
1125.00,48.194
1126.00,48.166
1127.00,48.185
1128.00,48.159
1129.00,48.146
1130.00,48.118
1131.00,48.130
1132.00,48.098
1133.00,48.141
1134.00,48.107
1135.00,48.103
1136.00,48.105
1137.00,48.101
1138.00,48.104
1139.00,48.123
1140.00,48.103
1141.00,48.108
1142.00,48.096
1143.00,48.116
1144.00,48.077
1145.00,48.075
1146.00,48.056
1147.00,48.079
1148.00,48.042
1149.00,48.073
1150.00,48.074
1151.00,48.074
1152.00,48.063
1153.00,48.078
1154.00,48.045
1155.00,48.075
1156.00,48.043
1157.00,48.068
1158.00,48.055
1159.00,48.054
1160.00,48.060
1161.00,48.074
1162.00,48.048
1163.00,48.038
1164.00,48.042
1165.00,48.018
1166.00,48.041
1167.00,48.006
1168.00,48.045
1169.00,48.031
1170.00,48.019
1171.00,48.010
1172.00,48.015
1173.00,47.988
1174.00,48.005
1175.00,48.010
1176.00,48.007
1177.00,48.013
1178.00,48.008
1179.00,48.023
1180.00,48.008
1181.00,48.013
1182.00,48.013
1183.00,48.029
1184.00,48.009
1185.00,48.048
1186.00,48.010
1187.00,47.986
1188.00,48.009
1189.00,47.991
1190.00,48.002
1191.00,47.995
1192.00,48.018
1193.00,47.999
1194.00,48.032
1195.00,48.003
1196.00,48.044
1197.00,48.043
1198.00,48.012
1199.00,48.016
1200.00,48.011
1201.00,48.052
1202.00,48.013
1203.00,48.022
1204.00,48.024
1205.00,48.045
1206.00,48.010
1207.00,48.012
1208.00,48.008
1209.00,48.003
1210.00,48.004
1211.00,47.981
1212.00,48.015
1213.00,47.972
1214.00,48.000
1215.00,47.993
1216.00,47.999
1217.00,48.004
1218.00,47.997
1219.00,48.024
1220.00,47.982
1221.00,48.017
1222.00,47.979
1223.00,48.021
1224.00,48.023
1225.00,47.992
1226.00,48.014
1227.00,48.005
1228.00,48.021
1229.00,48.018
1230.00,48.062
1231.00,48.049
1232.00,48.069
1233.00,48.045
1234.00,48.035
1235.00,48.042
1236.00,48.019
1237.00,48.035
1238.00,48.033
1239.00,48.053
1240.00,48.045
1241.00,48.062
1242.00,48.065
1243.00,48.091
1244.00,48.050
1245.00,48.088
1246.00,48.100
1247.00,48.081
1248.00,48.093
1249.00,48.113
1250.00,48.117
1251.00,48.094
1252.00,48.116
1253.00,48.085
1254.00,48.118
1255.00,48.130
1256.00,48.103
1257.00,48.092
1258.00,48.133
1259.00,48.127
1260.00,48.152
1261.00,48.148
1262.00,48.149
1263.00,48.151
1264.00,48.143
1265.00,48.168
1266.00,48.163
1267.00,48.181
1268.00,48.205
1269.00,48.207
1270.00,48.197
1271.00,48.216
1272.00,48.209
1273.00,48.225
1274.00,48.224
1275.00,48.228
1276.00,48.223
1277.00,48.229
1278.00,48.229
1279.00,48.243
1280.00,48.217
1281.00,48.265
1282.00,48.281
1283.00,48.267
1284.00,48.294
1285.00,48.273
1286.00,48.285
1287.00,48.286
1288.00,48.288
1289.00,48.277
1290.00,48.324
1291.00,48.287
1292.00,48.307
1293.00,48.302
1294.00,48.305
1295.00,48.331
1296.00,48.331
1297.00,48.321
1298.00,48.385
1299.00,48.337
1300.00,48.370
1301.00,48.343
1302.00,48.380
1303.00,48.372
1304.00,48.361
1305.00,48.386
1306.00,48.377
1307.00,48.391
1308.00,48.382
1309.00,48.408
1310.00,48.391
1311.00,48.391
1312.00,48.411
1313.00,48.428
1314.00,48.436
1315.00,48.463
1316.00,48.446
1317.00,48.494
1318.00,48.479
1319.00,48.479
1320.00,48.481
1321.00,48.649
1322.00,48.636
1323.00,48.638
1324.00,48.624
1325.00,48.624
1326.00,48.652
1327.00,48.629
1328.00,48.639
1329.00,48.640
1330.00,48.645
1331.00,48.644
1332.00,48.644
1333.00,48.635
1334.00,48.693
1335.00,48.686
1336.00,48.724
1337.00,48.742
1338.00,48.805
1339.00,48.843
1340.00,48.906
1341.00,48.976
1342.00,49.033
1343.00,49.085
1344.00,49.139
1345.00,49.214
1346.00,49.250
1347.00,49.246
1348.00,49.296
1349.00,49.282
1350.00,49.326
1351.00,49.326
1352.00,49.364
1353.00,49.370
1354.00,49.368
1355.00,49.316
1356.00,49.407
1357.00,49.391
1358.00,49.474
1359.00,49.439
1360.00,49.511
1361.00,49.386
1362.00,49.386
1363.00,49.451
1364.00,49.436
1365.00,49.385
1366.00,49.482
1367.00,49.400
1368.00,49.413
1369.00,49.409
1370.00,49.411
1371.00,49.342
1372.00,49.398
1373.00,49.410
1374.00,49.450
1375.00,49.409
1376.00,49.422
1377.00,49.388
1378.00,49.575
1379.00,49.409
1380.00,49.448
1381.00,49.426
1382.00,49.314
1383.00,49.421
1384.00,49.286
1385.00,49.367
1386.00,49.287
1387.00,49.350
1388.00,49.345
1389.00,49.419
1390.00,49.515
1391.00,49.313
1392.00,49.360
1393.00,49.413
1394.00,49.405
1395.00,49.281
1396.00,49.322
1397.00,49.462
1398.00,49.427
1399.00,49.335
1400.00,49.382
1401.00,49.379
1402.00,49.490
1403.00,49.353
1404.00,49.415
1405.00,49.435
1406.00,49.475
1407.00,49.316
1408.00,49.435
1409.00,49.426
1410.00,49.484
1411.00,49.472
1412.00,49.552
1413.00,49.470
1414.00,49.449
1415.00,49.494
1416.00,49.527
1417.00,49.559
1418.00,49.518
1419.00,49.538
1420.00,49.554
1421.00,49.686
1422.00,49.615
1423.00,49.621
1424.00,49.613
1425.00,49.669
1426.00,49.637
1427.00,49.688
1428.00,49.676
1429.00,49.690
1430.00,49.693
1431.00,49.701
1432.00,49.714
1433.00,49.750
1434.00,49.737
1435.00,49.834
1436.00,49.813
1437.00,49.807
1438.00,49.821
1439.00,49.850
1440.00,49.862
1441.00,49.885
1442.00,49.903
1443.00,49.916
1444.00,50.022
1445.00,49.938
1446.00,49.968
1447.00,50.009
1448.00,50.057
1449.00,50.047
1450.00,50.036
1451.00,50.058
1452.00,50.097
1453.00,50.082
1454.00,50.122
1455.00,50.141
1456.00,50.155
1457.00,50.137
1458.00,50.204
1459.00,50.195
1460.00,50.244
1461.00,50.209
1462.00,50.268
1463.00,50.259
1464.00,50.276
1465.00,50.282
1466.00,50.302
1467.00,50.301
1468.00,50.382
1469.00,50.342
1470.00,50.344
1471.00,50.362
1472.00,50.378
1473.00,50.385
1474.00,50.441
1475.00,50.437
1476.00,50.459
1477.00,50.444
1478.00,50.478
1479.00,50.502
1480.00,50.492
1481.00,50.491
1482.00,50.546
1483.00,50.524
1484.00,50.554
1485.00,50.565
1486.00,50.583
1487.00,50.595
1488.00,50.630
1489.00,50.639
1490.00,50.642
1491.00,50.663
1492.00,50.701
1493.00,50.661
1494.00,50.698
1495.00,50.661
1496.00,50.724
1497.00,50.683
1498.00,50.704
1499.00,50.751
1500.00,50.752
1501.00, 
1502.00, 
1503.00, 
1504.00, 
1505.00, 
1506.00, 
1507.00, 
1508.00, 
1509.00, 
1510.00, 
1511.00, 
1512.00, 
1513.00, 
1514.00, 
1515.00, 
1516.00, 
1517.00, 
1518.00, 
1519.00, 
1520.00, 
1521.00, 
1522.00, 
1523.00, 
1524.00, 
1525.00, 
1526.00, 
1527.00, 
1528.00, 
1529.00, 
1530.00, 
1531.00, 
1532.00, 
1533.00, 
1534.00, 
1535.00, 
1536.00, 
1537.00, 
1538.00, 
1539.00, 
1540.00, 
1541.00, 
1542.00, 
1543.00, 
1544.00, 
1545.00, 
1546.00, 
1547.00, 
1548.00, 
1549.00, 
1550.00, 
1551.00, 
1552.00, 
1553.00, 
1554.00, 
1555.00, 
1556.00, 
1557.00, 
1558.00, 
1559.00, 
1560.00, 
1561.00, 
1562.00, 
1563.00, 
1564.00, 
1565.00, 
1566.00, 
1567.00, 
1568.00, 
1569.00, 
1570.00, 
1571.00, 
1572.00, 
1573.00, 
1574.00, 
1575.00, 
1576.00, 
1577.00, 
1578.00, 
1579.00, 
1580.00, 
1581.00, 
1582.00, 
1583.00, 
1584.00, 
1585.00, 
1586.00, 
1587.00, 
1588.00, 
1589.00, 
1590.00, 
1591.00, 
1592.00, 
1593.00, 
1594.00, 
1595.00, 
1596.00, 
1597.00, 
1598.00, 
1599.00, 
1600.00, 
1601.00, 
1602.00, 
1603.00, 
1604.00, 
1605.00, 
1606.00, 
1607.00, 
1608.00, 
1609.00, 
1610.00, 
1611.00, 
1612.00, 
1613.00, 
1614.00, 
1615.00, 
1616.00, 
1617.00, 
1618.00, 
1619.00, 
1620.00, 
1621.00, 
1622.00, 
1623.00, 
1624.00, 
1625.00, 
1626.00, 
1627.00, 
1628.00, 
1629.00, 
1630.00, 
1631.00, 
1632.00, 
1633.00, 
1634.00, 
1635.00, 
1636.00, 
1637.00, 
1638.00, 
1639.00, 
1640.00, 
1641.00, 
1642.00, 
1643.00, 
1644.00, 
1645.00, 
1646.00, 
1647.00, 
1648.00, 
1649.00, 
1650.00, 
1651.00, 
1652.00, 
1653.00, 
1654.00, 
1655.00, 
1656.00, 
1657.00, 
1658.00, 
1659.00, 
1660.00, 
1661.00, 
1662.00, 
1663.00, 
1664.00, 
1665.00, 
1666.00, 
1667.00, 
1668.00, 
1669.00, 
1670.00, 
1671.00, 
1672.00, 
1673.00, 
1674.00, 
1675.00, 
1676.00, 
1677.00, 
1678.00, 
1679.00, 
1680.00, 
1681.00, 
1682.00, 
1683.00, 
1684.00, 
1685.00, 
1686.00, 
1687.00, 
1688.00, 
1689.00, 
1690.00, 
1691.00, 
1692.00, 
1693.00, 
1694.00, 
1695.00, 
1696.00, 
1697.00, 
1698.00, 
1699.00, 
1700.00, 
1701.00, 
1702.00, 
1703.00, 
1704.00, 
1705.00, 
1706.00, 
1707.00, 
1708.00, 
1709.00, 
1710.00, 
1711.00, 
1712.00, 
1713.00, 
1714.00, 
1715.00, 
1716.00, 
1717.00, 
1718.00, 
1719.00, 
1720.00, 
1721.00, 
1722.00, 
1723.00, 
1724.00, 
1725.00, 
1726.00, 
1727.00, 
1728.00, 
1729.00, 
1730.00, 
1731.00, 
1732.00, 
1733.00, 
1734.00, 
1735.00, 
1736.00, 
1737.00, 
1738.00, 
1739.00, 
1740.00, 
1741.00, 
1742.00, 
1743.00, 
1744.00, 
1745.00, 
1746.00, 
1747.00, 
1748.00, 
1749.00, 
1750.00, 
1751.00, 
1752.00, 
1753.00, 
1754.00, 
1755.00, 
1756.00, 
1757.00, 
1758.00, 
1759.00, 
1760.00, 
1761.00, 
1762.00, 
1763.00, 
1764.00, 
1765.00, 
1766.00, 
1767.00, 
1768.00, 
1769.00, 
1770.00, 
1771.00, 
1772.00, 
1773.00, 
1774.00, 
1775.00, 
1776.00, 
1777.00, 
1778.00, 
1779.00, 
1780.00, 
1781.00, 
1782.00, 
1783.00, 
1784.00, 
1785.00, 
1786.00, 
1787.00, 
1788.00, 
1789.00, 
1790.00, 
1791.00, 
1792.00, 
1793.00, 
1794.00, 
1795.00, 
1796.00, 
1797.00, 
1798.00, 
1799.00, 
1800.00, 
1801.00, 
1802.00, 
1803.00, 
1804.00, 
1805.00, 
1806.00, 
1807.00, 
1808.00, 
1809.00, 
1810.00, 
1811.00, 
1812.00, 
1813.00, 
1814.00, 
1815.00, 
1816.00, 
1817.00, 
1818.00, 
1819.00, 
1820.00, 
1821.00, 
1822.00, 
1823.00, 
1824.00, 
1825.00, 
1826.00, 
1827.00, 
1828.00, 
1829.00, 
1830.00, 
1831.00, 
1832.00, 
1833.00, 
1834.00, 
1835.00, 
1836.00, 
1837.00, 
1838.00, 
1839.00, 
1840.00, 
1841.00, 
1842.00, 
1843.00, 
1844.00, 
1845.00, 
1846.00, 
1847.00, 
1848.00, 
1849.00, 
1850.00, 
1851.00, 
1852.00, 
1853.00, 
1854.00, 
1855.00, 
1856.00, 
1857.00, 
1858.00, 
1859.00, 
1860.00, 
1861.00, 
1862.00, 
1863.00, 
1864.00, 
1865.00, 
1866.00, 
1867.00, 
1868.00, 
1869.00, 
1870.00, 
1871.00, 
1872.00, 
1873.00, 
1874.00, 
1875.00, 
1876.00, 
1877.00, 
1878.00, 
1879.00, 
1880.00, 
1881.00, 
1882.00, 
1883.00, 
1884.00, 
1885.00, 
1886.00, 
1887.00, 
1888.00, 
1889.00, 
1890.00, 
1891.00, 
1892.00, 
1893.00, 
1894.00, 
1895.00, 
1896.00, 
1897.00, 
1898.00, 
1899.00, 
1900.00, 
1901.00, 
1902.00, 
1903.00, 
1904.00, 
1905.00, 
1906.00, 
1907.00, 
1908.00, 
1909.00, 
1910.00, 
1911.00, 
1912.00, 
1913.00, 
1914.00, 
1915.00, 
1916.00, 
1917.00, 
1918.00, 
1919.00, 
1920.00, 
1921.00, 
1922.00, 
1923.00, 
1924.00, 
1925.00, 
1926.00, 
1927.00, 
1928.00, 
1929.00, 
1930.00, 
1931.00, 
1932.00, 
1933.00, 
1934.00, 
1935.00, 
1936.00, 
1937.00, 
1938.00, 
1939.00, 
1940.00, 
1941.00, 
1942.00, 
1943.00, 
1944.00, 
1945.00, 
1946.00, 
1947.00, 
1948.00, 
1949.00, 
1950.00, 
1951.00, 
1952.00, 
1953.00, 
1954.00, 
1955.00, 
1956.00, 
1957.00, 
1958.00, 
1959.00, 
1960.00, 
1961.00, 
1962.00, 
1963.00, 
1964.00, 
1965.00, 
1966.00, 
1967.00, 
1968.00, 
1969.00, 
1970.00, 
1971.00, 
1972.00, 
1973.00, 
1974.00, 
1975.00, 
1976.00, 
1977.00, 
1978.00, 
1979.00, 
1980.00, 
1981.00, 
1982.00, 
1983.00, 
1984.00, 
1985.00, 
1986.00, 
1987.00, 
1988.00, 
1989.00, 
1990.00, 
1991.00, 
1992.00, 
1993.00, 
1994.00, 
1995.00, 
1996.00, 
1997.00, 
1998.00, 
1999.00, 
2000.00, 
2001.00, 
2002.00, 
2003.00, 
2004.00, 
2005.00, 
2006.00, 
2007.00, 
2008.00, 
2009.00, 
2010.00, 
2011.00, 
2012.00, 
2013.00, 
2014.00, 
2015.00, 
2016.00, 
2017.00, 
2018.00, 
2019.00, 
2020.00, 
2021.00, 
2022.00, 
2023.00, 
2024.00, 
2025.00, 
2026.00, 
2027.00, 
2028.00, 
2029.00, 
2030.00, 
2031.00, 
2032.00, 
2033.00, 
2034.00, 
2035.00, 
2036.00, 
2037.00, 
2038.00, 
2039.00, 
2040.00, 
2041.00, 
2042.00, 
2043.00, 
2044.00, 
2045.00, 
2046.00, 
2047.00, 
2048.00, 
2049.00, 
2050.00, 
2051.00, 
2052.00, 
2053.00, 
2054.00, 
2055.00, 
2056.00, 
2057.00, 
2058.00, 
2059.00, 
2060.00, 
2061.00, 
2062.00, 
2063.00, 
2064.00, 
2065.00, 
2066.00, 
2067.00, 
2068.00, 
2069.00, 
2070.00, 
2071.00, 
2072.00, 
2073.00, 
2074.00, 
2075.00, 
2076.00, 
2077.00, 
2078.00, 
2079.00, 
2080.00, 
2081.00, 
2082.00, 
2083.00, 
2084.00, 
2085.00, 
2086.00, 
2087.00, 
2088.00, 
2089.00, 
2090.00, 
2091.00, 
2092.00, 
2093.00, 
2094.00, 
2095.00, 
2096.00, 
2097.00, 
2098.00, 
2099.00, 
2100.00, 
2101.00, 
2102.00, 
2103.00, 
2104.00, 
2105.00, 
2106.00, 
2107.00, 
2108.00, 
2109.00, 
2110.00, 
2111.00, 
2112.00, 
2113.00, 
2114.00, 
2115.00, 
2116.00, 
2117.00, 
2118.00, 
2119.00, 
2120.00, 
2121.00, 
2122.00, 
2123.00, 
2124.00, 
2125.00, 
2126.00, 
2127.00, 
2128.00, 
2129.00, 
2130.00, 
2131.00, 
2132.00, 
2133.00, 
2134.00, 
2135.00, 
2136.00, 
2137.00, 
2138.00, 
2139.00, 
2140.00, 
2141.00, 
2142.00, 
2143.00, 
2144.00, 
2145.00, 
2146.00, 
2147.00, 
2148.00, 
2149.00, 
2150.00, 
2151.00, 
2152.00, 
2153.00, 
2154.00, 
2155.00, 
2156.00, 
2157.00, 
2158.00, 
2159.00, 
2160.00, 
2161.00, 
2162.00, 
2163.00, 
2164.00, 
2165.00, 
2166.00, 
2167.00, 
2168.00, 
2169.00, 
2170.00, 
2171.00, 
2172.00, 
2173.00, 
2174.00, 
2175.00, 
2176.00, 
2177.00, 
2178.00, 
2179.00, 
2180.00, 
2181.00, 
2182.00, 
2183.00, 
2184.00, 
2185.00, 
2186.00, 
2187.00, 
2188.00, 
2189.00, 
2190.00, 
2191.00, 
2192.00, 
2193.00, 
2194.00, 
2195.00, 
2196.00, 
2197.00, 
2198.00, 
2199.00, 
2200.00, 
2201.00, 
2202.00, 
2203.00, 
2204.00, 
2205.00, 
2206.00, 
2207.00, 
2208.00, 
2209.00, 
2210.00, 
2211.00, 
2212.00, 
2213.00, 
2214.00, 
2215.00, 
2216.00, 
2217.00, 
2218.00, 
2219.00, 
2220.00, 
2221.00, 
2222.00, 
2223.00, 
2224.00, 
2225.00, 
2226.00, 
2227.00, 
2228.00, 
2229.00, 
2230.00, 
2231.00, 
2232.00, 
2233.00, 
2234.00, 
2235.00, 
2236.00, 
2237.00, 
2238.00, 
2239.00, 
2240.00, 
2241.00, 
2242.00, 
2243.00, 
2244.00, 
2245.00, 
2246.00, 
2247.00, 
2248.00, 
2249.00, 
2250.00, 
2251.00, 
2252.00, 
2253.00, 
2254.00, 
2255.00, 
2256.00, 
2257.00, 
2258.00, 
2259.00, 
2260.00, 
2261.00, 
2262.00, 
2263.00, 
2264.00, 
2265.00, 
2266.00, 
2267.00, 
2268.00, 
2269.00, 
2270.00, 
2271.00, 
2272.00, 
2273.00, 
2274.00, 
2275.00, 
2276.00, 
2277.00, 
2278.00, 
2279.00, 
2280.00, 
2281.00, 
2282.00, 
2283.00, 
2284.00, 
2285.00, 
2286.00, 
2287.00, 
2288.00, 
2289.00, 
2290.00, 
2291.00, 
2292.00, 
2293.00, 
2294.00, 
2295.00, 
2296.00, 
2297.00, 
2298.00, 
2299.00, 
2300.00, 
2301.00, 
2302.00, 
2303.00, 
2304.00, 
2305.00, 
2306.00, 
2307.00, 
2308.00, 
2309.00, 
2310.00, 
2311.00, 
2312.00, 
2313.00, 
2314.00, 
2315.00, 
2316.00, 
2317.00, 
2318.00, 
2319.00, 
2320.00, 
2321.00, 
2322.00, 
2323.00, 
2324.00, 
2325.00, 
2326.00, 
2327.00, 
2328.00, 
2329.00, 
2330.00, 
2331.00, 
2332.00, 
2333.00, 
2334.00, 
2335.00, 
2336.00, 
2337.00, 
2338.00, 
2339.00, 
2340.00, 
2341.00, 
2342.00, 
2343.00, 
2344.00, 
2345.00, 
2346.00, 
2347.00, 
2348.00, 
2349.00, 
2350.00, 
2351.00, 
2352.00, 
2353.00, 
2354.00, 
2355.00, 
2356.00, 
2357.00, 
2358.00, 
2359.00, 
2360.00, 
2361.00, 
2362.00, 
2363.00, 
2364.00, 
2365.00, 
2366.00, 
2367.00, 
2368.00, 
2369.00, 
2370.00, 
2371.00, 
2372.00, 
2373.00, 
2374.00, 
2375.00, 
2376.00, 
2377.00, 
2378.00, 
2379.00, 
2380.00, 
2381.00, 
2382.00, 
2383.00, 
2384.00, 
2385.00, 
2386.00, 
2387.00, 
2388.00, 
2389.00, 
2390.00, 
2391.00, 
2392.00, 
2393.00, 
2394.00, 
2395.00, 
2396.00, 
2397.00, 
2398.00, 
2399.00, 
2400.00, 
2401.00, 
2402.00, 
2403.00, 
2404.00, 
2405.00, 
2406.00, 
2407.00, 
2408.00, 
2409.00, 
2410.00, 
2411.00, 
2412.00, 
2413.00, 
2414.00, 
2415.00, 
2416.00, 
2417.00, 
2418.00, 
2419.00, 
2420.00, 
2421.00, 
2422.00, 
2423.00, 
2424.00, 
2425.00, 
2426.00, 
2427.00, 
2428.00, 
2429.00, 
2430.00, 
2431.00, 
2432.00, 
2433.00, 
2434.00, 
2435.00, 
2436.00, 
2437.00, 
2438.00, 
2439.00, 
2440.00, 
2441.00, 
2442.00, 
2443.00, 
2444.00, 
2445.00, 
2446.00, 
2447.00, 
2448.00, 
2449.00, 
2450.00, 
2451.00, 
2452.00, 
2453.00, 
2454.00, 
2455.00, 
2456.00, 
2457.00, 
2458.00, 
2459.00, 
2460.00, 
2461.00, 
2462.00, 
2463.00, 
2464.00, 
2465.00, 
2466.00, 
2467.00, 
2468.00, 
2469.00, 
2470.00, 
2471.00, 
2472.00, 
2473.00, 
2474.00, 
2475.00, 
2476.00, 
2477.00, 
2478.00, 
2479.00, 
2480.00, 
2481.00, 
2482.00, 
2483.00, 
2484.00, 
2485.00, 
2486.00, 
2487.00, 
2488.00, 
2489.00, 
2490.00, 
2491.00, 
2492.00, 
2493.00, 
2494.00, 
2495.00, 
2496.00, 
2497.00, 
2498.00, 
2499.00, 
2500.00, 
2501.00, 
2502.00, 
2503.00, 
2504.00, 
2505.00, 
2506.00, 
2507.00, 
2508.00, 
2509.00, 
2510.00, 
2511.00, 
2512.00, 
2513.00, 
2514.00, 
2515.00, 
2516.00, 
2517.00, 
2518.00, 
2519.00, 
2520.00, 
2521.00, 
2522.00, 
2523.00, 
2524.00, 
2525.00, 
2526.00, 
2527.00, 
2528.00, 
2529.00, 
2530.00, 
2531.00, 
2532.00, 
2533.00, 
2534.00, 
2535.00, 
2536.00, 
2537.00, 
2538.00, 
2539.00, 
2540.00, 
2541.00, 
2542.00, 
2543.00, 
2544.00, 
2545.00, 
2546.00, 
2547.00, 
2548.00, 
2549.00, 
2550.00, 
2551.00, 
2552.00, 
2553.00, 
2554.00, 
2555.00, 
2556.00, 
2557.00, 
2558.00, 
2559.00, 
2560.00, 
2561.00, 
2562.00, 
2563.00, 
2564.00, 
2565.00, 
2566.00, 
2567.00, 
2568.00, 
2569.00, 
2570.00, 
2571.00, 
2572.00, 
2573.00, 
2574.00, 
2575.00, 
2576.00, 
2577.00, 
2578.00, 
2579.00, 
2580.00, 
2581.00, 
2582.00, 
2583.00, 
2584.00, 
2585.00, 
2586.00, 
2587.00, 
2588.00, 
2589.00, 
2590.00, 
2591.00, 
2592.00, 
2593.00, 
2594.00, 
2595.00, 
2596.00, 
2597.00, 
2598.00, 
2599.00, 
2600.00, 
