"1cP4 - RawData"
"Wavelength nm.","T%"
200.00,-0.000
201.00,0.001
202.00,0.002
203.00,0.003
204.00,0.000
205.00,0.001
206.00,0.004
207.00,0.002
208.00,0.002
209.00,0.001
210.00,0.002
211.00,0.000
212.00,0.002
213.00,0.002
214.00,0.000
215.00,0.002
216.00,0.002
217.00,-0.000
218.00,-0.002
219.00,-0.002
220.00,-0.000
221.00,0.002
222.00,0.001
223.00,0.001
224.00,0.000
225.00,0.001
226.00,0.000
227.00,0.001
228.00,0.000
229.00,0.001
230.00,0.001
231.00,0.000
232.00,0.001
233.00,-0.000
234.00,-0.000
235.00,-0.000
236.00,-0.000
237.00,0.001
238.00,0.001
239.00,-0.002
240.00,-0.002
241.00,0.001
242.00,-0.001
243.00,-0.001
244.00,0.001
245.00,0.002
246.00,-0.001
247.00,-0.000
248.00,0.001
249.00,0.001
250.00,-0.000
251.00,0.000
252.00,0.000
253.00,-0.001
254.00,0.000
255.00,0.002
256.00,0.000
257.00,0.001
258.00,0.001
259.00,0.000
260.00,0.000
261.00,-0.001
262.00,0.004
263.00,0.000
264.00,-0.000
265.00,-0.000
266.00,0.000
267.00,0.000
268.00,-0.000
269.00,-0.000
270.00,0.000
271.00,0.001
272.00,0.001
273.00,0.001
274.00,0.000
275.00,0.000
276.00,0.001
277.00,-0.001
278.00,-0.001
279.00,-0.002
280.00,-0.001
281.00,0.000
282.00,-0.001
283.00,0.001
284.00,0.000
285.00,0.001
286.00,0.000
287.00,0.002
288.00,0.001
289.00,0.001
290.00,0.001
291.00,0.001
292.00,-0.003
293.00,0.001
294.00,0.001
295.00,-0.001
296.00,-0.001
297.00,0.001
298.00,0.001
299.00,0.000
300.00,0.000
301.00,0.001
302.00,0.000
303.00,-0.000
304.00,0.001
305.00,0.001
306.00,0.001
307.00,0.001
308.00,0.006
309.00,0.009
310.00,0.016
311.00,0.024
312.00,0.039
313.00,0.055
314.00,0.083
315.00,0.124
316.00,0.177
317.00,0.250
318.00,0.338
319.00,0.462
320.00,0.584
321.00,0.790
322.00,1.005
323.00,1.262
324.00,1.561
325.00,1.896
326.00,2.231
327.00,2.635
328.00,3.073
329.00,3.545
330.00,4.062
331.00,4.585
332.00,5.165
333.00,5.782
334.00,6.357
335.00,6.980
336.00,7.611
337.00,8.235
338.00,8.867
339.00,9.444
340.00,10.082
341.00,10.717
342.00,11.279
343.00,11.844
344.00,12.360
345.00,12.928
346.00,13.424
347.00,13.858
348.00,14.302
349.00,14.717
350.00,15.089
351.00,15.479
352.00,15.792
353.00,16.109
354.00,16.424
355.00,16.718
356.00,16.978
357.00,17.248
358.00,17.456
359.00,17.719
360.00,17.888
361.00,18.035
362.00,18.195
363.00,18.366
364.00,18.395
365.00,18.546
366.00,18.609
367.00,18.694
368.00,18.723
369.00,18.759
370.00,18.818
371.00,18.845
372.00,18.778
373.00,18.763
374.00,18.771
375.00,18.738
376.00,18.649
377.00,18.525
378.00,18.453
379.00,18.347
380.00,18.327
381.00,18.313
382.00,18.301
383.00,18.305
384.00,18.306
385.00,18.360
386.00,18.351
387.00,18.491
388.00,18.606
389.00,18.505
390.00,18.554
391.00,18.581
392.00,18.592
393.00,18.622
394.00,18.631
395.00,18.681
396.00,18.625
397.00,18.641
398.00,18.638
399.00,18.636
400.00,18.627
401.00,18.617
402.00,18.617
403.00,18.587
404.00,18.588
405.00,18.565
406.00,18.559
407.00,18.518
408.00,18.491
409.00,18.445
410.00,18.379
411.00,18.421
412.00,18.382
413.00,18.360
414.00,18.335
415.00,18.364
416.00,18.395
417.00,18.364
418.00,18.406
419.00,18.499
420.00,18.520
421.00,18.512
422.00,18.520
423.00,18.558
424.00,18.604
425.00,18.645
426.00,18.641
427.00,18.701
428.00,18.723
429.00,18.789
430.00,18.820
431.00,18.904
432.00,18.887
433.00,18.948
434.00,19.005
435.00,19.077
436.00,19.153
437.00,19.202
438.00,19.281
439.00,19.302
440.00,19.386
441.00,19.477
442.00,19.564
443.00,19.635
444.00,19.741
445.00,19.780
446.00,19.918
447.00,19.989
448.00,20.105
449.00,20.166
450.00,20.307
451.00,20.353
452.00,20.498
453.00,20.632
454.00,20.691
455.00,20.843
456.00,20.952
457.00,21.076
458.00,21.141
459.00,21.302
460.00,21.432
461.00,21.577
462.00,21.671
463.00,21.818
464.00,21.952
465.00,22.097
466.00,22.208
467.00,22.381
468.00,22.452
469.00,22.599
470.00,22.661
471.00,22.757
472.00,22.912
473.00,22.990
474.00,23.140
475.00,23.240
476.00,23.355
477.00,23.515
478.00,23.578
479.00,23.811
480.00,23.930
481.00,24.076
482.00,24.221
483.00,24.411
484.00,24.548
485.00,24.703
486.00,24.860
487.00,25.040
488.00,25.150
489.00,25.348
490.00,25.498
491.00,25.601
492.00,25.874
493.00,26.018
494.00,25.986
495.00,26.146
496.00,26.303
497.00,26.389
498.00,26.567
499.00,26.689
500.00,26.833
501.00,26.979
502.00,27.111
503.00,27.291
504.00,27.314
505.00,27.463
506.00,27.588
507.00,27.673
508.00,27.814
509.00,28.038
510.00,28.130
511.00,28.180
512.00,28.430
513.00,28.569
514.00,28.638
515.00,28.792
516.00,28.901
517.00,29.025
518.00,29.142
519.00,29.219
520.00,29.304
521.00,29.402
522.00,29.515
523.00,29.546
524.00,29.655
525.00,29.783
526.00,29.923
527.00,29.993
528.00,30.089
529.00,30.278
530.00,30.418
531.00,30.532
532.00,30.567
533.00,30.720
534.00,30.812
535.00,30.922
536.00,30.972
537.00,31.048
538.00,31.135
539.00,31.157
540.00,31.229
541.00,31.285
542.00,31.374
543.00,31.421
544.00,31.516
545.00,31.646
546.00,31.634
547.00,31.777
548.00,31.890
549.00,31.920
550.00,32.039
551.00,32.108
552.00,32.200
553.00,32.214
554.00,32.280
555.00,32.300
556.00,32.397
557.00,32.501
558.00,32.530
559.00,32.602
560.00,32.707
561.00,32.782
562.00,32.836
563.00,32.884
564.00,32.926
565.00,32.976
566.00,32.991
567.00,32.981
568.00,33.101
569.00,33.150
570.00,33.181
571.00,33.239
572.00,33.269
573.00,33.249
574.00,33.263
575.00,33.277
576.00,33.308
577.00,33.355
578.00,33.492
579.00,33.587
580.00,33.573
581.00,33.665
582.00,33.793
583.00,33.818
584.00,33.938
585.00,34.008
586.00,34.014
587.00,34.107
588.00,34.099
589.00,34.052
590.00,34.171
591.00,34.211
592.00,34.182
593.00,34.222
594.00,34.359
595.00,34.419
596.00,34.454
597.00,34.520
598.00,34.570
599.00,34.587
600.00,34.691
601.00,34.715
602.00,34.713
603.00,34.770
604.00,34.800
605.00,34.891
606.00,34.938
607.00,34.926
608.00,35.165
609.00,35.243
610.00,35.101
611.00,35.130
612.00,35.180
613.00,35.291
614.00,35.318
615.00,35.438
616.00,35.542
617.00,35.539
618.00,35.602
619.00,35.698
620.00,35.734
621.00,35.685
622.00,35.758
623.00,35.859
624.00,35.981
625.00,36.006
626.00,36.064
627.00,36.148
628.00,36.163
629.00,36.206
630.00,36.271
631.00,36.367
632.00,36.402
633.00,36.590
634.00,36.670
635.00,36.697
636.00,36.786
637.00,36.877
638.00,36.956
639.00,37.081
640.00,37.139
641.00,37.166
642.00,37.252
643.00,37.293
644.00,37.412
645.00,37.539
646.00,37.603
647.00,37.707
648.00,37.802
649.00,37.748
650.00,37.891
651.00,38.039
652.00,38.091
653.00,38.035
654.00,38.372
655.00,38.260
656.00,38.747
657.00,38.676
658.00,38.717
659.00,38.867
660.00,38.919
661.00,38.981
662.00,39.079
663.00,39.216
664.00,39.458
665.00,39.665
666.00,39.603
667.00,39.647
668.00,39.638
669.00,40.038
670.00,40.263
671.00,40.047
672.00,40.231
673.00,40.442
674.00,40.445
675.00,40.655
676.00,40.833
677.00,40.966
678.00,40.725
679.00,41.015
680.00,41.099
681.00,41.242
682.00,41.367
683.00,41.357
684.00,41.453
685.00,41.685
686.00,41.677
687.00,41.834
688.00,41.919
689.00,41.893
690.00,42.253
691.00,42.515
692.00,42.207
693.00,42.274
694.00,42.504
695.00,42.700
696.00,42.763
697.00,42.778
698.00,42.788
699.00,43.171
700.00,43.232
701.00,43.234
702.00,43.361
703.00,43.607
704.00,43.647
705.00,43.544
706.00,43.665
707.00,43.659
708.00,43.891
709.00,44.453
710.00,44.025
711.00,44.018
712.00,44.237
713.00,44.324
714.00,44.497
715.00,44.476
716.00,44.489
717.00,44.663
718.00,44.848
719.00,44.750
720.00,44.837
721.00,49.278
722.00,49.358
723.00,49.279
724.00,49.331
725.00,49.484
726.00,49.477
727.00,49.511
728.00,49.488
729.00,49.551
730.00,49.642
731.00,49.719
732.00,49.658
733.00,49.792
734.00,49.785
735.00,49.903
736.00,49.898
737.00,49.945
738.00,50.056
739.00,50.091
740.00,50.066
741.00,50.156
742.00,50.209
743.00,50.233
744.00,50.228
745.00,50.291
746.00,50.342
747.00,50.297
748.00,50.264
749.00,50.332
750.00,50.378
751.00,50.403
752.00,50.391
753.00,50.362
754.00,50.445
755.00,50.441
756.00,50.477
757.00,50.563
758.00,50.485
759.00,50.504
760.00,50.535
761.00,50.594
762.00,50.689
763.00,50.667
764.00,50.625
765.00,50.644
766.00,50.719
767.00,50.710
768.00,50.793
769.00,50.735
770.00,50.862
771.00,50.855
772.00,50.812
773.00,50.775
774.00,50.879
775.00,50.901
776.00,50.901
777.00,50.955
778.00,50.958
779.00,51.024
780.00,51.040
781.00,51.009
782.00,50.961
783.00,50.932
784.00,51.067
785.00,50.938
786.00,51.046
787.00,50.984
788.00,50.980
789.00,51.053
790.00,50.911
791.00,51.025
792.00,50.967
793.00,50.960
794.00,50.958
795.00,50.907
796.00,50.985
797.00,50.883
798.00,50.985
799.00,50.916
800.00,50.938
801.00,50.968
802.00,50.884
803.00,50.945
804.00,50.819
805.00,50.933
806.00,50.830
807.00,50.849
808.00,50.988
809.00,50.908
810.00,50.832
811.00,50.842
812.00,50.871
813.00,50.802
814.00,50.879
815.00,50.766
816.00,50.807
817.00,50.817
818.00,50.621
819.00,50.740
820.00,50.783
821.00,50.747
822.00,50.736
823.00,50.739
824.00,50.726
825.00,50.607
826.00,50.659
827.00,50.754
828.00,50.700
829.00,50.666
830.00,50.736
831.00,53.030
832.00,53.041
833.00,53.002
834.00,53.020
835.00,52.991
836.00,52.985
837.00,52.961
838.00,52.940
839.00,52.941
840.00,52.843
841.00,52.886
842.00,52.860
843.00,52.853
844.00,52.884
845.00,52.832
846.00,52.813
847.00,52.809
848.00,52.869
849.00,52.729
850.00,52.782
851.00,52.650
852.00,52.722
853.00,52.626
854.00,52.616
855.00,52.574
856.00,52.622
857.00,52.435
858.00,52.511
859.00,52.524
860.00,52.470
861.00,52.568
862.00,52.438
863.00,52.505
864.00,52.417
865.00,52.490
866.00,52.456
867.00,52.440
868.00,52.448
869.00,52.391
870.00,52.449
871.00,52.378
872.00,52.405
873.00,52.331
874.00,52.409
875.00,52.328
876.00,52.387
877.00,52.342
878.00,52.367
879.00,52.312
880.00,52.349
881.00,52.298
882.00,52.305
883.00,52.417
884.00,52.232
885.00,52.218
886.00,52.247
887.00,52.168
888.00,52.106
889.00,52.304
890.00,52.178
891.00,52.107
892.00,52.115
893.00,52.076
894.00,52.082
895.00,52.063
896.00,52.030
897.00,52.022
898.00,51.987
899.00,52.009
900.00,51.974
901.00,51.886
902.00,52.071
903.00,51.913
904.00,51.918
905.00,51.894
906.00,51.914
907.00,51.870
908.00,51.830
909.00,51.837
910.00,51.811
911.00,51.806
912.00,51.800
913.00,51.767
914.00,51.761
915.00,51.745
916.00,51.723
917.00,51.660
918.00,51.682
919.00,51.671
920.00,51.607
921.00,51.651
922.00,51.629
923.00,51.606
924.00,51.528
925.00,51.572
926.00,51.517
927.00,51.523
928.00,51.459
929.00,51.508
930.00,51.429
931.00,51.457
932.00,51.398
933.00,51.432
934.00,51.384
935.00,51.371
936.00,51.324
937.00,51.346
938.00,51.327
939.00,51.340
940.00,51.269
941.00,51.292
942.00,51.253
943.00,51.265
944.00,51.189
945.00,51.198
946.00,51.202
947.00,51.150
948.00,51.153
949.00,51.117
950.00,51.101
951.00,51.061
952.00,51.082
953.00,51.008
954.00,51.019
955.00,50.951
956.00,50.954
957.00,50.920
958.00,50.940
959.00,50.876
960.00,50.890
961.00,50.886
962.00,50.903
963.00,50.872
964.00,50.849
965.00,50.856
966.00,50.828
967.00,50.828
968.00,50.779
969.00,50.810
970.00,50.773
971.00,50.784
972.00,50.734
973.00,50.788
974.00,50.890
975.00,50.756
976.00,50.801
977.00,50.782
978.00,50.826
979.00,50.783
980.00,50.772
981.00,50.814
982.00,50.737
983.00,50.779
984.00,50.748
985.00,50.783
986.00,50.732
987.00,50.762
988.00,50.700
989.00,50.693
990.00,50.722
991.00,50.708
992.00,50.716
993.00,50.665
994.00,50.655
995.00,50.662
996.00,50.646
997.00,50.632
998.00,50.611
999.00,50.642
1000.00,50.573
1001.00,50.575
1002.00,50.557
1003.00,50.547
1004.00,50.539
1005.00,50.498
1006.00,50.553
1007.00,50.496
1008.00,50.491
1009.00,50.478
1010.00,50.473
1011.00,50.463
1012.00,50.430
1013.00,50.435
1014.00,50.401
1015.00,50.419
1016.00,50.366
1017.00,50.356
1018.00,50.365
1019.00,50.318
1020.00,50.332
1021.00,50.291
1022.00,50.304
1023.00,50.267
1024.00,50.271
1025.00,50.253
1026.00,50.231
1027.00,50.204
1028.00,50.207
1029.00,50.205
1030.00,50.141
1031.00,50.184
1032.00,50.142
1033.00,50.126
1034.00,50.105
1035.00,50.088
1036.00,50.069
1037.00,50.049
1038.00,50.044
1039.00,50.006
1040.00,50.000
1041.00,49.937
1042.00,49.966
1043.00,49.934
1044.00,49.951
1045.00,49.947
1046.00,49.915
1047.00,49.962
1048.00,49.954
1049.00,49.978
1050.00,49.978
1051.00,50.011
1052.00,49.981
1053.00,50.021
1054.00,49.999
1055.00,50.014
1056.00,50.027
1057.00,50.000
1058.00,49.995
1059.00,50.006
1060.00,50.027
1061.00,50.005
1062.00,50.011
1063.00,50.016
1064.00,50.026
1065.00,49.992
1066.00,50.022
1067.00,50.008
1068.00,50.044
1069.00,49.989
1070.00,49.990
1071.00,49.961
1072.00,49.992
1073.00,49.957
1074.00,49.945
1075.00,49.924
1076.00,49.935
1077.00,49.901
1078.00,49.895
1079.00,49.894
1080.00,49.900
1081.00,49.891
1082.00,49.873
1083.00,49.887
1084.00,49.877
1085.00,49.891
1086.00,49.867
1087.00,49.868
1088.00,49.845
1089.00,49.838
1090.00,49.815
1091.00,49.834
1092.00,49.815
1093.00,49.812
1094.00,49.798
1095.00,49.811
1096.00,49.766
1097.00,49.785
1098.00,49.752
1099.00,49.754
1100.00,49.743
1101.00,49.745
1102.00,49.716
1103.00,49.735
1104.00,49.695
1105.00,49.708
1106.00,49.686
1107.00,49.680
1108.00,49.668
1109.00,49.661
1110.00,49.653
1111.00,49.654
1112.00,49.632
1113.00,49.647
1114.00,49.640
1115.00,49.646
1116.00,49.624
1117.00,49.607
1118.00,49.599
1119.00,49.607
1120.00,49.599
1121.00,49.590
1122.00,49.561
1123.00,49.557
1124.00,49.556
1125.00,49.559
1126.00,49.532
1127.00,49.557
1128.00,49.546
1129.00,49.528
1130.00,49.505
1131.00,49.519
1132.00,49.503
1133.00,49.525
1134.00,49.500
1135.00,49.503
1136.00,49.483
1137.00,49.494
1138.00,49.491
1139.00,49.511
1140.00,49.491
1141.00,49.494
1142.00,49.474
1143.00,49.497
1144.00,49.451
1145.00,49.453
1146.00,49.453
1147.00,49.461
1148.00,49.439
1149.00,49.470
1150.00,49.461
1151.00,49.462
1152.00,49.444
1153.00,49.448
1154.00,49.420
1155.00,49.432
1156.00,49.399
1157.00,49.432
1158.00,49.423
1159.00,49.419
1160.00,49.422
1161.00,49.458
1162.00,49.435
1163.00,49.445
1164.00,49.465
1165.00,49.436
1166.00,49.442
1167.00,49.395
1168.00,49.433
1169.00,49.407
1170.00,49.397
1171.00,49.397
1172.00,49.406
1173.00,49.388
1174.00,49.408
1175.00,49.411
1176.00,49.426
1177.00,49.397
1178.00,49.387
1179.00,49.451
1180.00,49.406
1181.00,49.415
1182.00,49.404
1183.00,49.410
1184.00,49.381
1185.00,49.416
1186.00,49.403
1187.00,49.405
1188.00,49.406
1189.00,49.389
1190.00,49.413
1191.00,49.398
1192.00,49.421
1193.00,49.408
1194.00,49.420
1195.00,49.385
1196.00,49.416
1197.00,49.413
1198.00,49.378
1199.00,49.394
1200.00,49.399
1201.00,49.445
1202.00,49.400
1203.00,49.402
1204.00,49.410
1205.00,49.433
1206.00,49.399
1207.00,49.422
1208.00,49.410
1209.00,49.415
1210.00,49.431
1211.00,49.392
1212.00,49.428
1213.00,49.391
1214.00,49.422
1215.00,49.405
1216.00,49.409
1217.00,49.418
1218.00,49.410
1219.00,49.442
1220.00,49.410
1221.00,49.431
1222.00,49.389
1223.00,49.433
1224.00,49.426
1225.00,49.416
1226.00,49.438
1227.00,49.413
1228.00,49.425
1229.00,49.422
1230.00,49.452
1231.00,49.435
1232.00,49.480
1233.00,49.468
1234.00,49.469
1235.00,49.475
1236.00,49.459
1237.00,49.483
1238.00,49.486
1239.00,49.473
1240.00,49.464
1241.00,49.507
1242.00,49.478
1243.00,49.490
1244.00,49.468
1245.00,49.507
1246.00,49.512
1247.00,49.501
1248.00,49.512
1249.00,49.529
1250.00,49.535
1251.00,49.516
1252.00,49.545
1253.00,49.504
1254.00,49.551
1255.00,49.564
1256.00,49.529
1257.00,49.517
1258.00,49.560
1259.00,49.547
1260.00,49.577
1261.00,49.571
1262.00,49.575
1263.00,49.560
1264.00,49.558
1265.00,49.586
1266.00,49.561
1267.00,49.589
1268.00,49.595
1269.00,49.596
1270.00,49.615
1271.00,49.638
1272.00,49.631
1273.00,49.658
1274.00,49.641
1275.00,49.649
1276.00,49.640
1277.00,49.639
1278.00,49.647
1279.00,49.668
1280.00,49.646
1281.00,49.690
1282.00,49.703
1283.00,49.689
1284.00,49.705
1285.00,49.695
1286.00,49.700
1287.00,49.707
1288.00,49.692
1289.00,49.693
1290.00,49.750
1291.00,49.717
1292.00,49.730
1293.00,49.734
1294.00,49.740
1295.00,49.750
1296.00,49.753
1297.00,49.748
1298.00,49.811
1299.00,49.762
1300.00,49.798
1301.00,49.777
1302.00,49.808
1303.00,49.793
1304.00,49.796
1305.00,49.843
1306.00,49.811
1307.00,49.837
1308.00,49.836
1309.00,49.859
1310.00,49.840
1311.00,49.833
1312.00,49.847
1313.00,49.863
1314.00,49.879
1315.00,49.901
1316.00,49.883
1317.00,49.942
1318.00,49.923
1319.00,49.928
1320.00,49.928
1321.00,50.112
1322.00,50.083
1323.00,50.074
1324.00,50.069
1325.00,50.080
1326.00,50.113
1327.00,50.091
1328.00,50.094
1329.00,50.080
1330.00,50.080
1331.00,50.099
1332.00,50.104
1333.00,50.096
1334.00,50.131
1335.00,50.140
1336.00,50.176
1337.00,50.199
1338.00,50.257
1339.00,50.309
1340.00,50.351
1341.00,50.426
1342.00,50.507
1343.00,50.526
1344.00,50.590
1345.00,50.659
1346.00,50.684
1347.00,50.701
1348.00,50.744
1349.00,50.748
1350.00,50.795
1351.00,50.790
1352.00,50.827
1353.00,50.840
1354.00,50.812
1355.00,50.740
1356.00,50.856
1357.00,50.828
1358.00,50.906
1359.00,50.900
1360.00,50.884
1361.00,50.801
1362.00,50.826
1363.00,50.929
1364.00,50.941
1365.00,50.851
1366.00,50.950
1367.00,50.864
1368.00,50.853
1369.00,50.917
1370.00,50.860
1371.00,50.795
1372.00,50.867
1373.00,50.876
1374.00,50.913
1375.00,50.890
1376.00,50.903
1377.00,50.865
1378.00,50.987
1379.00,50.895
1380.00,50.938
1381.00,50.902
1382.00,50.822
1383.00,50.926
1384.00,50.806
1385.00,50.884
1386.00,50.934
1387.00,50.850
1388.00,50.844
1389.00,50.906
1390.00,51.039
1391.00,50.813
1392.00,50.840
1393.00,50.867
1394.00,50.888
1395.00,50.798
1396.00,50.800
1397.00,50.907
1398.00,50.910
1399.00,50.812
1400.00,50.856
1401.00,50.839
1402.00,50.887
1403.00,50.864
1404.00,50.909
1405.00,50.942
1406.00,50.958
1407.00,50.928
1408.00,50.936
1409.00,50.918
1410.00,50.987
1411.00,50.944
1412.00,51.014
1413.00,50.930
1414.00,50.958
1415.00,50.974
1416.00,51.023
1417.00,51.056
1418.00,51.003
1419.00,51.052
1420.00,51.066
1421.00,51.125
1422.00,51.103
1423.00,51.125
1424.00,51.119
1425.00,51.170
1426.00,51.139
1427.00,51.184
1428.00,51.164
1429.00,51.187
1430.00,51.200
1431.00,51.245
1432.00,51.241
1433.00,51.275
1434.00,51.250
1435.00,51.343
1436.00,51.325
1437.00,51.309
1438.00,51.344
1439.00,51.362
1440.00,51.384
1441.00,51.400
1442.00,51.417
1443.00,51.415
1444.00,51.509
1445.00,51.430
1446.00,51.468
1447.00,51.498
1448.00,51.550
1449.00,51.543
1450.00,51.539
1451.00,51.554
1452.00,51.615
1453.00,51.581
1454.00,51.625
1455.00,51.653
1456.00,51.661
1457.00,51.650
1458.00,51.696
1459.00,51.692
1460.00,51.733
1461.00,51.722
1462.00,51.771
1463.00,51.764
1464.00,51.783
1465.00,51.810
1466.00,51.839
1467.00,51.825
1468.00,51.921
1469.00,51.871
1470.00,51.891
1471.00,51.915
1472.00,51.924
1473.00,51.935
1474.00,51.994
1475.00,51.983
1476.00,51.996
1477.00,51.974
1478.00,52.005
1479.00,52.024
1480.00,52.020
1481.00,52.029
1482.00,52.092
1483.00,52.080
1484.00,52.104
1485.00,52.123
1486.00,52.144
1487.00,52.159
1488.00,52.208
1489.00,52.181
1490.00,52.208
1491.00,52.205
1492.00,52.230
1493.00,52.216
1494.00,52.255
1495.00,52.221
1496.00,52.278
1497.00,52.232
1498.00,52.268
1499.00,52.300
1500.00,52.295
1501.00, 
1502.00, 
1503.00, 
1504.00, 
1505.00, 
1506.00, 
1507.00, 
1508.00, 
1509.00, 
1510.00, 
1511.00, 
1512.00, 
1513.00, 
1514.00, 
1515.00, 
1516.00, 
1517.00, 
1518.00, 
1519.00, 
1520.00, 
1521.00, 
1522.00, 
1523.00, 
1524.00, 
1525.00, 
1526.00, 
1527.00, 
1528.00, 
1529.00, 
1530.00, 
1531.00, 
1532.00, 
1533.00, 
1534.00, 
1535.00, 
1536.00, 
1537.00, 
1538.00, 
1539.00, 
1540.00, 
1541.00, 
1542.00, 
1543.00, 
1544.00, 
1545.00, 
1546.00, 
1547.00, 
1548.00, 
1549.00, 
1550.00, 
1551.00, 
1552.00, 
1553.00, 
1554.00, 
1555.00, 
1556.00, 
1557.00, 
1558.00, 
1559.00, 
1560.00, 
1561.00, 
1562.00, 
1563.00, 
1564.00, 
1565.00, 
1566.00, 
1567.00, 
1568.00, 
1569.00, 
1570.00, 
1571.00, 
1572.00, 
1573.00, 
1574.00, 
1575.00, 
1576.00, 
1577.00, 
1578.00, 
1579.00, 
1580.00, 
1581.00, 
1582.00, 
1583.00, 
1584.00, 
1585.00, 
1586.00, 
1587.00, 
1588.00, 
1589.00, 
1590.00, 
1591.00, 
1592.00, 
1593.00, 
1594.00, 
1595.00, 
1596.00, 
1597.00, 
1598.00, 
1599.00, 
1600.00, 
1601.00, 
1602.00, 
1603.00, 
1604.00, 
1605.00, 
1606.00, 
1607.00, 
1608.00, 
1609.00, 
1610.00, 
1611.00, 
1612.00, 
1613.00, 
1614.00, 
1615.00, 
1616.00, 
1617.00, 
1618.00, 
1619.00, 
1620.00, 
1621.00, 
1622.00, 
1623.00, 
1624.00, 
1625.00, 
1626.00, 
1627.00, 
1628.00, 
1629.00, 
1630.00, 
1631.00, 
1632.00, 
1633.00, 
1634.00, 
1635.00, 
1636.00, 
1637.00, 
1638.00, 
1639.00, 
1640.00, 
1641.00, 
1642.00, 
1643.00, 
1644.00, 
1645.00, 
1646.00, 
1647.00, 
1648.00, 
1649.00, 
1650.00, 
1651.00, 
1652.00, 
1653.00, 
1654.00, 
1655.00, 
1656.00, 
1657.00, 
1658.00, 
1659.00, 
1660.00, 
1661.00, 
1662.00, 
1663.00, 
1664.00, 
1665.00, 
1666.00, 
1667.00, 
1668.00, 
1669.00, 
1670.00, 
1671.00, 
1672.00, 
1673.00, 
1674.00, 
1675.00, 
1676.00, 
1677.00, 
1678.00, 
1679.00, 
1680.00, 
1681.00, 
1682.00, 
1683.00, 
1684.00, 
1685.00, 
1686.00, 
1687.00, 
1688.00, 
1689.00, 
1690.00, 
1691.00, 
1692.00, 
1693.00, 
1694.00, 
1695.00, 
1696.00, 
1697.00, 
1698.00, 
1699.00, 
1700.00, 
1701.00, 
1702.00, 
1703.00, 
1704.00, 
1705.00, 
1706.00, 
1707.00, 
1708.00, 
1709.00, 
1710.00, 
1711.00, 
1712.00, 
1713.00, 
1714.00, 
1715.00, 
1716.00, 
1717.00, 
1718.00, 
1719.00, 
1720.00, 
1721.00, 
1722.00, 
1723.00, 
1724.00, 
1725.00, 
1726.00, 
1727.00, 
1728.00, 
1729.00, 
1730.00, 
1731.00, 
1732.00, 
1733.00, 
1734.00, 
1735.00, 
1736.00, 
1737.00, 
1738.00, 
1739.00, 
1740.00, 
1741.00, 
1742.00, 
1743.00, 
1744.00, 
1745.00, 
1746.00, 
1747.00, 
1748.00, 
1749.00, 
1750.00, 
1751.00, 
1752.00, 
1753.00, 
1754.00, 
1755.00, 
1756.00, 
1757.00, 
1758.00, 
1759.00, 
1760.00, 
1761.00, 
1762.00, 
1763.00, 
1764.00, 
1765.00, 
1766.00, 
1767.00, 
1768.00, 
1769.00, 
1770.00, 
1771.00, 
1772.00, 
1773.00, 
1774.00, 
1775.00, 
1776.00, 
1777.00, 
1778.00, 
1779.00, 
1780.00, 
1781.00, 
1782.00, 
1783.00, 
1784.00, 
1785.00, 
1786.00, 
1787.00, 
1788.00, 
1789.00, 
1790.00, 
1791.00, 
1792.00, 
1793.00, 
1794.00, 
1795.00, 
1796.00, 
1797.00, 
1798.00, 
1799.00, 
1800.00, 
1801.00, 
1802.00, 
1803.00, 
1804.00, 
1805.00, 
1806.00, 
1807.00, 
1808.00, 
1809.00, 
1810.00, 
1811.00, 
1812.00, 
1813.00, 
1814.00, 
1815.00, 
1816.00, 
1817.00, 
1818.00, 
1819.00, 
1820.00, 
1821.00, 
1822.00, 
1823.00, 
1824.00, 
1825.00, 
1826.00, 
1827.00, 
1828.00, 
1829.00, 
1830.00, 
1831.00, 
1832.00, 
1833.00, 
1834.00, 
1835.00, 
1836.00, 
1837.00, 
1838.00, 
1839.00, 
1840.00, 
1841.00, 
1842.00, 
1843.00, 
1844.00, 
1845.00, 
1846.00, 
1847.00, 
1848.00, 
1849.00, 
1850.00, 
1851.00, 
1852.00, 
1853.00, 
1854.00, 
1855.00, 
1856.00, 
1857.00, 
1858.00, 
1859.00, 
1860.00, 
1861.00, 
1862.00, 
1863.00, 
1864.00, 
1865.00, 
1866.00, 
1867.00, 
1868.00, 
1869.00, 
1870.00, 
1871.00, 
1872.00, 
1873.00, 
1874.00, 
1875.00, 
1876.00, 
1877.00, 
1878.00, 
1879.00, 
1880.00, 
1881.00, 
1882.00, 
1883.00, 
1884.00, 
1885.00, 
1886.00, 
1887.00, 
1888.00, 
1889.00, 
1890.00, 
1891.00, 
1892.00, 
1893.00, 
1894.00, 
1895.00, 
1896.00, 
1897.00, 
1898.00, 
1899.00, 
1900.00, 
1901.00, 
1902.00, 
1903.00, 
1904.00, 
1905.00, 
1906.00, 
1907.00, 
1908.00, 
1909.00, 
1910.00, 
1911.00, 
1912.00, 
1913.00, 
1914.00, 
1915.00, 
1916.00, 
1917.00, 
1918.00, 
1919.00, 
1920.00, 
1921.00, 
1922.00, 
1923.00, 
1924.00, 
1925.00, 
1926.00, 
1927.00, 
1928.00, 
1929.00, 
1930.00, 
1931.00, 
1932.00, 
1933.00, 
1934.00, 
1935.00, 
1936.00, 
1937.00, 
1938.00, 
1939.00, 
1940.00, 
1941.00, 
1942.00, 
1943.00, 
1944.00, 
1945.00, 
1946.00, 
1947.00, 
1948.00, 
1949.00, 
1950.00, 
1951.00, 
1952.00, 
1953.00, 
1954.00, 
1955.00, 
1956.00, 
1957.00, 
1958.00, 
1959.00, 
1960.00, 
1961.00, 
1962.00, 
1963.00, 
1964.00, 
1965.00, 
1966.00, 
1967.00, 
1968.00, 
1969.00, 
1970.00, 
1971.00, 
1972.00, 
1973.00, 
1974.00, 
1975.00, 
1976.00, 
1977.00, 
1978.00, 
1979.00, 
1980.00, 
1981.00, 
1982.00, 
1983.00, 
1984.00, 
1985.00, 
1986.00, 
1987.00, 
1988.00, 
1989.00, 
1990.00, 
1991.00, 
1992.00, 
1993.00, 
1994.00, 
1995.00, 
1996.00, 
1997.00, 
1998.00, 
1999.00, 
2000.00, 
2001.00, 
2002.00, 
2003.00, 
2004.00, 
2005.00, 
2006.00, 
2007.00, 
2008.00, 
2009.00, 
2010.00, 
2011.00, 
2012.00, 
2013.00, 
2014.00, 
2015.00, 
2016.00, 
2017.00, 
2018.00, 
2019.00, 
2020.00, 
2021.00, 
2022.00, 
2023.00, 
2024.00, 
2025.00, 
2026.00, 
2027.00, 
2028.00, 
2029.00, 
2030.00, 
2031.00, 
2032.00, 
2033.00, 
2034.00, 
2035.00, 
2036.00, 
2037.00, 
2038.00, 
2039.00, 
2040.00, 
2041.00, 
2042.00, 
2043.00, 
2044.00, 
2045.00, 
2046.00, 
2047.00, 
2048.00, 
2049.00, 
2050.00, 
2051.00, 
2052.00, 
2053.00, 
2054.00, 
2055.00, 
2056.00, 
2057.00, 
2058.00, 
2059.00, 
2060.00, 
2061.00, 
2062.00, 
2063.00, 
2064.00, 
2065.00, 
2066.00, 
2067.00, 
2068.00, 
2069.00, 
2070.00, 
2071.00, 
2072.00, 
2073.00, 
2074.00, 
2075.00, 
2076.00, 
2077.00, 
2078.00, 
2079.00, 
2080.00, 
2081.00, 
2082.00, 
2083.00, 
2084.00, 
2085.00, 
2086.00, 
2087.00, 
2088.00, 
2089.00, 
2090.00, 
2091.00, 
2092.00, 
2093.00, 
2094.00, 
2095.00, 
2096.00, 
2097.00, 
2098.00, 
2099.00, 
2100.00, 
2101.00, 
2102.00, 
2103.00, 
2104.00, 
2105.00, 
2106.00, 
2107.00, 
2108.00, 
2109.00, 
2110.00, 
2111.00, 
2112.00, 
2113.00, 
2114.00, 
2115.00, 
2116.00, 
2117.00, 
2118.00, 
2119.00, 
2120.00, 
2121.00, 
2122.00, 
2123.00, 
2124.00, 
2125.00, 
2126.00, 
2127.00, 
2128.00, 
2129.00, 
2130.00, 
2131.00, 
2132.00, 
2133.00, 
2134.00, 
2135.00, 
2136.00, 
2137.00, 
2138.00, 
2139.00, 
2140.00, 
2141.00, 
2142.00, 
2143.00, 
2144.00, 
2145.00, 
2146.00, 
2147.00, 
2148.00, 
2149.00, 
2150.00, 
2151.00, 
2152.00, 
2153.00, 
2154.00, 
2155.00, 
2156.00, 
2157.00, 
2158.00, 
2159.00, 
2160.00, 
2161.00, 
2162.00, 
2163.00, 
2164.00, 
2165.00, 
2166.00, 
2167.00, 
2168.00, 
2169.00, 
2170.00, 
2171.00, 
2172.00, 
2173.00, 
2174.00, 
2175.00, 
2176.00, 
2177.00, 
2178.00, 
2179.00, 
2180.00, 
2181.00, 
2182.00, 
2183.00, 
2184.00, 
2185.00, 
2186.00, 
2187.00, 
2188.00, 
2189.00, 
2190.00, 
2191.00, 
2192.00, 
2193.00, 
2194.00, 
2195.00, 
2196.00, 
2197.00, 
2198.00, 
2199.00, 
2200.00, 
2201.00, 
2202.00, 
2203.00, 
2204.00, 
2205.00, 
2206.00, 
2207.00, 
2208.00, 
2209.00, 
2210.00, 
2211.00, 
2212.00, 
2213.00, 
2214.00, 
2215.00, 
2216.00, 
2217.00, 
2218.00, 
2219.00, 
2220.00, 
2221.00, 
2222.00, 
2223.00, 
2224.00, 
2225.00, 
2226.00, 
2227.00, 
2228.00, 
2229.00, 
2230.00, 
2231.00, 
2232.00, 
2233.00, 
2234.00, 
2235.00, 
2236.00, 
2237.00, 
2238.00, 
2239.00, 
2240.00, 
2241.00, 
2242.00, 
2243.00, 
2244.00, 
2245.00, 
2246.00, 
2247.00, 
2248.00, 
2249.00, 
2250.00, 
2251.00, 
2252.00, 
2253.00, 
2254.00, 
2255.00, 
2256.00, 
2257.00, 
2258.00, 
2259.00, 
2260.00, 
2261.00, 
2262.00, 
2263.00, 
2264.00, 
2265.00, 
2266.00, 
2267.00, 
2268.00, 
2269.00, 
2270.00, 
2271.00, 
2272.00, 
2273.00, 
2274.00, 
2275.00, 
2276.00, 
2277.00, 
2278.00, 
2279.00, 
2280.00, 
2281.00, 
2282.00, 
2283.00, 
2284.00, 
2285.00, 
2286.00, 
2287.00, 
2288.00, 
2289.00, 
2290.00, 
2291.00, 
2292.00, 
2293.00, 
2294.00, 
2295.00, 
2296.00, 
2297.00, 
2298.00, 
2299.00, 
2300.00, 
2301.00, 
2302.00, 
2303.00, 
2304.00, 
2305.00, 
2306.00, 
2307.00, 
2308.00, 
2309.00, 
2310.00, 
2311.00, 
2312.00, 
2313.00, 
2314.00, 
2315.00, 
2316.00, 
2317.00, 
2318.00, 
2319.00, 
2320.00, 
2321.00, 
2322.00, 
2323.00, 
2324.00, 
2325.00, 
2326.00, 
2327.00, 
2328.00, 
2329.00, 
2330.00, 
2331.00, 
2332.00, 
2333.00, 
2334.00, 
2335.00, 
2336.00, 
2337.00, 
2338.00, 
2339.00, 
2340.00, 
2341.00, 
2342.00, 
2343.00, 
2344.00, 
2345.00, 
2346.00, 
2347.00, 
2348.00, 
2349.00, 
2350.00, 
2351.00, 
2352.00, 
2353.00, 
2354.00, 
2355.00, 
2356.00, 
2357.00, 
2358.00, 
2359.00, 
2360.00, 
2361.00, 
2362.00, 
2363.00, 
2364.00, 
2365.00, 
2366.00, 
2367.00, 
2368.00, 
2369.00, 
2370.00, 
2371.00, 
2372.00, 
2373.00, 
2374.00, 
2375.00, 
2376.00, 
2377.00, 
2378.00, 
2379.00, 
2380.00, 
2381.00, 
2382.00, 
2383.00, 
2384.00, 
2385.00, 
2386.00, 
2387.00, 
2388.00, 
2389.00, 
2390.00, 
2391.00, 
2392.00, 
2393.00, 
2394.00, 
2395.00, 
2396.00, 
2397.00, 
2398.00, 
2399.00, 
2400.00, 
2401.00, 
2402.00, 
2403.00, 
2404.00, 
2405.00, 
2406.00, 
2407.00, 
2408.00, 
2409.00, 
2410.00, 
2411.00, 
2412.00, 
2413.00, 
2414.00, 
2415.00, 
2416.00, 
2417.00, 
2418.00, 
2419.00, 
2420.00, 
2421.00, 
2422.00, 
2423.00, 
2424.00, 
2425.00, 
2426.00, 
2427.00, 
2428.00, 
2429.00, 
2430.00, 
2431.00, 
2432.00, 
2433.00, 
2434.00, 
2435.00, 
2436.00, 
2437.00, 
2438.00, 
2439.00, 
2440.00, 
2441.00, 
2442.00, 
2443.00, 
2444.00, 
2445.00, 
2446.00, 
2447.00, 
2448.00, 
2449.00, 
2450.00, 
2451.00, 
2452.00, 
2453.00, 
2454.00, 
2455.00, 
2456.00, 
2457.00, 
2458.00, 
2459.00, 
2460.00, 
2461.00, 
2462.00, 
2463.00, 
2464.00, 
2465.00, 
2466.00, 
2467.00, 
2468.00, 
2469.00, 
2470.00, 
2471.00, 
2472.00, 
2473.00, 
2474.00, 
2475.00, 
2476.00, 
2477.00, 
2478.00, 
2479.00, 
2480.00, 
2481.00, 
2482.00, 
2483.00, 
2484.00, 
2485.00, 
2486.00, 
2487.00, 
2488.00, 
2489.00, 
2490.00, 
2491.00, 
2492.00, 
2493.00, 
2494.00, 
2495.00, 
2496.00, 
2497.00, 
2498.00, 
2499.00, 
2500.00, 
2501.00, 
2502.00, 
2503.00, 
2504.00, 
2505.00, 
2506.00, 
2507.00, 
2508.00, 
2509.00, 
2510.00, 
2511.00, 
2512.00, 
2513.00, 
2514.00, 
2515.00, 
2516.00, 
2517.00, 
2518.00, 
2519.00, 
2520.00, 
2521.00, 
2522.00, 
2523.00, 
2524.00, 
2525.00, 
2526.00, 
2527.00, 
2528.00, 
2529.00, 
2530.00, 
2531.00, 
2532.00, 
2533.00, 
2534.00, 
2535.00, 
2536.00, 
2537.00, 
2538.00, 
2539.00, 
2540.00, 
2541.00, 
2542.00, 
2543.00, 
2544.00, 
2545.00, 
2546.00, 
2547.00, 
2548.00, 
2549.00, 
2550.00, 
2551.00, 
2552.00, 
2553.00, 
2554.00, 
2555.00, 
2556.00, 
2557.00, 
2558.00, 
2559.00, 
2560.00, 
2561.00, 
2562.00, 
2563.00, 
2564.00, 
2565.00, 
2566.00, 
2567.00, 
2568.00, 
2569.00, 
2570.00, 
2571.00, 
2572.00, 
2573.00, 
2574.00, 
2575.00, 
2576.00, 
2577.00, 
2578.00, 
2579.00, 
2580.00, 
2581.00, 
2582.00, 
2583.00, 
2584.00, 
2585.00, 
2586.00, 
2587.00, 
2588.00, 
2589.00, 
2590.00, 
2591.00, 
2592.00, 
2593.00, 
2594.00, 
2595.00, 
2596.00, 
2597.00, 
2598.00, 
2599.00, 
2600.00, 
