"1cP5 - RawData"
"Wavelength nm.","T%"
200.00,0.002
201.00,-0.001
202.00,-0.000
203.00,0.003
204.00,-0.002
205.00,0.001
206.00,0.001
207.00,0.002
208.00,0.001
209.00,-0.002
210.00,-0.000
211.00,0.001
212.00,0.002
213.00,0.001
214.00,0.000
215.00,0.000
216.00,0.005
217.00,-0.001
218.00,0.000
219.00,0.002
220.00,0.001
221.00,0.001
222.00,-0.001
223.00,0.003
224.00,0.002
225.00,-0.001
226.00,0.000
227.00,-0.003
228.00,0.001
229.00,0.000
230.00,0.001
231.00,-0.001
232.00,0.003
233.00,-0.000
234.00,0.001
235.00,0.000
236.00,-0.000
237.00,0.001
238.00,0.001
239.00,-0.000
240.00,0.000
241.00,0.000
242.00,-0.000
243.00,0.002
244.00,0.001
245.00,-0.001
246.00,0.000
247.00,0.002
248.00,-0.001
249.00,-0.001
250.00,0.000
251.00,0.000
252.00,0.001
253.00,-0.002
254.00,-0.001
255.00,0.002
256.00,-0.002
257.00,0.001
258.00,-0.001
259.00,0.001
260.00,0.003
261.00,-0.000
262.00,0.002
263.00,0.000
264.00,-0.001
265.00,-0.000
266.00,-0.001
267.00,0.000
268.00,0.001
269.00,-0.000
270.00,0.001
271.00,-0.000
272.00,0.000
273.00,-0.000
274.00,-0.000
275.00,-0.001
276.00,0.001
277.00,-0.001
278.00,0.001
279.00,-0.001
280.00,0.000
281.00,-0.000
282.00,0.002
283.00,0.001
284.00,0.001
285.00,0.002
286.00,0.001
287.00,0.001
288.00,0.000
289.00,0.001
290.00,0.000
291.00,0.001
292.00,0.001
293.00,0.002
294.00,0.000
295.00,-0.001
296.00,-0.000
297.00,0.001
298.00,0.000
299.00,0.000
300.00,0.000
301.00,-0.000
302.00,-0.000
303.00,-0.000
304.00,0.002
305.00,0.003
306.00,0.001
307.00,0.002
308.00,0.005
309.00,0.010
310.00,0.014
311.00,0.021
312.00,0.036
313.00,0.058
314.00,0.079
315.00,0.114
316.00,0.168
317.00,0.238
318.00,0.325
319.00,0.438
320.00,0.581
321.00,0.759
322.00,0.960
323.00,1.210
324.00,1.500
325.00,1.803
326.00,2.147
327.00,2.539
328.00,2.962
329.00,3.408
330.00,3.918
331.00,4.394
332.00,4.943
333.00,5.520
334.00,6.078
335.00,6.694
336.00,7.309
337.00,7.905
338.00,8.536
339.00,9.097
340.00,9.665
341.00,10.263
342.00,10.729
343.00,11.341
344.00,11.835
345.00,12.430
346.00,12.860
347.00,13.298
348.00,13.683
349.00,14.079
350.00,14.478
351.00,14.809
352.00,15.164
353.00,15.463
354.00,15.738
355.00,16.008
356.00,16.238
357.00,16.493
358.00,16.706
359.00,16.926
360.00,17.136
361.00,17.236
362.00,17.426
363.00,17.566
364.00,17.614
365.00,17.708
366.00,17.745
367.00,17.858
368.00,17.873
369.00,17.933
370.00,17.982
371.00,17.977
372.00,17.919
373.00,17.875
374.00,17.880
375.00,17.845
376.00,17.738
377.00,17.653
378.00,17.539
379.00,17.456
380.00,17.478
381.00,17.426
382.00,17.418
383.00,17.420
384.00,17.459
385.00,17.489
386.00,17.502
387.00,17.590
388.00,17.673
389.00,17.613
390.00,17.643
391.00,17.648
392.00,17.702
393.00,17.678
394.00,17.726
395.00,17.707
396.00,17.678
397.00,17.714
398.00,17.696
399.00,17.713
400.00,17.686
401.00,17.656
402.00,17.678
403.00,17.644
404.00,17.640
405.00,17.605
406.00,17.580
407.00,17.545
408.00,17.538
409.00,17.495
410.00,17.438
411.00,17.447
412.00,17.421
413.00,17.416
414.00,17.373
415.00,17.403
416.00,17.460
417.00,17.391
418.00,17.460
419.00,17.519
420.00,17.567
421.00,17.531
422.00,17.553
423.00,17.610
424.00,17.635
425.00,17.659
426.00,17.664
427.00,17.749
428.00,17.754
429.00,17.792
430.00,17.853
431.00,17.907
432.00,17.931
433.00,17.984
434.00,18.022
435.00,18.089
436.00,18.161
437.00,18.233
438.00,18.291
439.00,18.338
440.00,18.439
441.00,18.487
442.00,18.575
443.00,18.647
444.00,18.718
445.00,18.814
446.00,18.931
447.00,18.993
448.00,19.096
449.00,19.234
450.00,19.317
451.00,19.385
452.00,19.489
453.00,19.617
454.00,19.704
455.00,19.854
456.00,19.951
457.00,20.077
458.00,20.143
459.00,20.307
460.00,20.434
461.00,20.554
462.00,20.666
463.00,20.827
464.00,20.963
465.00,21.060
466.00,21.221
467.00,21.355
468.00,21.441
469.00,21.575
470.00,21.665
471.00,21.769
472.00,21.911
473.00,21.994
474.00,22.142
475.00,22.268
476.00,22.353
477.00,22.512
478.00,22.629
479.00,22.834
480.00,22.935
481.00,23.049
482.00,23.211
483.00,23.377
484.00,23.557
485.00,23.677
486.00,23.843
487.00,24.009
488.00,24.137
489.00,24.314
490.00,24.470
491.00,24.624
492.00,24.880
493.00,25.005
494.00,24.946
495.00,25.160
496.00,25.309
497.00,25.420
498.00,25.580
499.00,25.757
500.00,25.866
501.00,26.008
502.00,26.131
503.00,26.319
504.00,26.345
505.00,26.523
506.00,26.661
507.00,26.743
508.00,26.847
509.00,27.061
510.00,27.193
511.00,27.278
512.00,27.508
513.00,27.633
514.00,27.725
515.00,27.861
516.00,27.973
517.00,28.078
518.00,28.188
519.00,28.281
520.00,28.381
521.00,28.457
522.00,28.575
523.00,28.648
524.00,28.724
525.00,28.859
526.00,28.999
527.00,29.065
528.00,29.167
529.00,29.374
530.00,29.503
531.00,29.612
532.00,29.652
533.00,29.768
534.00,29.892
535.00,29.926
536.00,29.998
537.00,30.173
538.00,30.209
539.00,30.265
540.00,30.380
541.00,30.413
542.00,30.474
543.00,30.535
544.00,30.645
545.00,30.745
546.00,30.731
547.00,30.913
548.00,31.000
549.00,31.045
550.00,31.145
551.00,31.256
552.00,31.336
553.00,31.359
554.00,31.458
555.00,31.476
556.00,31.566
557.00,31.614
558.00,31.677
559.00,31.787
560.00,31.838
561.00,31.963
562.00,31.997
563.00,32.030
564.00,32.083
565.00,32.123
566.00,32.143
567.00,32.216
568.00,32.257
569.00,32.294
570.00,32.357
571.00,32.396
572.00,32.421
573.00,32.403
574.00,32.479
575.00,32.469
576.00,32.461
577.00,32.564
578.00,32.676
579.00,32.677
580.00,32.759
581.00,32.920
582.00,32.994
583.00,32.982
584.00,33.068
585.00,33.143
586.00,33.149
587.00,33.228
588.00,33.220
589.00,33.215
590.00,33.304
591.00,33.338
592.00,33.312
593.00,33.309
594.00,33.456
595.00,33.603
596.00,33.548
597.00,33.553
598.00,33.754
599.00,33.778
600.00,33.821
601.00,33.842
602.00,33.880
603.00,33.978
604.00,34.037
605.00,34.079
606.00,34.065
607.00,34.105
608.00,34.298
609.00,34.366
610.00,34.241
611.00,34.268
612.00,34.378
613.00,34.433
614.00,34.439
615.00,34.618
616.00,34.658
617.00,34.667
618.00,34.700
619.00,34.798
620.00,34.889
621.00,34.836
622.00,34.896
623.00,34.909
624.00,35.099
625.00,35.189
626.00,35.254
627.00,35.251
628.00,35.302
629.00,35.414
630.00,35.452
631.00,35.484
632.00,35.545
633.00,35.732
634.00,35.827
635.00,35.886
636.00,35.945
637.00,36.019
638.00,36.093
639.00,36.228
640.00,36.275
641.00,36.323
642.00,36.348
643.00,36.444
644.00,36.548
645.00,36.623
646.00,36.707
647.00,36.836
648.00,36.896
649.00,36.909
650.00,37.014
651.00,37.174
652.00,37.141
653.00,37.180
654.00,37.459
655.00,37.450
656.00,37.901
657.00,37.768
658.00,37.904
659.00,38.073
660.00,38.112
661.00,38.206
662.00,38.276
663.00,38.387
664.00,38.617
665.00,38.848
666.00,38.668
667.00,38.800
668.00,38.865
669.00,39.171
670.00,39.405
671.00,39.399
672.00,39.434
673.00,39.487
674.00,39.669
675.00,39.807
676.00,39.961
677.00,40.122
678.00,39.998
679.00,40.199
680.00,40.310
681.00,40.516
682.00,40.591
683.00,40.622
684.00,40.797
685.00,40.974
686.00,40.821
687.00,41.027
688.00,41.107
689.00,41.043
690.00,41.474
691.00,41.721
692.00,41.169
693.00,41.597
694.00,41.952
695.00,41.928
696.00,42.051
697.00,42.039
698.00,42.101
699.00,42.535
700.00,42.526
701.00,42.568
702.00,42.631
703.00,42.932
704.00,42.961
705.00,42.895
706.00,42.969
707.00,42.967
708.00,43.212
709.00,43.755
710.00,43.399
711.00,43.324
712.00,43.520
713.00,43.692
714.00,43.895
715.00,43.877
716.00,43.866
717.00,44.021
718.00,44.153
719.00,44.192
720.00,44.362
721.00,48.633
722.00,48.665
723.00,48.654
724.00,48.745
725.00,48.797
726.00,48.886
727.00,48.914
728.00,48.902
729.00,48.974
730.00,49.021
731.00,49.171
732.00,49.104
733.00,49.198
734.00,49.280
735.00,49.307
736.00,49.354
737.00,49.376
738.00,49.498
739.00,49.560
740.00,49.561
741.00,49.666
742.00,49.661
743.00,49.746
744.00,49.651
745.00,49.788
746.00,49.805
747.00,49.813
748.00,49.763
749.00,49.830
750.00,49.880
751.00,49.898
752.00,49.917
753.00,49.882
754.00,49.955
755.00,49.941
756.00,50.009
757.00,50.094
758.00,50.063
759.00,50.041
760.00,50.128
761.00,50.114
762.00,50.195
763.00,50.281
764.00,50.283
765.00,50.190
766.00,50.301
767.00,50.337
768.00,50.396
769.00,50.313
770.00,50.448
771.00,50.409
772.00,50.432
773.00,50.460
774.00,50.478
775.00,50.531
776.00,50.578
777.00,50.547
778.00,50.513
779.00,50.566
780.00,50.590
781.00,50.613
782.00,50.611
783.00,50.577
784.00,50.734
785.00,50.544
786.00,50.710
787.00,50.642
788.00,50.645
789.00,50.674
790.00,50.642
791.00,50.664
792.00,50.595
793.00,50.622
794.00,50.605
795.00,50.658
796.00,50.655
797.00,50.535
798.00,50.681
799.00,50.616
800.00,50.590
801.00,50.628
802.00,50.539
803.00,50.622
804.00,50.527
805.00,50.639
806.00,50.447
807.00,50.501
808.00,50.610
809.00,50.601
810.00,50.456
811.00,50.534
812.00,50.569
813.00,50.502
814.00,50.544
815.00,50.521
816.00,50.495
817.00,50.568
818.00,50.342
819.00,50.429
820.00,50.463
821.00,50.441
822.00,50.373
823.00,50.329
824.00,50.410
825.00,50.460
826.00,50.340
827.00,50.477
828.00,50.411
829.00,50.363
830.00,50.390
831.00,52.830
832.00,52.827
833.00,52.792
834.00,52.831
835.00,52.763
836.00,52.752
837.00,52.739
838.00,52.723
839.00,52.739
840.00,52.674
841.00,52.699
842.00,52.652
843.00,52.688
844.00,52.669
845.00,52.598
846.00,52.615
847.00,52.619
848.00,52.587
849.00,52.510
850.00,52.563
851.00,52.442
852.00,52.535
853.00,52.402
854.00,52.429
855.00,52.357
856.00,52.404
857.00,52.214
858.00,52.294
859.00,52.323
860.00,52.292
861.00,52.379
862.00,52.258
863.00,52.275
864.00,52.373
865.00,52.278
866.00,52.249
867.00,52.239
868.00,52.248
869.00,52.194
870.00,52.243
871.00,52.167
872.00,52.181
873.00,52.139
874.00,52.214
875.00,52.122
876.00,52.191
877.00,52.152
878.00,52.173
879.00,52.140
880.00,52.154
881.00,52.123
882.00,52.160
883.00,52.078
884.00,52.071
885.00,52.027
886.00,52.070
887.00,52.010
888.00,51.993
889.00,51.994
890.00,51.991
891.00,51.915
892.00,51.917
893.00,51.906
894.00,51.920
895.00,51.884
896.00,51.853
897.00,51.853
898.00,51.788
899.00,51.812
900.00,51.790
901.00,51.765
902.00,51.843
903.00,51.742
904.00,51.731
905.00,51.823
906.00,51.759
907.00,51.703
908.00,51.649
909.00,51.663
910.00,51.621
911.00,51.604
912.00,51.614
913.00,51.598
914.00,51.571
915.00,51.572
916.00,51.536
917.00,51.496
918.00,51.521
919.00,51.504
920.00,51.427
921.00,51.470
922.00,51.455
923.00,51.416
924.00,51.362
925.00,51.409
926.00,51.373
927.00,51.365
928.00,51.276
929.00,51.341
930.00,51.241
931.00,51.263
932.00,51.214
933.00,51.246
934.00,51.213
935.00,51.202
936.00,51.164
937.00,51.172
938.00,51.142
939.00,51.158
940.00,51.096
941.00,51.118
942.00,51.057
943.00,51.062
944.00,51.007
945.00,51.020
946.00,51.005
947.00,50.940
948.00,50.981
949.00,50.955
950.00,50.944
951.00,50.918
952.00,50.946
953.00,50.855
954.00,50.870
955.00,50.792
956.00,50.808
957.00,50.761
958.00,50.775
959.00,50.716
960.00,50.711
961.00,50.682
962.00,50.695
963.00,50.667
964.00,50.650
965.00,50.670
966.00,50.647
967.00,50.647
968.00,50.620
969.00,50.650
970.00,50.607
971.00,50.616
972.00,50.551
973.00,50.622
974.00,50.641
975.00,50.539
976.00,50.624
977.00,50.676
978.00,50.651
979.00,50.611
980.00,50.606
981.00,50.647
982.00,50.596
983.00,50.623
984.00,50.596
985.00,50.638
986.00,50.575
987.00,50.611
988.00,50.545
989.00,50.534
990.00,50.559
991.00,50.523
992.00,50.542
993.00,50.496
994.00,50.495
995.00,50.498
996.00,50.482
997.00,50.472
998.00,50.452
999.00,50.476
1000.00,50.411
1001.00,50.429
1002.00,50.474
1003.00,50.392
1004.00,50.390
1005.00,50.337
1006.00,50.388
1007.00,50.345
1008.00,50.346
1009.00,50.339
1010.00,50.325
1011.00,50.324
1012.00,50.292
1013.00,50.297
1014.00,50.255
1015.00,50.280
1016.00,50.218
1017.00,50.219
1018.00,50.226
1019.00,50.181
1020.00,50.188
1021.00,50.157
1022.00,50.172
1023.00,50.119
1024.00,50.119
1025.00,50.146
1026.00,50.086
1027.00,50.047
1028.00,50.040
1029.00,50.047
1030.00,50.001
1031.00,50.038
1032.00,49.994
1033.00,49.992
1034.00,49.965
1035.00,49.908
1036.00,49.896
1037.00,49.882
1038.00,49.861
1039.00,49.842
1040.00,49.853
1041.00,49.810
1042.00,49.824
1043.00,49.797
1044.00,49.825
1045.00,49.797
1046.00,49.769
1047.00,49.828
1048.00,49.836
1049.00,49.851
1050.00,49.832
1051.00,49.878
1052.00,49.850
1053.00,49.889
1054.00,49.872
1055.00,49.898
1056.00,49.909
1057.00,49.879
1058.00,49.885
1059.00,49.877
1060.00,49.890
1061.00,49.867
1062.00,49.873
1063.00,49.863
1064.00,49.867
1065.00,49.837
1066.00,49.834
1067.00,49.831
1068.00,49.868
1069.00,49.811
1070.00,49.813
1071.00,49.784
1072.00,49.814
1073.00,49.789
1074.00,49.786
1075.00,49.783
1076.00,49.780
1077.00,49.742
1078.00,49.743
1079.00,49.745
1080.00,49.752
1081.00,49.750
1082.00,49.732
1083.00,49.733
1084.00,49.725
1085.00,49.731
1086.00,49.709
1087.00,49.711
1088.00,49.696
1089.00,49.696
1090.00,49.659
1091.00,49.683
1092.00,49.670
1093.00,49.656
1094.00,49.628
1095.00,49.645
1096.00,49.610
1097.00,49.622
1098.00,49.603
1099.00,49.601
1100.00,49.586
1101.00,49.571
1102.00,49.555
1103.00,49.582
1104.00,49.535
1105.00,49.548
1106.00,49.526
1107.00,49.530
1108.00,49.515
1109.00,49.521
1110.00,49.504
1111.00,49.490
1112.00,49.475
1113.00,49.484
1114.00,49.466
1115.00,49.484
1116.00,49.458
1117.00,49.452
1118.00,49.428
1119.00,49.451
1120.00,49.451
1121.00,49.442
1122.00,49.426
1123.00,49.424
1124.00,49.394
1125.00,49.398
1126.00,49.380
1127.00,49.401
1128.00,49.379
1129.00,49.370
1130.00,49.342
1131.00,49.359
1132.00,49.338
1133.00,49.366
1134.00,49.325
1135.00,49.335
1136.00,49.319
1137.00,49.327
1138.00,49.342
1139.00,49.352
1140.00,49.329
1141.00,49.348
1142.00,49.329
1143.00,49.354
1144.00,49.312
1145.00,49.308
1146.00,49.298
1147.00,49.314
1148.00,49.293
1149.00,49.313
1150.00,49.311
1151.00,49.311
1152.00,49.308
1153.00,49.320
1154.00,49.283
1155.00,49.307
1156.00,49.266
1157.00,49.295
1158.00,49.282
1159.00,49.278
1160.00,49.274
1161.00,49.291
1162.00,49.268
1163.00,49.262
1164.00,49.287
1165.00,49.271
1166.00,49.282
1167.00,49.239
1168.00,49.289
1169.00,49.254
1170.00,49.252
1171.00,49.243
1172.00,49.253
1173.00,49.238
1174.00,49.250
1175.00,49.252
1176.00,49.240
1177.00,49.229
1178.00,49.230
1179.00,49.256
1180.00,49.235
1181.00,49.249
1182.00,49.247
1183.00,49.275
1184.00,49.255
1185.00,49.268
1186.00,49.250
1187.00,49.250
1188.00,49.265
1189.00,49.246
1190.00,49.267
1191.00,49.254
1192.00,49.271
1193.00,49.248
1194.00,49.257
1195.00,49.212
1196.00,49.254
1197.00,49.246
1198.00,49.222
1199.00,49.258
1200.00,49.233
1201.00,49.277
1202.00,49.237
1203.00,49.247
1204.00,49.245
1205.00,49.265
1206.00,49.243
1207.00,49.251
1208.00,49.239
1209.00,49.256
1210.00,49.265
1211.00,49.237
1212.00,49.273
1213.00,49.236
1214.00,49.252
1215.00,49.242
1216.00,49.248
1217.00,49.245
1218.00,49.240
1219.00,49.273
1220.00,49.243
1221.00,49.281
1222.00,49.251
1223.00,49.295
1224.00,49.294
1225.00,49.266
1226.00,49.277
1227.00,49.276
1228.00,49.293
1229.00,49.285
1230.00,49.320
1231.00,49.298
1232.00,49.342
1233.00,49.312
1234.00,49.318
1235.00,49.336
1236.00,49.322
1237.00,49.343
1238.00,49.316
1239.00,49.326
1240.00,49.302
1241.00,49.329
1242.00,49.312
1243.00,49.325
1244.00,49.293
1245.00,49.343
1246.00,49.368
1247.00,49.340
1248.00,49.345
1249.00,49.374
1250.00,49.392
1251.00,49.368
1252.00,49.391
1253.00,49.365
1254.00,49.386
1255.00,49.398
1256.00,49.370
1257.00,49.367
1258.00,49.384
1259.00,49.379
1260.00,49.434
1261.00,49.410
1262.00,49.418
1263.00,49.406
1264.00,49.409
1265.00,49.430
1266.00,49.403
1267.00,49.442
1268.00,49.446
1269.00,49.450
1270.00,49.458
1271.00,49.481
1272.00,49.469
1273.00,49.497
1274.00,49.479
1275.00,49.490
1276.00,49.491
1277.00,49.492
1278.00,49.499
1279.00,49.516
1280.00,49.482
1281.00,49.517
1282.00,49.525
1283.00,49.506
1284.00,49.529
1285.00,49.522
1286.00,49.549
1287.00,49.548
1288.00,49.540
1289.00,49.527
1290.00,49.585
1291.00,49.547
1292.00,49.554
1293.00,49.574
1294.00,49.579
1295.00,49.598
1296.00,49.594
1297.00,49.597
1298.00,49.662
1299.00,49.585
1300.00,49.635
1301.00,49.618
1302.00,49.659
1303.00,49.637
1304.00,49.641
1305.00,49.686
1306.00,49.636
1307.00,49.662
1308.00,49.660
1309.00,49.674
1310.00,49.654
1311.00,49.670
1312.00,49.701
1313.00,49.713
1314.00,49.718
1315.00,49.750
1316.00,49.730
1317.00,49.788
1318.00,49.771
1319.00,49.771
1320.00,49.763
1321.00,49.943
1322.00,49.923
1323.00,49.914
1324.00,49.897
1325.00,49.898
1326.00,49.934
1327.00,49.903
1328.00,49.911
1329.00,49.903
1330.00,49.904
1331.00,49.927
1332.00,49.913
1333.00,49.937
1334.00,49.965
1335.00,49.976
1336.00,50.014
1337.00,50.045
1338.00,50.111
1339.00,50.149
1340.00,50.204
1341.00,50.263
1342.00,50.338
1343.00,50.356
1344.00,50.423
1345.00,50.491
1346.00,50.500
1347.00,50.533
1348.00,50.589
1349.00,50.565
1350.00,50.612
1351.00,50.599
1352.00,50.625
1353.00,50.662
1354.00,50.638
1355.00,50.593
1356.00,50.688
1357.00,50.664
1358.00,50.748
1359.00,50.735
1360.00,50.713
1361.00,50.583
1362.00,50.704
1363.00,50.822
1364.00,50.759
1365.00,50.684
1366.00,50.759
1367.00,50.685
1368.00,50.695
1369.00,50.715
1370.00,50.711
1371.00,50.643
1372.00,50.691
1373.00,50.704
1374.00,50.713
1375.00,50.705
1376.00,50.693
1377.00,50.704
1378.00,50.803
1379.00,50.756
1380.00,50.823
1381.00,50.735
1382.00,50.662
1383.00,50.754
1384.00,50.634
1385.00,50.719
1386.00,50.748
1387.00,50.673
1388.00,50.642
1389.00,50.713
1390.00,50.714
1391.00,50.695
1392.00,50.690
1393.00,50.742
1394.00,50.678
1395.00,50.574
1396.00,50.649
1397.00,50.749
1398.00,50.707
1399.00,50.663
1400.00,50.688
1401.00,50.642
1402.00,50.735
1403.00,50.680
1404.00,50.744
1405.00,50.736
1406.00,50.788
1407.00,50.766
1408.00,50.774
1409.00,50.729
1410.00,50.812
1411.00,50.782
1412.00,50.839
1413.00,50.764
1414.00,50.785
1415.00,50.799
1416.00,50.838
1417.00,50.871
1418.00,50.832
1419.00,50.863
1420.00,50.874
1421.00,50.937
1422.00,50.915
1423.00,50.936
1424.00,50.932
1425.00,50.999
1426.00,50.923
1427.00,50.998
1428.00,50.985
1429.00,51.013
1430.00,51.029
1431.00,51.051
1432.00,51.067
1433.00,51.099
1434.00,51.079
1435.00,51.156
1436.00,51.153
1437.00,51.138
1438.00,51.157
1439.00,51.188
1440.00,51.199
1441.00,51.224
1442.00,51.228
1443.00,51.249
1444.00,51.327
1445.00,51.226
1446.00,51.298
1447.00,51.327
1448.00,51.367
1449.00,51.371
1450.00,51.373
1451.00,51.385
1452.00,51.417
1453.00,51.403
1454.00,51.435
1455.00,51.476
1456.00,51.494
1457.00,51.481
1458.00,51.531
1459.00,51.530
1460.00,51.568
1461.00,51.537
1462.00,51.598
1463.00,51.588
1464.00,51.599
1465.00,51.622
1466.00,51.634
1467.00,51.636
1468.00,51.731
1469.00,51.698
1470.00,51.719
1471.00,51.734
1472.00,51.736
1473.00,51.750
1474.00,51.787
1475.00,51.781
1476.00,51.824
1477.00,51.795
1478.00,51.812
1479.00,51.855
1480.00,51.852
1481.00,51.852
1482.00,51.891
1483.00,51.905
1484.00,51.923
1485.00,51.937
1486.00,51.954
1487.00,51.958
1488.00,51.998
1489.00,51.968
1490.00,52.011
1491.00,52.021
1492.00,52.044
1493.00,52.025
1494.00,52.065
1495.00,52.027
1496.00,52.095
1497.00,52.048
1498.00,52.081
1499.00,52.115
1500.00,52.118
1501.00, 
1502.00, 
1503.00, 
1504.00, 
1505.00, 
1506.00, 
1507.00, 
1508.00, 
1509.00, 
1510.00, 
1511.00, 
1512.00, 
1513.00, 
1514.00, 
1515.00, 
1516.00, 
1517.00, 
1518.00, 
1519.00, 
1520.00, 
1521.00, 
1522.00, 
1523.00, 
1524.00, 
1525.00, 
1526.00, 
1527.00, 
1528.00, 
1529.00, 
1530.00, 
1531.00, 
1532.00, 
1533.00, 
1534.00, 
1535.00, 
1536.00, 
1537.00, 
1538.00, 
1539.00, 
1540.00, 
1541.00, 
1542.00, 
1543.00, 
1544.00, 
1545.00, 
1546.00, 
1547.00, 
1548.00, 
1549.00, 
1550.00, 
1551.00, 
1552.00, 
1553.00, 
1554.00, 
1555.00, 
1556.00, 
1557.00, 
1558.00, 
1559.00, 
1560.00, 
1561.00, 
1562.00, 
1563.00, 
1564.00, 
1565.00, 
1566.00, 
1567.00, 
1568.00, 
1569.00, 
1570.00, 
1571.00, 
1572.00, 
1573.00, 
1574.00, 
1575.00, 
1576.00, 
1577.00, 
1578.00, 
1579.00, 
1580.00, 
1581.00, 
1582.00, 
1583.00, 
1584.00, 
1585.00, 
1586.00, 
1587.00, 
1588.00, 
1589.00, 
1590.00, 
1591.00, 
1592.00, 
1593.00, 
1594.00, 
1595.00, 
1596.00, 
1597.00, 
1598.00, 
1599.00, 
1600.00, 
1601.00, 
1602.00, 
1603.00, 
1604.00, 
1605.00, 
1606.00, 
1607.00, 
1608.00, 
1609.00, 
1610.00, 
1611.00, 
1612.00, 
1613.00, 
1614.00, 
1615.00, 
1616.00, 
1617.00, 
1618.00, 
1619.00, 
1620.00, 
1621.00, 
1622.00, 
1623.00, 
1624.00, 
1625.00, 
1626.00, 
1627.00, 
1628.00, 
1629.00, 
1630.00, 
1631.00, 
1632.00, 
1633.00, 
1634.00, 
1635.00, 
1636.00, 
1637.00, 
1638.00, 
1639.00, 
1640.00, 
1641.00, 
1642.00, 
1643.00, 
1644.00, 
1645.00, 
1646.00, 
1647.00, 
1648.00, 
1649.00, 
1650.00, 
1651.00, 
1652.00, 
1653.00, 
1654.00, 
1655.00, 
1656.00, 
1657.00, 
1658.00, 
1659.00, 
1660.00, 
1661.00, 
1662.00, 
1663.00, 
1664.00, 
1665.00, 
1666.00, 
1667.00, 
1668.00, 
1669.00, 
1670.00, 
1671.00, 
1672.00, 
1673.00, 
1674.00, 
1675.00, 
1676.00, 
1677.00, 
1678.00, 
1679.00, 
1680.00, 
1681.00, 
1682.00, 
1683.00, 
1684.00, 
1685.00, 
1686.00, 
1687.00, 
1688.00, 
1689.00, 
1690.00, 
1691.00, 
1692.00, 
1693.00, 
1694.00, 
1695.00, 
1696.00, 
1697.00, 
1698.00, 
1699.00, 
1700.00, 
1701.00, 
1702.00, 
1703.00, 
1704.00, 
1705.00, 
1706.00, 
1707.00, 
1708.00, 
1709.00, 
1710.00, 
1711.00, 
1712.00, 
1713.00, 
1714.00, 
1715.00, 
1716.00, 
1717.00, 
1718.00, 
1719.00, 
1720.00, 
1721.00, 
1722.00, 
1723.00, 
1724.00, 
1725.00, 
1726.00, 
1727.00, 
1728.00, 
1729.00, 
1730.00, 
1731.00, 
1732.00, 
1733.00, 
1734.00, 
1735.00, 
1736.00, 
1737.00, 
1738.00, 
1739.00, 
1740.00, 
1741.00, 
1742.00, 
1743.00, 
1744.00, 
1745.00, 
1746.00, 
1747.00, 
1748.00, 
1749.00, 
1750.00, 
1751.00, 
1752.00, 
1753.00, 
1754.00, 
1755.00, 
1756.00, 
1757.00, 
1758.00, 
1759.00, 
1760.00, 
1761.00, 
1762.00, 
1763.00, 
1764.00, 
1765.00, 
1766.00, 
1767.00, 
1768.00, 
1769.00, 
1770.00, 
1771.00, 
1772.00, 
1773.00, 
1774.00, 
1775.00, 
1776.00, 
1777.00, 
1778.00, 
1779.00, 
1780.00, 
1781.00, 
1782.00, 
1783.00, 
1784.00, 
1785.00, 
1786.00, 
1787.00, 
1788.00, 
1789.00, 
1790.00, 
1791.00, 
1792.00, 
1793.00, 
1794.00, 
1795.00, 
1796.00, 
1797.00, 
1798.00, 
1799.00, 
1800.00, 
1801.00, 
1802.00, 
1803.00, 
1804.00, 
1805.00, 
1806.00, 
1807.00, 
1808.00, 
1809.00, 
1810.00, 
1811.00, 
1812.00, 
1813.00, 
1814.00, 
1815.00, 
1816.00, 
1817.00, 
1818.00, 
1819.00, 
1820.00, 
1821.00, 
1822.00, 
1823.00, 
1824.00, 
1825.00, 
1826.00, 
1827.00, 
1828.00, 
1829.00, 
1830.00, 
1831.00, 
1832.00, 
1833.00, 
1834.00, 
1835.00, 
1836.00, 
1837.00, 
1838.00, 
1839.00, 
1840.00, 
1841.00, 
1842.00, 
1843.00, 
1844.00, 
1845.00, 
1846.00, 
1847.00, 
1848.00, 
1849.00, 
1850.00, 
1851.00, 
1852.00, 
1853.00, 
1854.00, 
1855.00, 
1856.00, 
1857.00, 
1858.00, 
1859.00, 
1860.00, 
1861.00, 
1862.00, 
1863.00, 
1864.00, 
1865.00, 
1866.00, 
1867.00, 
1868.00, 
1869.00, 
1870.00, 
1871.00, 
1872.00, 
1873.00, 
1874.00, 
1875.00, 
1876.00, 
1877.00, 
1878.00, 
1879.00, 
1880.00, 
1881.00, 
1882.00, 
1883.00, 
1884.00, 
1885.00, 
1886.00, 
1887.00, 
1888.00, 
1889.00, 
1890.00, 
1891.00, 
1892.00, 
1893.00, 
1894.00, 
1895.00, 
1896.00, 
1897.00, 
1898.00, 
1899.00, 
1900.00, 
1901.00, 
1902.00, 
1903.00, 
1904.00, 
1905.00, 
1906.00, 
1907.00, 
1908.00, 
1909.00, 
1910.00, 
1911.00, 
1912.00, 
1913.00, 
1914.00, 
1915.00, 
1916.00, 
1917.00, 
1918.00, 
1919.00, 
1920.00, 
1921.00, 
1922.00, 
1923.00, 
1924.00, 
1925.00, 
1926.00, 
1927.00, 
1928.00, 
1929.00, 
1930.00, 
1931.00, 
1932.00, 
1933.00, 
1934.00, 
1935.00, 
1936.00, 
1937.00, 
1938.00, 
1939.00, 
1940.00, 
1941.00, 
1942.00, 
1943.00, 
1944.00, 
1945.00, 
1946.00, 
1947.00, 
1948.00, 
1949.00, 
1950.00, 
1951.00, 
1952.00, 
1953.00, 
1954.00, 
1955.00, 
1956.00, 
1957.00, 
1958.00, 
1959.00, 
1960.00, 
1961.00, 
1962.00, 
1963.00, 
1964.00, 
1965.00, 
1966.00, 
1967.00, 
1968.00, 
1969.00, 
1970.00, 
1971.00, 
1972.00, 
1973.00, 
1974.00, 
1975.00, 
1976.00, 
1977.00, 
1978.00, 
1979.00, 
1980.00, 
1981.00, 
1982.00, 
1983.00, 
1984.00, 
1985.00, 
1986.00, 
1987.00, 
1988.00, 
1989.00, 
1990.00, 
1991.00, 
1992.00, 
1993.00, 
1994.00, 
1995.00, 
1996.00, 
1997.00, 
1998.00, 
1999.00, 
2000.00, 
2001.00, 
2002.00, 
2003.00, 
2004.00, 
2005.00, 
2006.00, 
2007.00, 
2008.00, 
2009.00, 
2010.00, 
2011.00, 
2012.00, 
2013.00, 
2014.00, 
2015.00, 
2016.00, 
2017.00, 
2018.00, 
2019.00, 
2020.00, 
2021.00, 
2022.00, 
2023.00, 
2024.00, 
2025.00, 
2026.00, 
2027.00, 
2028.00, 
2029.00, 
2030.00, 
2031.00, 
2032.00, 
2033.00, 
2034.00, 
2035.00, 
2036.00, 
2037.00, 
2038.00, 
2039.00, 
2040.00, 
2041.00, 
2042.00, 
2043.00, 
2044.00, 
2045.00, 
2046.00, 
2047.00, 
2048.00, 
2049.00, 
2050.00, 
2051.00, 
2052.00, 
2053.00, 
2054.00, 
2055.00, 
2056.00, 
2057.00, 
2058.00, 
2059.00, 
2060.00, 
2061.00, 
2062.00, 
2063.00, 
2064.00, 
2065.00, 
2066.00, 
2067.00, 
2068.00, 
2069.00, 
2070.00, 
2071.00, 
2072.00, 
2073.00, 
2074.00, 
2075.00, 
2076.00, 
2077.00, 
2078.00, 
2079.00, 
2080.00, 
2081.00, 
2082.00, 
2083.00, 
2084.00, 
2085.00, 
2086.00, 
2087.00, 
2088.00, 
2089.00, 
2090.00, 
2091.00, 
2092.00, 
2093.00, 
2094.00, 
2095.00, 
2096.00, 
2097.00, 
2098.00, 
2099.00, 
2100.00, 
2101.00, 
2102.00, 
2103.00, 
2104.00, 
2105.00, 
2106.00, 
2107.00, 
2108.00, 
2109.00, 
2110.00, 
2111.00, 
2112.00, 
2113.00, 
2114.00, 
2115.00, 
2116.00, 
2117.00, 
2118.00, 
2119.00, 
2120.00, 
2121.00, 
2122.00, 
2123.00, 
2124.00, 
2125.00, 
2126.00, 
2127.00, 
2128.00, 
2129.00, 
2130.00, 
2131.00, 
2132.00, 
2133.00, 
2134.00, 
2135.00, 
2136.00, 
2137.00, 
2138.00, 
2139.00, 
2140.00, 
2141.00, 
2142.00, 
2143.00, 
2144.00, 
2145.00, 
2146.00, 
2147.00, 
2148.00, 
2149.00, 
2150.00, 
2151.00, 
2152.00, 
2153.00, 
2154.00, 
2155.00, 
2156.00, 
2157.00, 
2158.00, 
2159.00, 
2160.00, 
2161.00, 
2162.00, 
2163.00, 
2164.00, 
2165.00, 
2166.00, 
2167.00, 
2168.00, 
2169.00, 
2170.00, 
2171.00, 
2172.00, 
2173.00, 
2174.00, 
2175.00, 
2176.00, 
2177.00, 
2178.00, 
2179.00, 
2180.00, 
2181.00, 
2182.00, 
2183.00, 
2184.00, 
2185.00, 
2186.00, 
2187.00, 
2188.00, 
2189.00, 
2190.00, 
2191.00, 
2192.00, 
2193.00, 
2194.00, 
2195.00, 
2196.00, 
2197.00, 
2198.00, 
2199.00, 
2200.00, 
2201.00, 
2202.00, 
2203.00, 
2204.00, 
2205.00, 
2206.00, 
2207.00, 
2208.00, 
2209.00, 
2210.00, 
2211.00, 
2212.00, 
2213.00, 
2214.00, 
2215.00, 
2216.00, 
2217.00, 
2218.00, 
2219.00, 
2220.00, 
2221.00, 
2222.00, 
2223.00, 
2224.00, 
2225.00, 
2226.00, 
2227.00, 
2228.00, 
2229.00, 
2230.00, 
2231.00, 
2232.00, 
2233.00, 
2234.00, 
2235.00, 
2236.00, 
2237.00, 
2238.00, 
2239.00, 
2240.00, 
2241.00, 
2242.00, 
2243.00, 
2244.00, 
2245.00, 
2246.00, 
2247.00, 
2248.00, 
2249.00, 
2250.00, 
2251.00, 
2252.00, 
2253.00, 
2254.00, 
2255.00, 
2256.00, 
2257.00, 
2258.00, 
2259.00, 
2260.00, 
2261.00, 
2262.00, 
2263.00, 
2264.00, 
2265.00, 
2266.00, 
2267.00, 
2268.00, 
2269.00, 
2270.00, 
2271.00, 
2272.00, 
2273.00, 
2274.00, 
2275.00, 
2276.00, 
2277.00, 
2278.00, 
2279.00, 
2280.00, 
2281.00, 
2282.00, 
2283.00, 
2284.00, 
2285.00, 
2286.00, 
2287.00, 
2288.00, 
2289.00, 
2290.00, 
2291.00, 
2292.00, 
2293.00, 
2294.00, 
2295.00, 
2296.00, 
2297.00, 
2298.00, 
2299.00, 
2300.00, 
2301.00, 
2302.00, 
2303.00, 
2304.00, 
2305.00, 
2306.00, 
2307.00, 
2308.00, 
2309.00, 
2310.00, 
2311.00, 
2312.00, 
2313.00, 
2314.00, 
2315.00, 
2316.00, 
2317.00, 
2318.00, 
2319.00, 
2320.00, 
2321.00, 
2322.00, 
2323.00, 
2324.00, 
2325.00, 
2326.00, 
2327.00, 
2328.00, 
2329.00, 
2330.00, 
2331.00, 
2332.00, 
2333.00, 
2334.00, 
2335.00, 
2336.00, 
2337.00, 
2338.00, 
2339.00, 
2340.00, 
2341.00, 
2342.00, 
2343.00, 
2344.00, 
2345.00, 
2346.00, 
2347.00, 
2348.00, 
2349.00, 
2350.00, 
2351.00, 
2352.00, 
2353.00, 
2354.00, 
2355.00, 
2356.00, 
2357.00, 
2358.00, 
2359.00, 
2360.00, 
2361.00, 
2362.00, 
2363.00, 
2364.00, 
2365.00, 
2366.00, 
2367.00, 
2368.00, 
2369.00, 
2370.00, 
2371.00, 
2372.00, 
2373.00, 
2374.00, 
2375.00, 
2376.00, 
2377.00, 
2378.00, 
2379.00, 
2380.00, 
2381.00, 
2382.00, 
2383.00, 
2384.00, 
2385.00, 
2386.00, 
2387.00, 
2388.00, 
2389.00, 
2390.00, 
2391.00, 
2392.00, 
2393.00, 
2394.00, 
2395.00, 
2396.00, 
2397.00, 
2398.00, 
2399.00, 
2400.00, 
2401.00, 
2402.00, 
2403.00, 
2404.00, 
2405.00, 
2406.00, 
2407.00, 
2408.00, 
2409.00, 
2410.00, 
2411.00, 
2412.00, 
2413.00, 
2414.00, 
2415.00, 
2416.00, 
2417.00, 
2418.00, 
2419.00, 
2420.00, 
2421.00, 
2422.00, 
2423.00, 
2424.00, 
2425.00, 
2426.00, 
2427.00, 
2428.00, 
2429.00, 
2430.00, 
2431.00, 
2432.00, 
2433.00, 
2434.00, 
2435.00, 
2436.00, 
2437.00, 
2438.00, 
2439.00, 
2440.00, 
2441.00, 
2442.00, 
2443.00, 
2444.00, 
2445.00, 
2446.00, 
2447.00, 
2448.00, 
2449.00, 
2450.00, 
2451.00, 
2452.00, 
2453.00, 
2454.00, 
2455.00, 
2456.00, 
2457.00, 
2458.00, 
2459.00, 
2460.00, 
2461.00, 
2462.00, 
2463.00, 
2464.00, 
2465.00, 
2466.00, 
2467.00, 
2468.00, 
2469.00, 
2470.00, 
2471.00, 
2472.00, 
2473.00, 
2474.00, 
2475.00, 
2476.00, 
2477.00, 
2478.00, 
2479.00, 
2480.00, 
2481.00, 
2482.00, 
2483.00, 
2484.00, 
2485.00, 
2486.00, 
2487.00, 
2488.00, 
2489.00, 
2490.00, 
2491.00, 
2492.00, 
2493.00, 
2494.00, 
2495.00, 
2496.00, 
2497.00, 
2498.00, 
2499.00, 
2500.00, 
2501.00, 
2502.00, 
2503.00, 
2504.00, 
2505.00, 
2506.00, 
2507.00, 
2508.00, 
2509.00, 
2510.00, 
2511.00, 
2512.00, 
2513.00, 
2514.00, 
2515.00, 
2516.00, 
2517.00, 
2518.00, 
2519.00, 
2520.00, 
2521.00, 
2522.00, 
2523.00, 
2524.00, 
2525.00, 
2526.00, 
2527.00, 
2528.00, 
2529.00, 
2530.00, 
2531.00, 
2532.00, 
2533.00, 
2534.00, 
2535.00, 
2536.00, 
2537.00, 
2538.00, 
2539.00, 
2540.00, 
2541.00, 
2542.00, 
2543.00, 
2544.00, 
2545.00, 
2546.00, 
2547.00, 
2548.00, 
2549.00, 
2550.00, 
2551.00, 
2552.00, 
2553.00, 
2554.00, 
2555.00, 
2556.00, 
2557.00, 
2558.00, 
2559.00, 
2560.00, 
2561.00, 
2562.00, 
2563.00, 
2564.00, 
2565.00, 
2566.00, 
2567.00, 
2568.00, 
2569.00, 
2570.00, 
2571.00, 
2572.00, 
2573.00, 
2574.00, 
2575.00, 
2576.00, 
2577.00, 
2578.00, 
2579.00, 
2580.00, 
2581.00, 
2582.00, 
2583.00, 
2584.00, 
2585.00, 
2586.00, 
2587.00, 
2588.00, 
2589.00, 
2590.00, 
2591.00, 
2592.00, 
2593.00, 
2594.00, 
2595.00, 
2596.00, 
2597.00, 
2598.00, 
2599.00, 
2600.00, 
