"2aP2 - RawData"
"Wavelength nm.","T%"
200.00,-0.000
201.00,0.000
202.00,0.000
203.00,-0.001
204.00,0.003
205.00,-0.001
206.00,-0.001
207.00,-0.000
208.00,-0.001
209.00,0.005
210.00,-0.002
211.00,-0.001
212.00,-0.001
213.00,-0.001
214.00,0.002
215.00,0.002
216.00,0.002
217.00,0.002
218.00,0.003
219.00,0.002
220.00,0.003
221.00,-0.002
222.00,0.002
223.00,0.000
224.00,-0.000
225.00,0.001
226.00,0.001
227.00,0.003
228.00,0.003
229.00,-0.000
230.00,0.000
231.00,0.001
232.00,0.003
233.00,0.002
234.00,0.002
235.00,0.003
236.00,0.002
237.00,0.002
238.00,0.001
239.00,0.001
240.00,-0.001
241.00,0.003
242.00,0.002
243.00,0.001
244.00,0.001
245.00,0.001
246.00,-0.001
247.00,0.001
248.00,0.001
249.00,0.002
250.00,0.001
251.00,0.001
252.00,0.001
253.00,0.000
254.00,-0.000
255.00,0.001
256.00,-0.001
257.00,0.000
258.00,-0.000
259.00,0.003
260.00,-0.000
261.00,0.003
262.00,0.000
263.00,0.002
264.00,-0.001
265.00,-0.000
266.00,0.000
267.00,-0.001
268.00,-0.000
269.00,-0.000
270.00,0.001
271.00,0.001
272.00,0.000
273.00,0.001
274.00,-0.001
275.00,-0.000
276.00,0.000
277.00,0.001
278.00,0.001
279.00,0.001
280.00,-0.000
281.00,-0.001
282.00,0.001
283.00,0.001
284.00,0.000
285.00,-0.001
286.00,0.000
287.00,0.000
288.00,0.001
289.00,0.000
290.00,0.002
291.00,0.000
292.00,0.002
293.00,0.000
294.00,0.002
295.00,-0.000
296.00,0.001
297.00,-0.000
298.00,0.002
299.00,0.001
300.00,0.002
301.00,0.002
302.00,0.004
303.00,0.007
304.00,0.008
305.00,0.014
306.00,0.023
307.00,0.031
308.00,0.052
309.00,0.076
310.00,0.102
311.00,0.139
312.00,0.194
313.00,0.262
314.00,0.345
315.00,0.443
316.00,0.560
317.00,0.714
318.00,0.879
319.00,1.077
320.00,1.310
321.00,1.553
322.00,1.846
323.00,2.177
324.00,2.512
325.00,2.862
326.00,3.223
327.00,3.637
328.00,4.052
329.00,4.471
330.00,4.917
331.00,5.366
332.00,5.835
333.00,6.306
334.00,6.781
335.00,7.224
336.00,7.699
337.00,8.194
338.00,8.639
339.00,9.014
340.00,9.461
341.00,9.887
342.00,10.282
343.00,10.654
344.00,11.001
345.00,11.402
346.00,11.701
347.00,12.012
348.00,12.269
349.00,12.527
350.00,12.801
351.00,13.004
352.00,13.205
353.00,13.450
354.00,13.645
355.00,13.818
356.00,13.967
357.00,14.137
358.00,14.283
359.00,14.419
360.00,14.543
361.00,14.638
362.00,14.725
363.00,14.822
364.00,14.830
365.00,14.908
366.00,14.946
367.00,14.962
368.00,15.006
369.00,15.040
370.00,15.058
371.00,15.066
372.00,15.036
373.00,15.024
374.00,15.032
375.00,15.013
376.00,14.968
377.00,14.869
378.00,14.825
379.00,14.764
380.00,14.748
381.00,14.760
382.00,14.699
383.00,14.709
384.00,14.690
385.00,14.700
386.00,14.685
387.00,14.742
388.00,14.792
389.00,14.635
390.00,14.725
391.00,14.652
392.00,14.701
393.00,14.692
394.00,14.702
395.00,14.697
396.00,14.671
397.00,14.645
398.00,14.645
399.00,14.652
400.00,14.618
401.00,14.594
402.00,14.618
403.00,14.591
404.00,14.543
405.00,14.567
406.00,14.556
407.00,14.531
408.00,14.502
409.00,14.493
410.00,14.453
411.00,14.457
412.00,14.463
413.00,14.414
414.00,14.427
415.00,14.420
416.00,14.494
417.00,14.476
418.00,14.509
419.00,14.577
420.00,14.616
421.00,14.599
422.00,14.628
423.00,14.654
424.00,14.700
425.00,14.707
426.00,14.759
427.00,14.800
428.00,14.835
429.00,14.881
430.00,14.924
431.00,14.991
432.00,15.013
433.00,15.069
434.00,15.126
435.00,15.197
436.00,15.250
437.00,15.332
438.00,15.387
439.00,15.438
440.00,15.528
441.00,15.599
442.00,15.679
443.00,15.755
444.00,15.845
445.00,15.935
446.00,16.022
447.00,16.112
448.00,16.205
449.00,16.298
450.00,16.406
451.00,16.508
452.00,16.581
453.00,16.718
454.00,16.817
455.00,16.918
456.00,17.041
457.00,17.139
458.00,17.228
459.00,17.376
460.00,17.515
461.00,17.634
462.00,17.750
463.00,17.880
464.00,18.030
465.00,18.122
466.00,18.275
467.00,18.410
468.00,18.531
469.00,18.659
470.00,18.755
471.00,18.863
472.00,19.008
473.00,19.119
474.00,19.232
475.00,19.342
476.00,19.474
477.00,19.598
478.00,19.745
479.00,19.912
480.00,20.058
481.00,20.189
482.00,20.331
483.00,20.490
484.00,20.669
485.00,20.813
486.00,20.973
487.00,21.129
488.00,21.271
489.00,21.461
490.00,21.598
491.00,21.745
492.00,21.965
493.00,22.122
494.00,22.096
495.00,22.295
496.00,22.340
497.00,22.590
498.00,22.722
499.00,22.900
500.00,23.032
501.00,23.168
502.00,23.317
503.00,23.457
504.00,23.546
505.00,23.715
506.00,23.813
507.00,23.924
508.00,24.073
509.00,24.290
510.00,24.402
511.00,24.482
512.00,24.698
513.00,24.823
514.00,24.951
515.00,25.102
516.00,25.202
517.00,25.293
518.00,25.454
519.00,25.535
520.00,25.598
521.00,25.751
522.00,25.843
523.00,25.799
524.00,26.007
525.00,26.169
526.00,26.297
527.00,26.360
528.00,26.471
529.00,26.654
530.00,26.810
531.00,26.892
532.00,26.961
533.00,27.122
534.00,27.181
535.00,27.329
536.00,27.397
537.00,27.415
538.00,27.499
539.00,27.615
540.00,27.703
541.00,27.774
542.00,27.847
543.00,27.905
544.00,27.994
545.00,28.119
546.00,28.114
547.00,28.263
548.00,28.353
549.00,28.407
550.00,28.535
551.00,28.633
552.00,28.626
553.00,28.659
554.00,28.850
555.00,28.859
556.00,28.958
557.00,29.068
558.00,29.107
559.00,29.168
560.00,29.250
561.00,29.366
562.00,29.409
563.00,29.448
564.00,29.506
565.00,29.583
566.00,29.621
567.00,29.620
568.00,29.660
569.00,29.744
570.00,29.736
571.00,29.871
572.00,29.916
573.00,29.922
574.00,29.986
575.00,30.002
576.00,30.004
577.00,30.086
578.00,30.205
579.00,30.270
580.00,30.313
581.00,30.476
582.00,30.547
583.00,30.599
584.00,30.654
585.00,30.712
586.00,30.767
587.00,30.826
588.00,30.840
589.00,30.804
590.00,30.929
591.00,30.999
592.00,30.929
593.00,31.012
594.00,31.165
595.00,31.211
596.00,31.293
597.00,31.292
598.00,31.289
599.00,31.370
600.00,31.552
601.00,31.655
602.00,31.625
603.00,31.650
604.00,31.699
605.00,31.797
606.00,31.839
607.00,31.832
608.00,32.040
609.00,32.101
610.00,31.886
611.00,32.087
612.00,32.241
613.00,32.243
614.00,32.272
615.00,32.434
616.00,32.501
617.00,32.531
618.00,32.570
619.00,32.742
620.00,32.775
621.00,32.770
622.00,32.919
623.00,32.955
624.00,33.023
625.00,33.137
626.00,33.195
627.00,33.245
628.00,33.328
629.00,33.374
630.00,33.463
631.00,33.555
632.00,33.618
633.00,33.841
634.00,33.865
635.00,33.949
636.00,34.069
637.00,34.143
638.00,34.218
639.00,34.334
640.00,34.423
641.00,34.497
642.00,34.591
643.00,34.658
644.00,34.772
645.00,34.889
646.00,34.999
647.00,35.171
648.00,35.225
649.00,35.289
650.00,35.378
651.00,35.557
652.00,35.611
653.00,35.707
654.00,35.849
655.00,36.035
656.00,36.336
657.00,36.257
658.00,36.306
659.00,36.506
660.00,36.539
661.00,36.763
662.00,36.770
663.00,36.952
664.00,37.161
665.00,37.395
666.00,37.343
667.00,37.373
668.00,37.525
669.00,37.944
670.00,38.024
671.00,38.067
672.00,38.070
673.00,38.011
674.00,38.370
675.00,38.839
676.00,38.933
677.00,38.971
678.00,38.768
679.00,38.974
680.00,39.177
681.00,39.363
682.00,39.427
683.00,39.566
684.00,39.763
685.00,39.868
686.00,39.813
687.00,40.004
688.00,40.207
689.00,40.220
690.00,40.554
691.00,40.830
692.00,40.573
693.00,40.678
694.00,40.946
695.00,41.157
696.00,41.225
697.00,41.302
698.00,41.452
699.00,41.805
700.00,41.741
701.00,41.847
702.00,41.955
703.00,42.301
704.00,42.359
705.00,42.163
706.00,42.321
707.00,42.449
708.00,42.571
709.00,43.254
710.00,43.324
711.00,42.957
712.00,43.188
713.00,43.334
714.00,43.571
715.00,43.493
716.00,43.459
717.00,43.742
718.00,43.926
719.00,43.982
720.00,44.134
721.00,48.471
722.00,48.515
723.00,48.519
724.00,48.610
725.00,48.751
726.00,48.771
727.00,48.833
728.00,48.833
729.00,48.883
730.00,49.016
731.00,49.104
732.00,49.143
733.00,49.245
734.00,49.323
735.00,49.435
736.00,49.486
737.00,49.510
738.00,49.636
739.00,49.723
740.00,49.783
741.00,49.851
742.00,49.953
743.00,49.997
744.00,50.015
745.00,50.081
746.00,50.096
747.00,50.165
748.00,50.186
749.00,50.214
750.00,50.301
751.00,50.345
752.00,50.334
753.00,50.417
754.00,50.432
755.00,50.454
756.00,50.529
757.00,50.657
758.00,50.641
759.00,50.599
760.00,50.738
761.00,50.720
762.00,50.824
763.00,50.837
764.00,50.921
765.00,50.925
766.00,51.057
767.00,51.095
768.00,51.075
769.00,51.043
770.00,51.256
771.00,51.154
772.00,51.224
773.00,51.196
774.00,51.303
775.00,51.374
776.00,51.343
777.00,51.441
778.00,51.373
779.00,51.504
780.00,51.536
781.00,51.470
782.00,51.572
783.00,51.485
784.00,51.623
785.00,51.530
786.00,51.669
787.00,51.576
788.00,51.608
789.00,51.702
790.00,51.588
791.00,51.713
792.00,51.664
793.00,51.670
794.00,51.683
795.00,51.683
796.00,51.705
797.00,51.716
798.00,51.764
799.00,51.761
800.00,51.758
801.00,51.716
802.00,51.749
803.00,51.772
804.00,51.741
805.00,51.810
806.00,51.679
807.00,51.678
808.00,51.824
809.00,51.816
810.00,51.683
811.00,51.793
812.00,51.782
813.00,51.735
814.00,51.808
815.00,51.753
816.00,51.742
817.00,51.807
818.00,51.647
819.00,51.700
820.00,51.801
821.00,51.771
822.00,51.793
823.00,51.635
824.00,51.784
825.00,51.681
826.00,51.779
827.00,51.823
828.00,51.787
829.00,51.785
830.00,51.749
831.00,53.972
832.00,53.999
833.00,53.922
834.00,53.940
835.00,53.939
836.00,53.928
837.00,53.914
838.00,53.882
839.00,53.914
840.00,53.819
841.00,53.871
842.00,53.845
843.00,53.867
844.00,53.865
845.00,53.843
846.00,53.849
847.00,53.819
848.00,53.846
849.00,53.730
850.00,53.775
851.00,53.674
852.00,53.731
853.00,53.645
854.00,53.637
855.00,53.600
856.00,53.655
857.00,53.483
858.00,53.555
859.00,53.588
860.00,53.521
861.00,53.578
862.00,53.592
863.00,53.536
864.00,53.453
865.00,53.528
866.00,53.500
867.00,53.536
868.00,53.515
869.00,53.480
870.00,53.564
871.00,53.493
872.00,53.518
873.00,53.464
874.00,53.517
875.00,53.458
876.00,53.492
877.00,53.617
878.00,53.478
879.00,53.445
880.00,53.485
881.00,53.438
882.00,53.479
883.00,53.413
884.00,53.391
885.00,53.346
886.00,53.365
887.00,53.319
888.00,53.323
889.00,53.302
890.00,53.318
891.00,53.244
892.00,53.272
893.00,53.252
894.00,53.233
895.00,53.218
896.00,53.199
897.00,53.182
898.00,53.134
899.00,53.153
900.00,53.139
901.00,53.149
902.00,53.191
903.00,53.105
904.00,53.104
905.00,53.097
906.00,53.093
907.00,53.067
908.00,53.018
909.00,53.046
910.00,53.012
911.00,52.974
912.00,53.001
913.00,52.938
914.00,52.941
915.00,52.941
916.00,52.920
917.00,52.844
918.00,52.860
919.00,52.865
920.00,52.815
921.00,52.847
922.00,52.824
923.00,52.811
924.00,52.760
925.00,52.798
926.00,52.730
927.00,52.739
928.00,52.664
929.00,52.733
930.00,52.646
931.00,52.641
932.00,52.694
933.00,52.630
934.00,52.602
935.00,52.589
936.00,52.555
937.00,52.569
938.00,52.540
939.00,52.563
940.00,52.489
941.00,52.510
942.00,52.455
943.00,52.451
944.00,52.407
945.00,52.413
946.00,52.404
947.00,52.335
948.00,52.375
949.00,52.342
950.00,52.344
951.00,52.301
952.00,52.328
953.00,52.260
954.00,52.270
955.00,52.214
956.00,52.219
957.00,52.160
958.00,52.193
959.00,52.124
960.00,52.138
961.00,52.113
962.00,52.131
963.00,52.081
964.00,52.067
965.00,52.078
966.00,52.056
967.00,52.079
968.00,52.028
969.00,52.083
970.00,52.031
971.00,52.046
972.00,51.996
973.00,52.034
974.00,52.066
975.00,51.998
976.00,52.037
977.00,52.017
978.00,52.070
979.00,52.015
980.00,52.025
981.00,52.058
982.00,51.994
983.00,52.021
984.00,51.975
985.00,52.028
986.00,51.959
987.00,51.992
988.00,51.942
989.00,51.921
990.00,51.938
991.00,51.912
992.00,51.926
993.00,51.890
994.00,51.883
995.00,51.896
996.00,51.893
997.00,51.881
998.00,51.850
999.00,51.887
1000.00,51.817
1001.00,51.809
1002.00,51.810
1003.00,51.783
1004.00,51.793
1005.00,51.754
1006.00,51.796
1007.00,51.733
1008.00,51.742
1009.00,51.729
1010.00,51.719
1011.00,51.716
1012.00,51.666
1013.00,51.684
1014.00,51.657
1015.00,51.671
1016.00,51.623
1017.00,51.614
1018.00,51.620
1019.00,51.565
1020.00,51.579
1021.00,51.561
1022.00,51.567
1023.00,51.521
1024.00,51.563
1025.00,51.499
1026.00,51.494
1027.00,51.455
1028.00,51.441
1029.00,51.436
1030.00,51.386
1031.00,51.395
1032.00,51.355
1033.00,51.372
1034.00,51.351
1035.00,51.312
1036.00,51.296
1037.00,51.291
1038.00,51.276
1039.00,51.229
1040.00,51.229
1041.00,51.176
1042.00,51.190
1043.00,51.156
1044.00,51.183
1045.00,51.155
1046.00,51.131
1047.00,51.184
1048.00,51.184
1049.00,51.201
1050.00,51.194
1051.00,51.246
1052.00,51.214
1053.00,51.255
1054.00,51.254
1055.00,51.265
1056.00,51.275
1057.00,51.263
1058.00,51.260
1059.00,51.268
1060.00,51.274
1061.00,51.239
1062.00,51.253
1063.00,51.236
1064.00,51.250
1065.00,51.221
1066.00,51.210
1067.00,51.203
1068.00,51.271
1069.00,51.169
1070.00,51.180
1071.00,51.145
1072.00,51.173
1073.00,51.140
1074.00,51.131
1075.00,51.127
1076.00,51.127
1077.00,51.096
1078.00,51.079
1079.00,51.090
1080.00,51.083
1081.00,51.079
1082.00,51.062
1083.00,51.072
1084.00,51.067
1085.00,51.071
1086.00,51.059
1087.00,51.067
1088.00,51.034
1089.00,51.029
1090.00,51.004
1091.00,51.023
1092.00,51.001
1093.00,50.984
1094.00,50.957
1095.00,50.977
1096.00,50.942
1097.00,50.944
1098.00,50.931
1099.00,50.929
1100.00,50.912
1101.00,50.917
1102.00,50.889
1103.00,50.918
1104.00,50.877
1105.00,50.873
1106.00,50.855
1107.00,50.844
1108.00,50.825
1109.00,50.822
1110.00,50.814
1111.00,50.807
1112.00,50.794
1113.00,50.797
1114.00,50.792
1115.00,50.806
1116.00,50.772
1117.00,50.760
1118.00,50.752
1119.00,50.759
1120.00,50.741
1121.00,50.739
1122.00,50.715
1123.00,50.715
1124.00,50.716
1125.00,50.730
1126.00,50.695
1127.00,50.708
1128.00,50.689
1129.00,50.680
1130.00,50.644
1131.00,50.663
1132.00,50.635
1133.00,50.654
1134.00,50.629
1135.00,50.627
1136.00,50.620
1137.00,50.616
1138.00,50.610
1139.00,50.634
1140.00,50.602
1141.00,50.611
1142.00,50.593
1143.00,50.606
1144.00,50.580
1145.00,50.610
1146.00,50.606
1147.00,50.593
1148.00,50.568
1149.00,50.580
1150.00,50.572
1151.00,50.566
1152.00,50.557
1153.00,50.569
1154.00,50.542
1155.00,50.561
1156.00,50.530
1157.00,50.559
1158.00,50.549
1159.00,50.542
1160.00,50.529
1161.00,50.544
1162.00,50.535
1163.00,50.525
1164.00,50.544
1165.00,50.525
1166.00,50.533
1167.00,50.498
1168.00,50.523
1169.00,50.511
1170.00,50.504
1171.00,50.490
1172.00,50.516
1173.00,50.499
1174.00,50.505
1175.00,50.507
1176.00,50.506
1177.00,50.491
1178.00,50.485
1179.00,50.511
1180.00,50.490
1181.00,50.509
1182.00,50.489
1183.00,50.493
1184.00,50.460
1185.00,50.482
1186.00,50.469
1187.00,50.471
1188.00,50.474
1189.00,50.459
1190.00,50.478
1191.00,50.456
1192.00,50.472
1193.00,50.445
1194.00,50.469
1195.00,50.425
1196.00,50.450
1197.00,50.456
1198.00,50.431
1199.00,50.450
1200.00,50.453
1201.00,50.487
1202.00,50.447
1203.00,50.438
1204.00,50.448
1205.00,50.472
1206.00,50.448
1207.00,50.452
1208.00,50.437
1209.00,50.466
1210.00,50.470
1211.00,50.431
1212.00,50.456
1213.00,50.419
1214.00,50.450
1215.00,50.432
1216.00,50.447
1217.00,50.450
1218.00,50.431
1219.00,50.461
1220.00,50.419
1221.00,50.440
1222.00,50.406
1223.00,50.440
1224.00,50.439
1225.00,50.415
1226.00,50.420
1227.00,50.427
1228.00,50.434
1229.00,50.420
1230.00,50.469
1231.00,50.442
1232.00,50.471
1233.00,50.459
1234.00,50.453
1235.00,50.463
1236.00,50.435
1237.00,50.465
1238.00,50.450
1239.00,50.479
1240.00,50.458
1241.00,50.475
1242.00,50.471
1243.00,50.486
1244.00,50.460
1245.00,50.489
1246.00,50.501
1247.00,50.474
1248.00,50.479
1249.00,50.510
1250.00,50.508
1251.00,50.482
1252.00,50.506
1253.00,50.465
1254.00,50.484
1255.00,50.508
1256.00,50.482
1257.00,50.487
1258.00,50.527
1259.00,50.510
1260.00,50.546
1261.00,50.530
1262.00,50.526
1263.00,50.526
1264.00,50.513
1265.00,50.531
1266.00,50.516
1267.00,50.544
1268.00,50.549
1269.00,50.527
1270.00,50.543
1271.00,50.567
1272.00,50.568
1273.00,50.573
1274.00,50.568
1275.00,50.583
1276.00,50.571
1277.00,50.578
1278.00,50.567
1279.00,50.586
1280.00,50.567
1281.00,50.595
1282.00,50.608
1283.00,50.592
1284.00,50.610
1285.00,50.595
1286.00,50.608
1287.00,50.595
1288.00,50.609
1289.00,50.587
1290.00,50.636
1291.00,50.619
1292.00,50.623
1293.00,50.631
1294.00,50.645
1295.00,50.646
1296.00,50.657
1297.00,50.654
1298.00,50.711
1299.00,50.663
1300.00,50.683
1301.00,50.670
1302.00,50.705
1303.00,50.700
1304.00,50.693
1305.00,50.716
1306.00,50.710
1307.00,50.718
1308.00,50.694
1309.00,50.705
1310.00,50.701
1311.00,50.674
1312.00,50.730
1313.00,50.754
1314.00,50.728
1315.00,50.763
1316.00,50.746
1317.00,50.800
1318.00,50.772
1319.00,50.777
1320.00,50.776
1321.00,50.953
1322.00,50.936
1323.00,50.911
1324.00,50.904
1325.00,50.905
1326.00,50.968
1327.00,50.893
1328.00,50.910
1329.00,50.916
1330.00,50.902
1331.00,50.937
1332.00,50.930
1333.00,50.923
1334.00,50.951
1335.00,50.950
1336.00,50.995
1337.00,51.016
1338.00,51.067
1339.00,51.097
1340.00,51.152
1341.00,51.219
1342.00,51.287
1343.00,51.334
1344.00,51.390
1345.00,51.462
1346.00,51.476
1347.00,51.478
1348.00,51.542
1349.00,51.524
1350.00,51.554
1351.00,51.552
1352.00,51.584
1353.00,51.596
1354.00,51.591
1355.00,51.534
1356.00,51.625
1357.00,51.600
1358.00,51.637
1359.00,51.636
1360.00,51.682
1361.00,51.573
1362.00,51.547
1363.00,51.679
1364.00,51.739
1365.00,51.595
1366.00,51.680
1367.00,51.618
1368.00,51.574
1369.00,51.596
1370.00,51.601
1371.00,51.516
1372.00,51.561
1373.00,51.592
1374.00,51.625
1375.00,51.587
1376.00,51.599
1377.00,51.575
1378.00,51.643
1379.00,51.572
1380.00,51.639
1381.00,51.675
1382.00,51.498
1383.00,51.597
1384.00,51.494
1385.00,51.585
1386.00,51.615
1387.00,51.517
1388.00,51.508
1389.00,51.566
1390.00,51.611
1391.00,51.572
1392.00,51.558
1393.00,51.549
1394.00,51.592
1395.00,51.515
1396.00,51.411
1397.00,51.564
1398.00,51.595
1399.00,51.565
1400.00,51.557
1401.00,51.553
1402.00,51.613
1403.00,51.582
1404.00,51.621
1405.00,51.621
1406.00,51.659
1407.00,51.640
1408.00,51.633
1409.00,51.603
1410.00,51.671
1411.00,51.666
1412.00,51.724
1413.00,51.656
1414.00,51.669
1415.00,51.678
1416.00,51.691
1417.00,51.707
1418.00,51.682
1419.00,51.713
1420.00,51.735
1421.00,51.796
1422.00,51.788
1423.00,51.803
1424.00,51.775
1425.00,51.820
1426.00,51.809
1427.00,51.835
1428.00,51.820
1429.00,51.830
1430.00,51.843
1431.00,51.857
1432.00,51.864
1433.00,51.890
1434.00,51.866
1435.00,51.959
1436.00,51.955
1437.00,51.943
1438.00,51.952
1439.00,51.988
1440.00,52.009
1441.00,52.015
1442.00,52.047
1443.00,52.049
1444.00,52.108
1445.00,52.039
1446.00,52.081
1447.00,52.121
1448.00,52.167
1449.00,52.150
1450.00,52.150
1451.00,52.156
1452.00,52.191
1453.00,52.192
1454.00,52.218
1455.00,52.222
1456.00,52.246
1457.00,52.235
1458.00,52.303
1459.00,52.278
1460.00,52.295
1461.00,52.294
1462.00,52.334
1463.00,52.326
1464.00,52.345
1465.00,52.361
1466.00,52.369
1467.00,52.381
1468.00,52.454
1469.00,52.419
1470.00,52.437
1471.00,52.453
1472.00,52.471
1473.00,52.470
1474.00,52.502
1475.00,52.498
1476.00,52.525
1477.00,52.502
1478.00,52.540
1479.00,52.556
1480.00,52.558
1481.00,52.559
1482.00,52.595
1483.00,52.595
1484.00,52.619
1485.00,52.621
1486.00,52.641
1487.00,52.661
1488.00,52.679
1489.00,52.645
1490.00,52.665
1491.00,52.687
1492.00,52.724
1493.00,52.701
1494.00,52.751
1495.00,52.720
1496.00,52.768
1497.00,52.739
1498.00,52.765
1499.00,52.791
1500.00,52.794
1501.00, 
1502.00, 
1503.00, 
1504.00, 
1505.00, 
1506.00, 
1507.00, 
1508.00, 
1509.00, 
1510.00, 
1511.00, 
1512.00, 
1513.00, 
1514.00, 
1515.00, 
1516.00, 
1517.00, 
1518.00, 
1519.00, 
1520.00, 
1521.00, 
1522.00, 
1523.00, 
1524.00, 
1525.00, 
1526.00, 
1527.00, 
1528.00, 
1529.00, 
1530.00, 
1531.00, 
1532.00, 
1533.00, 
1534.00, 
1535.00, 
1536.00, 
1537.00, 
1538.00, 
1539.00, 
1540.00, 
1541.00, 
1542.00, 
1543.00, 
1544.00, 
1545.00, 
1546.00, 
1547.00, 
1548.00, 
1549.00, 
1550.00, 
1551.00, 
1552.00, 
1553.00, 
1554.00, 
1555.00, 
1556.00, 
1557.00, 
1558.00, 
1559.00, 
1560.00, 
1561.00, 
1562.00, 
1563.00, 
1564.00, 
1565.00, 
1566.00, 
1567.00, 
1568.00, 
1569.00, 
1570.00, 
1571.00, 
1572.00, 
1573.00, 
1574.00, 
1575.00, 
1576.00, 
1577.00, 
1578.00, 
1579.00, 
1580.00, 
1581.00, 
1582.00, 
1583.00, 
1584.00, 
1585.00, 
1586.00, 
1587.00, 
1588.00, 
1589.00, 
1590.00, 
1591.00, 
1592.00, 
1593.00, 
1594.00, 
1595.00, 
1596.00, 
1597.00, 
1598.00, 
1599.00, 
1600.00, 
1601.00, 
1602.00, 
1603.00, 
1604.00, 
1605.00, 
1606.00, 
1607.00, 
1608.00, 
1609.00, 
1610.00, 
1611.00, 
1612.00, 
1613.00, 
1614.00, 
1615.00, 
1616.00, 
1617.00, 
1618.00, 
1619.00, 
1620.00, 
1621.00, 
1622.00, 
1623.00, 
1624.00, 
1625.00, 
1626.00, 
1627.00, 
1628.00, 
1629.00, 
1630.00, 
1631.00, 
1632.00, 
1633.00, 
1634.00, 
1635.00, 
1636.00, 
1637.00, 
1638.00, 
1639.00, 
1640.00, 
1641.00, 
1642.00, 
1643.00, 
1644.00, 
1645.00, 
1646.00, 
1647.00, 
1648.00, 
1649.00, 
1650.00, 
1651.00, 
1652.00, 
1653.00, 
1654.00, 
1655.00, 
1656.00, 
1657.00, 
1658.00, 
1659.00, 
1660.00, 
1661.00, 
1662.00, 
1663.00, 
1664.00, 
1665.00, 
1666.00, 
1667.00, 
1668.00, 
1669.00, 
1670.00, 
1671.00, 
1672.00, 
1673.00, 
1674.00, 
1675.00, 
1676.00, 
1677.00, 
1678.00, 
1679.00, 
1680.00, 
1681.00, 
1682.00, 
1683.00, 
1684.00, 
1685.00, 
1686.00, 
1687.00, 
1688.00, 
1689.00, 
1690.00, 
1691.00, 
1692.00, 
1693.00, 
1694.00, 
1695.00, 
1696.00, 
1697.00, 
1698.00, 
1699.00, 
1700.00, 
1701.00, 
1702.00, 
1703.00, 
1704.00, 
1705.00, 
1706.00, 
1707.00, 
1708.00, 
1709.00, 
1710.00, 
1711.00, 
1712.00, 
1713.00, 
1714.00, 
1715.00, 
1716.00, 
1717.00, 
1718.00, 
1719.00, 
1720.00, 
1721.00, 
1722.00, 
1723.00, 
1724.00, 
1725.00, 
1726.00, 
1727.00, 
1728.00, 
1729.00, 
1730.00, 
1731.00, 
1732.00, 
1733.00, 
1734.00, 
1735.00, 
1736.00, 
1737.00, 
1738.00, 
1739.00, 
1740.00, 
1741.00, 
1742.00, 
1743.00, 
1744.00, 
1745.00, 
1746.00, 
1747.00, 
1748.00, 
1749.00, 
1750.00, 
1751.00, 
1752.00, 
1753.00, 
1754.00, 
1755.00, 
1756.00, 
1757.00, 
1758.00, 
1759.00, 
1760.00, 
1761.00, 
1762.00, 
1763.00, 
1764.00, 
1765.00, 
1766.00, 
1767.00, 
1768.00, 
1769.00, 
1770.00, 
1771.00, 
1772.00, 
1773.00, 
1774.00, 
1775.00, 
1776.00, 
1777.00, 
1778.00, 
1779.00, 
1780.00, 
1781.00, 
1782.00, 
1783.00, 
1784.00, 
1785.00, 
1786.00, 
1787.00, 
1788.00, 
1789.00, 
1790.00, 
1791.00, 
1792.00, 
1793.00, 
1794.00, 
1795.00, 
1796.00, 
1797.00, 
1798.00, 
1799.00, 
1800.00, 
1801.00, 
1802.00, 
1803.00, 
1804.00, 
1805.00, 
1806.00, 
1807.00, 
1808.00, 
1809.00, 
1810.00, 
1811.00, 
1812.00, 
1813.00, 
1814.00, 
1815.00, 
1816.00, 
1817.00, 
1818.00, 
1819.00, 
1820.00, 
1821.00, 
1822.00, 
1823.00, 
1824.00, 
1825.00, 
1826.00, 
1827.00, 
1828.00, 
1829.00, 
1830.00, 
1831.00, 
1832.00, 
1833.00, 
1834.00, 
1835.00, 
1836.00, 
1837.00, 
1838.00, 
1839.00, 
1840.00, 
1841.00, 
1842.00, 
1843.00, 
1844.00, 
1845.00, 
1846.00, 
1847.00, 
1848.00, 
1849.00, 
1850.00, 
1851.00, 
1852.00, 
1853.00, 
1854.00, 
1855.00, 
1856.00, 
1857.00, 
1858.00, 
1859.00, 
1860.00, 
1861.00, 
1862.00, 
1863.00, 
1864.00, 
1865.00, 
1866.00, 
1867.00, 
1868.00, 
1869.00, 
1870.00, 
1871.00, 
1872.00, 
1873.00, 
1874.00, 
1875.00, 
1876.00, 
1877.00, 
1878.00, 
1879.00, 
1880.00, 
1881.00, 
1882.00, 
1883.00, 
1884.00, 
1885.00, 
1886.00, 
1887.00, 
1888.00, 
1889.00, 
1890.00, 
1891.00, 
1892.00, 
1893.00, 
1894.00, 
1895.00, 
1896.00, 
1897.00, 
1898.00, 
1899.00, 
1900.00, 
1901.00, 
1902.00, 
1903.00, 
1904.00, 
1905.00, 
1906.00, 
1907.00, 
1908.00, 
1909.00, 
1910.00, 
1911.00, 
1912.00, 
1913.00, 
1914.00, 
1915.00, 
1916.00, 
1917.00, 
1918.00, 
1919.00, 
1920.00, 
1921.00, 
1922.00, 
1923.00, 
1924.00, 
1925.00, 
1926.00, 
1927.00, 
1928.00, 
1929.00, 
1930.00, 
1931.00, 
1932.00, 
1933.00, 
1934.00, 
1935.00, 
1936.00, 
1937.00, 
1938.00, 
1939.00, 
1940.00, 
1941.00, 
1942.00, 
1943.00, 
1944.00, 
1945.00, 
1946.00, 
1947.00, 
1948.00, 
1949.00, 
1950.00, 
1951.00, 
1952.00, 
1953.00, 
1954.00, 
1955.00, 
1956.00, 
1957.00, 
1958.00, 
1959.00, 
1960.00, 
1961.00, 
1962.00, 
1963.00, 
1964.00, 
1965.00, 
1966.00, 
1967.00, 
1968.00, 
1969.00, 
1970.00, 
1971.00, 
1972.00, 
1973.00, 
1974.00, 
1975.00, 
1976.00, 
1977.00, 
1978.00, 
1979.00, 
1980.00, 
1981.00, 
1982.00, 
1983.00, 
1984.00, 
1985.00, 
1986.00, 
1987.00, 
1988.00, 
1989.00, 
1990.00, 
1991.00, 
1992.00, 
1993.00, 
1994.00, 
1995.00, 
1996.00, 
1997.00, 
1998.00, 
1999.00, 
2000.00, 
2001.00, 
2002.00, 
2003.00, 
2004.00, 
2005.00, 
2006.00, 
2007.00, 
2008.00, 
2009.00, 
2010.00, 
2011.00, 
2012.00, 
2013.00, 
2014.00, 
2015.00, 
2016.00, 
2017.00, 
2018.00, 
2019.00, 
2020.00, 
2021.00, 
2022.00, 
2023.00, 
2024.00, 
2025.00, 
2026.00, 
2027.00, 
2028.00, 
2029.00, 
2030.00, 
2031.00, 
2032.00, 
2033.00, 
2034.00, 
2035.00, 
2036.00, 
2037.00, 
2038.00, 
2039.00, 
2040.00, 
2041.00, 
2042.00, 
2043.00, 
2044.00, 
2045.00, 
2046.00, 
2047.00, 
2048.00, 
2049.00, 
2050.00, 
2051.00, 
2052.00, 
2053.00, 
2054.00, 
2055.00, 
2056.00, 
2057.00, 
2058.00, 
2059.00, 
2060.00, 
2061.00, 
2062.00, 
2063.00, 
2064.00, 
2065.00, 
2066.00, 
2067.00, 
2068.00, 
2069.00, 
2070.00, 
2071.00, 
2072.00, 
2073.00, 
2074.00, 
2075.00, 
2076.00, 
2077.00, 
2078.00, 
2079.00, 
2080.00, 
2081.00, 
2082.00, 
2083.00, 
2084.00, 
2085.00, 
2086.00, 
2087.00, 
2088.00, 
2089.00, 
2090.00, 
2091.00, 
2092.00, 
2093.00, 
2094.00, 
2095.00, 
2096.00, 
2097.00, 
2098.00, 
2099.00, 
2100.00, 
2101.00, 
2102.00, 
2103.00, 
2104.00, 
2105.00, 
2106.00, 
2107.00, 
2108.00, 
2109.00, 
2110.00, 
2111.00, 
2112.00, 
2113.00, 
2114.00, 
2115.00, 
2116.00, 
2117.00, 
2118.00, 
2119.00, 
2120.00, 
2121.00, 
2122.00, 
2123.00, 
2124.00, 
2125.00, 
2126.00, 
2127.00, 
2128.00, 
2129.00, 
2130.00, 
2131.00, 
2132.00, 
2133.00, 
2134.00, 
2135.00, 
2136.00, 
2137.00, 
2138.00, 
2139.00, 
2140.00, 
2141.00, 
2142.00, 
2143.00, 
2144.00, 
2145.00, 
2146.00, 
2147.00, 
2148.00, 
2149.00, 
2150.00, 
2151.00, 
2152.00, 
2153.00, 
2154.00, 
2155.00, 
2156.00, 
2157.00, 
2158.00, 
2159.00, 
2160.00, 
2161.00, 
2162.00, 
2163.00, 
2164.00, 
2165.00, 
2166.00, 
2167.00, 
2168.00, 
2169.00, 
2170.00, 
2171.00, 
2172.00, 
2173.00, 
2174.00, 
2175.00, 
2176.00, 
2177.00, 
2178.00, 
2179.00, 
2180.00, 
2181.00, 
2182.00, 
2183.00, 
2184.00, 
2185.00, 
2186.00, 
2187.00, 
2188.00, 
2189.00, 
2190.00, 
2191.00, 
2192.00, 
2193.00, 
2194.00, 
2195.00, 
2196.00, 
2197.00, 
2198.00, 
2199.00, 
2200.00, 
2201.00, 
2202.00, 
2203.00, 
2204.00, 
2205.00, 
2206.00, 
2207.00, 
2208.00, 
2209.00, 
2210.00, 
2211.00, 
2212.00, 
2213.00, 
2214.00, 
2215.00, 
2216.00, 
2217.00, 
2218.00, 
2219.00, 
2220.00, 
2221.00, 
2222.00, 
2223.00, 
2224.00, 
2225.00, 
2226.00, 
2227.00, 
2228.00, 
2229.00, 
2230.00, 
2231.00, 
2232.00, 
2233.00, 
2234.00, 
2235.00, 
2236.00, 
2237.00, 
2238.00, 
2239.00, 
2240.00, 
2241.00, 
2242.00, 
2243.00, 
2244.00, 
2245.00, 
2246.00, 
2247.00, 
2248.00, 
2249.00, 
2250.00, 
2251.00, 
2252.00, 
2253.00, 
2254.00, 
2255.00, 
2256.00, 
2257.00, 
2258.00, 
2259.00, 
2260.00, 
2261.00, 
2262.00, 
2263.00, 
2264.00, 
2265.00, 
2266.00, 
2267.00, 
2268.00, 
2269.00, 
2270.00, 
2271.00, 
2272.00, 
2273.00, 
2274.00, 
2275.00, 
2276.00, 
2277.00, 
2278.00, 
2279.00, 
2280.00, 
2281.00, 
2282.00, 
2283.00, 
2284.00, 
2285.00, 
2286.00, 
2287.00, 
2288.00, 
2289.00, 
2290.00, 
2291.00, 
2292.00, 
2293.00, 
2294.00, 
2295.00, 
2296.00, 
2297.00, 
2298.00, 
2299.00, 
2300.00, 
2301.00, 
2302.00, 
2303.00, 
2304.00, 
2305.00, 
2306.00, 
2307.00, 
2308.00, 
2309.00, 
2310.00, 
2311.00, 
2312.00, 
2313.00, 
2314.00, 
2315.00, 
2316.00, 
2317.00, 
2318.00, 
2319.00, 
2320.00, 
2321.00, 
2322.00, 
2323.00, 
2324.00, 
2325.00, 
2326.00, 
2327.00, 
2328.00, 
2329.00, 
2330.00, 
2331.00, 
2332.00, 
2333.00, 
2334.00, 
2335.00, 
2336.00, 
2337.00, 
2338.00, 
2339.00, 
2340.00, 
2341.00, 
2342.00, 
2343.00, 
2344.00, 
2345.00, 
2346.00, 
2347.00, 
2348.00, 
2349.00, 
2350.00, 
2351.00, 
2352.00, 
2353.00, 
2354.00, 
2355.00, 
2356.00, 
2357.00, 
2358.00, 
2359.00, 
2360.00, 
2361.00, 
2362.00, 
2363.00, 
2364.00, 
2365.00, 
2366.00, 
2367.00, 
2368.00, 
2369.00, 
2370.00, 
2371.00, 
2372.00, 
2373.00, 
2374.00, 
2375.00, 
2376.00, 
2377.00, 
2378.00, 
2379.00, 
2380.00, 
2381.00, 
2382.00, 
2383.00, 
2384.00, 
2385.00, 
2386.00, 
2387.00, 
2388.00, 
2389.00, 
2390.00, 
2391.00, 
2392.00, 
2393.00, 
2394.00, 
2395.00, 
2396.00, 
2397.00, 
2398.00, 
2399.00, 
2400.00, 
2401.00, 
2402.00, 
2403.00, 
2404.00, 
2405.00, 
2406.00, 
2407.00, 
2408.00, 
2409.00, 
2410.00, 
2411.00, 
2412.00, 
2413.00, 
2414.00, 
2415.00, 
2416.00, 
2417.00, 
2418.00, 
2419.00, 
2420.00, 
2421.00, 
2422.00, 
2423.00, 
2424.00, 
2425.00, 
2426.00, 
2427.00, 
2428.00, 
2429.00, 
2430.00, 
2431.00, 
2432.00, 
2433.00, 
2434.00, 
2435.00, 
2436.00, 
2437.00, 
2438.00, 
2439.00, 
2440.00, 
2441.00, 
2442.00, 
2443.00, 
2444.00, 
2445.00, 
2446.00, 
2447.00, 
2448.00, 
2449.00, 
2450.00, 
2451.00, 
2452.00, 
2453.00, 
2454.00, 
2455.00, 
2456.00, 
2457.00, 
2458.00, 
2459.00, 
2460.00, 
2461.00, 
2462.00, 
2463.00, 
2464.00, 
2465.00, 
2466.00, 
2467.00, 
2468.00, 
2469.00, 
2470.00, 
2471.00, 
2472.00, 
2473.00, 
2474.00, 
2475.00, 
2476.00, 
2477.00, 
2478.00, 
2479.00, 
2480.00, 
2481.00, 
2482.00, 
2483.00, 
2484.00, 
2485.00, 
2486.00, 
2487.00, 
2488.00, 
2489.00, 
2490.00, 
2491.00, 
2492.00, 
2493.00, 
2494.00, 
2495.00, 
2496.00, 
2497.00, 
2498.00, 
2499.00, 
2500.00, 
2501.00, 
2502.00, 
2503.00, 
2504.00, 
2505.00, 
2506.00, 
2507.00, 
2508.00, 
2509.00, 
2510.00, 
2511.00, 
2512.00, 
2513.00, 
2514.00, 
2515.00, 
2516.00, 
2517.00, 
2518.00, 
2519.00, 
2520.00, 
2521.00, 
2522.00, 
2523.00, 
2524.00, 
2525.00, 
2526.00, 
2527.00, 
2528.00, 
2529.00, 
2530.00, 
2531.00, 
2532.00, 
2533.00, 
2534.00, 
2535.00, 
2536.00, 
2537.00, 
2538.00, 
2539.00, 
2540.00, 
2541.00, 
2542.00, 
2543.00, 
2544.00, 
2545.00, 
2546.00, 
2547.00, 
2548.00, 
2549.00, 
2550.00, 
2551.00, 
2552.00, 
2553.00, 
2554.00, 
2555.00, 
2556.00, 
2557.00, 
2558.00, 
2559.00, 
2560.00, 
2561.00, 
2562.00, 
2563.00, 
2564.00, 
2565.00, 
2566.00, 
2567.00, 
2568.00, 
2569.00, 
2570.00, 
2571.00, 
2572.00, 
2573.00, 
2574.00, 
2575.00, 
2576.00, 
2577.00, 
2578.00, 
2579.00, 
2580.00, 
2581.00, 
2582.00, 
2583.00, 
2584.00, 
2585.00, 
2586.00, 
2587.00, 
2588.00, 
2589.00, 
2590.00, 
2591.00, 
2592.00, 
2593.00, 
2594.00, 
2595.00, 
2596.00, 
2597.00, 
2598.00, 
2599.00, 
2600.00, 
