"2bP2 - RawData"
"Wavelength nm.","T%"
200.00,0.003
201.00,0.000
202.00,0.003
203.00,-0.000
204.00,0.001
205.00,0.004
206.00,0.000
207.00,0.001
208.00,-0.001
209.00,0.000
210.00,-0.000
211.00,0.002
212.00,-0.000
213.00,0.001
214.00,-0.000
215.00,0.001
216.00,0.000
217.00,-0.001
218.00,0.003
219.00,-0.000
220.00,0.000
221.00,0.000
222.00,-0.001
223.00,-0.001
224.00,-0.000
225.00,0.001
226.00,-0.000
227.00,-0.001
228.00,-0.000
229.00,0.001
230.00,0.002
231.00,-0.001
232.00,-0.000
233.00,0.001
234.00,-0.001
235.00,0.001
236.00,0.003
237.00,-0.001
238.00,0.000
239.00,-0.000
240.00,-0.002
241.00,-0.001
242.00,0.000
243.00,0.001
244.00,0.001
245.00,-0.001
246.00,-0.001
247.00,-0.001
248.00,0.002
249.00,-0.000
250.00,0.002
251.00,0.002
252.00,-0.000
253.00,0.002
254.00,-0.001
255.00,0.001
256.00,-0.001
257.00,0.000
258.00,-0.001
259.00,0.002
260.00,0.003
261.00,0.001
262.00,0.001
263.00,-0.001
264.00,0.001
265.00,-0.000
266.00,-0.002
267.00,0.000
268.00,0.000
269.00,0.001
270.00,0.001
271.00,0.002
272.00,0.000
273.00,-0.001
274.00,-0.000
275.00,-0.000
276.00,-0.001
277.00,-0.001
278.00,0.002
279.00,-0.000
280.00,-0.000
281.00,0.001
282.00,0.001
283.00,-0.000
284.00,0.002
285.00,0.000
286.00,-0.000
287.00,0.001
288.00,-0.001
289.00,-0.001
290.00,0.001
291.00,-0.000
292.00,-0.001
293.00,0.000
294.00,-0.000
295.00,-0.000
296.00,-0.001
297.00,0.000
298.00,0.002
299.00,-0.000
300.00,0.004
301.00,0.004
302.00,0.006
303.00,0.009
304.00,0.012
305.00,0.020
306.00,0.028
307.00,0.042
308.00,0.063
309.00,0.099
310.00,0.140
311.00,0.185
312.00,0.249
313.00,0.336
314.00,0.434
315.00,0.544
316.00,0.697
317.00,0.893
318.00,1.102
319.00,1.336
320.00,1.612
321.00,1.905
322.00,2.258
323.00,2.636
324.00,3.049
325.00,3.457
326.00,3.897
327.00,4.370
328.00,4.859
329.00,5.365
330.00,5.892
331.00,6.407
332.00,6.926
333.00,7.505
334.00,8.032
335.00,8.565
336.00,9.107
337.00,9.631
338.00,10.148
339.00,10.624
340.00,11.138
341.00,11.612
342.00,12.036
343.00,12.470
344.00,12.886
345.00,13.302
346.00,13.670
347.00,14.009
348.00,14.311
349.00,14.658
350.00,14.906
351.00,15.204
352.00,15.415
353.00,15.659
354.00,15.892
355.00,16.090
356.00,16.295
357.00,16.487
358.00,16.583
359.00,16.815
360.00,16.905
361.00,16.994
362.00,17.149
363.00,17.227
364.00,17.261
365.00,17.349
366.00,17.378
367.00,17.438
368.00,17.460
369.00,17.476
370.00,17.540
371.00,17.522
372.00,17.488
373.00,17.485
374.00,17.470
375.00,17.460
376.00,17.416
377.00,17.331
378.00,17.277
379.00,17.182
380.00,17.195
381.00,17.148
382.00,17.118
383.00,17.116
384.00,17.112
385.00,17.122
386.00,17.098
387.00,17.164
388.00,17.209
389.00,17.116
390.00,17.147
391.00,17.119
392.00,17.148
393.00,17.092
394.00,17.137
395.00,17.154
396.00,17.103
397.00,17.102
398.00,17.110
399.00,17.103
400.00,17.052
401.00,17.048
402.00,17.058
403.00,17.043
404.00,17.028
405.00,17.017
406.00,16.950
407.00,16.955
408.00,16.935
409.00,16.904
410.00,16.881
411.00,16.880
412.00,16.839
413.00,16.875
414.00,16.826
415.00,16.872
416.00,16.913
417.00,16.850
418.00,16.900
419.00,16.964
420.00,17.001
421.00,17.000
422.00,17.016
423.00,17.074
424.00,17.105
425.00,17.121
426.00,17.137
427.00,17.189
428.00,17.233
429.00,17.264
430.00,17.340
431.00,17.378
432.00,17.411
433.00,17.471
434.00,17.501
435.00,17.578
436.00,17.642
437.00,17.692
438.00,17.772
439.00,17.830
440.00,17.898
441.00,17.976
442.00,18.068
443.00,18.120
444.00,18.238
445.00,18.301
446.00,18.397
447.00,18.501
448.00,18.586
449.00,18.720
450.00,18.806
451.00,18.874
452.00,18.988
453.00,19.096
454.00,19.169
455.00,19.295
456.00,19.427
457.00,19.528
458.00,19.589
459.00,19.764
460.00,19.902
461.00,20.008
462.00,20.131
463.00,20.296
464.00,20.396
465.00,20.500
466.00,20.669
467.00,20.817
468.00,20.888
469.00,21.014
470.00,21.121
471.00,21.232
472.00,21.375
473.00,21.466
474.00,21.604
475.00,21.722
476.00,21.825
477.00,21.979
478.00,22.095
479.00,22.281
480.00,22.383
481.00,22.512
482.00,22.651
483.00,22.842
484.00,23.020
485.00,23.168
486.00,23.329
487.00,23.472
488.00,23.640
489.00,23.801
490.00,23.956
491.00,24.098
492.00,24.328
493.00,24.488
494.00,24.494
495.00,24.621
496.00,24.746
497.00,24.903
498.00,25.038
499.00,25.195
500.00,25.346
501.00,25.475
502.00,25.582
503.00,25.788
504.00,25.852
505.00,25.996
506.00,26.107
507.00,26.212
508.00,26.360
509.00,26.546
510.00,26.659
511.00,26.767
512.00,26.947
513.00,27.099
514.00,27.224
515.00,27.349
516.00,27.466
517.00,27.580
518.00,27.705
519.00,27.813
520.00,27.911
521.00,27.952
522.00,27.974
523.00,28.107
524.00,28.272
525.00,28.408
526.00,28.510
527.00,28.559
528.00,28.661
529.00,28.884
530.00,28.999
531.00,29.102
532.00,29.193
533.00,29.290
534.00,29.400
535.00,29.475
536.00,29.577
537.00,29.677
538.00,29.725
539.00,29.785
540.00,29.902
541.00,29.892
542.00,30.029
543.00,30.102
544.00,30.200
545.00,30.246
546.00,30.282
547.00,30.426
548.00,30.541
549.00,30.619
550.00,30.689
551.00,30.791
552.00,30.855
553.00,30.903
554.00,30.997
555.00,31.029
556.00,31.098
557.00,31.188
558.00,31.249
559.00,31.275
560.00,31.364
561.00,31.489
562.00,31.506
563.00,31.613
564.00,31.650
565.00,31.646
566.00,31.620
567.00,31.761
568.00,31.741
569.00,31.880
570.00,31.918
571.00,31.973
572.00,32.003
573.00,32.024
574.00,32.084
575.00,32.103
576.00,32.108
577.00,32.164
578.00,32.299
579.00,32.350
580.00,32.375
581.00,32.544
582.00,32.633
583.00,32.665
584.00,32.744
585.00,32.758
586.00,32.851
587.00,32.904
588.00,32.947
589.00,32.924
590.00,33.028
591.00,33.098
592.00,33.042
593.00,33.060
594.00,33.217
595.00,33.284
596.00,33.338
597.00,33.441
598.00,33.480
599.00,33.502
600.00,33.562
601.00,33.612
602.00,33.666
603.00,33.680
604.00,33.751
605.00,33.844
606.00,33.839
607.00,33.878
608.00,34.092
609.00,34.121
610.00,33.999
611.00,34.047
612.00,34.152
613.00,34.223
614.00,34.265
615.00,34.408
616.00,34.486
617.00,34.521
618.00,34.558
619.00,34.673
620.00,34.710
621.00,34.709
622.00,34.823
623.00,34.885
624.00,34.959
625.00,34.993
626.00,35.089
627.00,35.138
628.00,35.177
629.00,35.297
630.00,35.337
631.00,35.435
632.00,35.508
633.00,35.633
634.00,35.746
635.00,35.827
636.00,35.889
637.00,35.959
638.00,36.023
639.00,36.154
640.00,36.236
641.00,36.273
642.00,36.361
643.00,36.452
644.00,36.538
645.00,36.678
646.00,36.789
647.00,36.864
648.00,36.962
649.00,36.997
650.00,37.109
651.00,37.311
652.00,37.374
653.00,37.387
654.00,37.493
655.00,37.752
656.00,38.044
657.00,37.858
658.00,37.906
659.00,38.178
660.00,38.282
661.00,38.363
662.00,38.387
663.00,38.514
664.00,38.747
665.00,38.927
666.00,38.869
667.00,38.950
668.00,39.036
669.00,39.353
670.00,39.607
671.00,39.507
672.00,39.599
673.00,39.692
674.00,39.814
675.00,39.921
676.00,40.135
677.00,40.343
678.00,40.171
679.00,40.404
680.00,40.525
681.00,40.721
682.00,40.772
683.00,40.827
684.00,41.025
685.00,41.224
686.00,41.175
687.00,41.257
688.00,41.331
689.00,41.393
690.00,41.765
691.00,42.043
692.00,41.823
693.00,41.854
694.00,42.051
695.00,42.241
696.00,42.319
697.00,42.412
698.00,42.512
699.00,42.909
700.00,42.902
701.00,42.873
702.00,43.057
703.00,43.283
704.00,43.340
705.00,43.271
706.00,43.432
707.00,43.493
708.00,43.696
709.00,44.148
710.00,43.823
711.00,43.716
712.00,44.003
713.00,44.144
714.00,44.308
715.00,44.359
716.00,44.416
717.00,44.566
718.00,44.538
719.00,44.692
720.00,44.889
721.00,49.281
722.00,49.330
723.00,49.268
724.00,49.367
725.00,49.421
726.00,49.527
727.00,49.583
728.00,49.552
729.00,49.592
730.00,49.673
731.00,49.818
732.00,49.815
733.00,49.881
734.00,49.894
735.00,49.962
736.00,50.027
737.00,50.112
738.00,50.249
739.00,50.264
740.00,50.302
741.00,50.461
742.00,50.450
743.00,50.516
744.00,50.458
745.00,50.565
746.00,50.574
747.00,50.643
748.00,50.632
749.00,50.593
750.00,50.726
751.00,50.755
752.00,50.694
753.00,50.739
754.00,50.837
755.00,50.789
756.00,50.858
757.00,50.985
758.00,50.959
759.00,50.950
760.00,50.998
761.00,50.989
762.00,51.098
763.00,51.136
764.00,51.116
765.00,51.120
766.00,51.207
767.00,51.252
768.00,51.300
769.00,51.312
770.00,51.395
771.00,51.393
772.00,51.368
773.00,51.397
774.00,51.444
775.00,51.507
776.00,51.511
777.00,51.516
778.00,51.566
779.00,51.624
780.00,51.615
781.00,51.685
782.00,51.639
783.00,51.618
784.00,51.745
785.00,51.621
786.00,51.746
787.00,51.652
788.00,51.611
789.00,51.775
790.00,51.756
791.00,51.733
792.00,51.762
793.00,51.684
794.00,51.662
795.00,51.745
796.00,51.781
797.00,51.691
798.00,51.801
799.00,51.710
800.00,51.724
801.00,51.747
802.00,51.696
803.00,51.823
804.00,51.676
805.00,51.789
806.00,51.632
807.00,51.729
808.00,51.758
809.00,51.748
810.00,51.625
811.00,51.681
812.00,51.728
813.00,51.679
814.00,51.746
815.00,51.666
816.00,51.734
817.00,51.767
818.00,51.593
819.00,51.662
820.00,51.707
821.00,51.620
822.00,51.631
823.00,51.570
824.00,51.654
825.00,51.555
826.00,51.609
827.00,51.698
828.00,51.751
829.00,51.667
830.00,51.671
831.00,54.078
832.00,54.095
833.00,54.039
834.00,54.090
835.00,53.996
836.00,54.044
837.00,54.019
838.00,54.005
839.00,53.998
840.00,53.898
841.00,54.022
842.00,53.945
843.00,53.960
844.00,53.967
845.00,53.932
846.00,53.919
847.00,53.900
848.00,53.932
849.00,53.824
850.00,53.886
851.00,53.766
852.00,53.818
853.00,53.747
854.00,53.729
855.00,53.696
856.00,53.754
857.00,53.551
858.00,53.634
859.00,53.634
860.00,53.608
861.00,53.690
862.00,53.560
863.00,53.638
864.00,53.588
865.00,53.615
866.00,53.600
867.00,53.621
868.00,53.612
869.00,53.542
870.00,53.629
871.00,53.565
872.00,53.566
873.00,53.508
874.00,53.545
875.00,53.481
876.00,53.531
877.00,53.493
878.00,53.503
879.00,53.480
880.00,53.513
881.00,53.469
882.00,53.514
883.00,53.463
884.00,53.439
885.00,53.401
886.00,53.437
887.00,53.381
888.00,53.350
889.00,53.352
890.00,53.373
891.00,53.315
892.00,53.274
893.00,53.445
894.00,53.297
895.00,53.256
896.00,53.235
897.00,53.249
898.00,53.211
899.00,53.236
900.00,53.199
901.00,53.165
902.00,53.222
903.00,53.144
904.00,53.135
905.00,53.109
906.00,53.123
907.00,53.084
908.00,53.053
909.00,53.057
910.00,53.032
911.00,53.000
912.00,53.026
913.00,52.973
914.00,52.979
915.00,52.978
916.00,52.949
917.00,52.901
918.00,52.903
919.00,52.909
920.00,52.864
921.00,52.891
922.00,52.847
923.00,52.834
924.00,52.765
925.00,52.787
926.00,52.740
927.00,52.762
928.00,52.685
929.00,52.735
930.00,52.656
931.00,52.700
932.00,52.638
933.00,52.660
934.00,52.641
935.00,52.611
936.00,52.575
937.00,52.547
938.00,52.670
939.00,52.559
940.00,52.505
941.00,52.523
942.00,52.481
943.00,52.488
944.00,52.419
945.00,52.443
946.00,52.456
947.00,52.395
948.00,52.409
949.00,52.366
950.00,52.373
951.00,52.330
952.00,52.342
953.00,52.269
954.00,52.294
955.00,52.240
956.00,52.248
957.00,52.204
958.00,52.225
959.00,52.162
960.00,52.161
961.00,52.155
962.00,52.166
963.00,52.104
964.00,52.087
965.00,52.108
966.00,52.092
967.00,52.094
968.00,52.050
969.00,52.095
970.00,52.054
971.00,52.068
972.00,52.021
973.00,52.049
974.00,52.094
975.00,52.020
976.00,52.067
977.00,52.055
978.00,52.098
979.00,52.059
980.00,52.047
981.00,52.091
982.00,52.006
983.00,52.054
984.00,52.022
985.00,52.048
986.00,51.962
987.00,52.054
988.00,51.976
989.00,51.965
990.00,51.983
991.00,51.957
992.00,51.983
993.00,51.936
994.00,51.923
995.00,51.938
996.00,51.912
997.00,51.924
998.00,51.880
999.00,51.909
1000.00,51.844
1001.00,51.826
1002.00,51.832
1003.00,51.821
1004.00,51.830
1005.00,51.776
1006.00,51.825
1007.00,51.771
1008.00,51.762
1009.00,51.767
1010.00,51.750
1011.00,51.750
1012.00,51.708
1013.00,51.718
1014.00,51.683
1015.00,51.683
1016.00,51.619
1017.00,51.620
1018.00,51.645
1019.00,51.591
1020.00,51.606
1021.00,51.575
1022.00,51.586
1023.00,51.537
1024.00,51.545
1025.00,51.528
1026.00,51.516
1027.00,51.491
1028.00,51.477
1029.00,51.475
1030.00,51.426
1031.00,51.442
1032.00,51.394
1033.00,51.400
1034.00,51.365
1035.00,51.330
1036.00,51.334
1037.00,51.310
1038.00,51.290
1039.00,51.261
1040.00,51.258
1041.00,51.219
1042.00,51.226
1043.00,51.202
1044.00,51.228
1045.00,51.208
1046.00,51.175
1047.00,51.214
1048.00,51.210
1049.00,51.240
1050.00,51.227
1051.00,51.266
1052.00,51.245
1053.00,51.290
1054.00,51.278
1055.00,51.298
1056.00,51.311
1057.00,51.294
1058.00,51.286
1059.00,51.279
1060.00,51.309
1061.00,51.288
1062.00,51.298
1063.00,51.312
1064.00,51.294
1065.00,51.263
1066.00,51.250
1067.00,51.236
1068.00,51.266
1069.00,51.211
1070.00,51.209
1071.00,51.180
1072.00,51.208
1073.00,51.177
1074.00,51.178
1075.00,51.170
1076.00,51.171
1077.00,51.145
1078.00,51.119
1079.00,51.117
1080.00,51.118
1081.00,51.117
1082.00,51.113
1083.00,51.111
1084.00,51.091
1085.00,51.100
1086.00,51.084
1087.00,51.077
1088.00,51.057
1089.00,51.062
1090.00,51.048
1091.00,51.068
1092.00,51.038
1093.00,51.040
1094.00,51.012
1095.00,51.028
1096.00,51.003
1097.00,51.000
1098.00,50.988
1099.00,50.989
1100.00,50.968
1101.00,50.959
1102.00,50.935
1103.00,50.949
1104.00,50.913
1105.00,50.910
1106.00,50.896
1107.00,50.900
1108.00,50.894
1109.00,50.915
1110.00,50.878
1111.00,50.870
1112.00,50.856
1113.00,50.858
1114.00,50.858
1115.00,50.866
1116.00,50.824
1117.00,50.800
1118.00,50.794
1119.00,50.807
1120.00,50.783
1121.00,50.776
1122.00,50.772
1123.00,50.764
1124.00,50.750
1125.00,50.752
1126.00,50.742
1127.00,50.745
1128.00,50.717
1129.00,50.720
1130.00,50.699
1131.00,50.711
1132.00,50.678
1133.00,50.694
1134.00,50.674
1135.00,50.675
1136.00,50.671
1137.00,50.670
1138.00,50.659
1139.00,50.687
1140.00,50.675
1141.00,50.661
1142.00,50.648
1143.00,50.677
1144.00,50.636
1145.00,50.633
1146.00,50.620
1147.00,50.629
1148.00,50.598
1149.00,50.607
1150.00,50.599
1151.00,50.615
1152.00,50.603
1153.00,50.604
1154.00,50.601
1155.00,50.606
1156.00,50.574
1157.00,50.595
1158.00,50.578
1159.00,50.584
1160.00,50.589
1161.00,50.595
1162.00,50.588
1163.00,50.579
1164.00,50.572
1165.00,50.561
1166.00,50.574
1167.00,50.566
1168.00,50.578
1169.00,50.570
1170.00,50.580
1171.00,50.558
1172.00,50.557
1173.00,50.543
1174.00,50.544
1175.00,50.540
1176.00,50.542
1177.00,50.539
1178.00,50.524
1179.00,50.538
1180.00,50.524
1181.00,50.542
1182.00,50.524
1183.00,50.512
1184.00,50.502
1185.00,50.536
1186.00,50.523
1187.00,50.524
1188.00,50.518
1189.00,50.505
1190.00,50.516
1191.00,50.510
1192.00,50.528
1193.00,50.502
1194.00,50.510
1195.00,50.489
1196.00,50.505
1197.00,50.501
1198.00,50.481
1199.00,50.495
1200.00,50.487
1201.00,50.518
1202.00,50.485
1203.00,50.502
1204.00,50.497
1205.00,50.513
1206.00,50.499
1207.00,50.501
1208.00,50.491
1209.00,50.490
1210.00,50.486
1211.00,50.466
1212.00,50.494
1213.00,50.460
1214.00,50.491
1215.00,50.484
1216.00,50.483
1217.00,50.497
1218.00,50.481
1219.00,50.494
1220.00,50.468
1221.00,50.483
1222.00,50.457
1223.00,50.488
1224.00,50.491
1225.00,50.476
1226.00,50.487
1227.00,50.470
1228.00,50.485
1229.00,50.472
1230.00,50.508
1231.00,50.509
1232.00,50.527
1233.00,50.530
1234.00,50.528
1235.00,50.524
1236.00,50.508
1237.00,50.513
1238.00,50.496
1239.00,50.516
1240.00,50.496
1241.00,50.520
1242.00,50.518
1243.00,50.529
1244.00,50.506
1245.00,50.558
1246.00,50.572
1247.00,50.540
1248.00,50.546
1249.00,50.548
1250.00,50.558
1251.00,50.547
1252.00,50.570
1253.00,50.541
1254.00,50.549
1255.00,50.575
1256.00,50.530
1257.00,50.522
1258.00,50.561
1259.00,50.543
1260.00,50.564
1261.00,50.571
1262.00,50.574
1263.00,50.563
1264.00,50.568
1265.00,50.591
1266.00,50.571
1267.00,50.599
1268.00,50.597
1269.00,50.604
1270.00,50.594
1271.00,50.611
1272.00,50.622
1273.00,50.625
1274.00,50.635
1275.00,50.620
1276.00,50.642
1277.00,50.662
1278.00,50.641
1279.00,50.653
1280.00,50.626
1281.00,50.662
1282.00,50.660
1283.00,50.636
1284.00,50.667
1285.00,50.657
1286.00,50.664
1287.00,50.657
1288.00,50.658
1289.00,50.655
1290.00,50.687
1291.00,50.676
1292.00,50.680
1293.00,50.688
1294.00,50.695
1295.00,50.707
1296.00,50.705
1297.00,50.707
1298.00,50.757
1299.00,50.709
1300.00,50.736
1301.00,50.712
1302.00,50.753
1303.00,50.747
1304.00,50.730
1305.00,50.743
1306.00,50.748
1307.00,50.758
1308.00,50.763
1309.00,50.777
1310.00,50.765
1311.00,50.763
1312.00,50.765
1313.00,50.765
1314.00,50.791
1315.00,50.794
1316.00,50.805
1317.00,50.846
1318.00,50.812
1319.00,50.821
1320.00,50.813
1321.00,50.987
1322.00,50.985
1323.00,50.979
1324.00,50.976
1325.00,50.960
1326.00,50.988
1327.00,50.975
1328.00,50.958
1329.00,50.945
1330.00,50.946
1331.00,50.968
1332.00,50.933
1333.00,50.963
1334.00,50.999
1335.00,51.009
1336.00,51.036
1337.00,51.064
1338.00,51.119
1339.00,51.164
1340.00,51.200
1341.00,51.278
1342.00,51.342
1343.00,51.379
1344.00,51.431
1345.00,51.499
1346.00,51.521
1347.00,51.539
1348.00,51.583
1349.00,51.573
1350.00,51.600
1351.00,51.605
1352.00,51.643
1353.00,51.502
1354.00,51.632
1355.00,51.583
1356.00,51.687
1357.00,51.682
1358.00,51.687
1359.00,51.698
1360.00,51.695
1361.00,51.662
1362.00,51.596
1363.00,51.714
1364.00,51.784
1365.00,51.646
1366.00,51.830
1367.00,51.825
1368.00,51.621
1369.00,51.669
1370.00,51.664
1371.00,51.614
1372.00,51.645
1373.00,51.638
1374.00,51.668
1375.00,51.654
1376.00,51.642
1377.00,51.631
1378.00,51.707
1379.00,51.662
1380.00,51.678
1381.00,51.674
1382.00,51.556
1383.00,51.657
1384.00,51.544
1385.00,51.628
1386.00,51.679
1387.00,51.618
1388.00,51.558
1389.00,51.578
1390.00,51.667
1391.00,51.620
1392.00,51.609
1393.00,51.621
1394.00,51.642
1395.00,51.570
1396.00,51.551
1397.00,51.640
1398.00,51.702
1399.00,51.609
1400.00,51.593
1401.00,51.598
1402.00,51.646
1403.00,51.628
1404.00,51.653
1405.00,51.657
1406.00,51.667
1407.00,51.674
1408.00,51.691
1409.00,51.628
1410.00,51.685
1411.00,51.700
1412.00,51.750
1413.00,51.670
1414.00,51.674
1415.00,51.707
1416.00,51.740
1417.00,51.742
1418.00,51.720
1419.00,51.740
1420.00,51.742
1421.00,51.786
1422.00,51.779
1423.00,51.800
1424.00,51.814
1425.00,51.840
1426.00,51.829
1427.00,51.863
1428.00,51.843
1429.00,51.868
1430.00,51.899
1431.00,51.899
1432.00,51.934
1433.00,51.953
1434.00,51.928
1435.00,51.987
1436.00,51.994
1437.00,51.970
1438.00,51.973
1439.00,52.006
1440.00,52.036
1441.00,52.035
1442.00,52.049
1443.00,52.058
1444.00,52.107
1445.00,52.053
1446.00,52.095
1447.00,52.114
1448.00,52.185
1449.00,52.155
1450.00,52.149
1451.00,52.158
1452.00,52.182
1453.00,52.166
1454.00,52.207
1455.00,52.211
1456.00,52.241
1457.00,52.247
1458.00,52.276
1459.00,52.294
1460.00,52.314
1461.00,52.318
1462.00,52.346
1463.00,52.357
1464.00,52.371
1465.00,52.375
1466.00,52.383
1467.00,52.392
1468.00,52.460
1469.00,52.429
1470.00,52.440
1471.00,52.453
1472.00,52.446
1473.00,52.470
1474.00,52.517
1475.00,52.513
1476.00,52.534
1477.00,52.519
1478.00,52.530
1479.00,52.562
1480.00,52.540
1481.00,52.564
1482.00,52.608
1483.00,52.591
1484.00,52.609
1485.00,52.620
1486.00,52.616
1487.00,52.642
1488.00,52.667
1489.00,52.648
1490.00,52.669
1491.00,52.677
1492.00,52.696
1493.00,52.693
1494.00,52.718
1495.00,52.703
1496.00,52.734
1497.00,52.714
1498.00,52.735
1499.00,52.765
1500.00,52.758
1501.00, 
1502.00, 
1503.00, 
1504.00, 
1505.00, 
1506.00, 
1507.00, 
1508.00, 
1509.00, 
1510.00, 
1511.00, 
1512.00, 
1513.00, 
1514.00, 
1515.00, 
1516.00, 
1517.00, 
1518.00, 
1519.00, 
1520.00, 
1521.00, 
1522.00, 
1523.00, 
1524.00, 
1525.00, 
1526.00, 
1527.00, 
1528.00, 
1529.00, 
1530.00, 
1531.00, 
1532.00, 
1533.00, 
1534.00, 
1535.00, 
1536.00, 
1537.00, 
1538.00, 
1539.00, 
1540.00, 
1541.00, 
1542.00, 
1543.00, 
1544.00, 
1545.00, 
1546.00, 
1547.00, 
1548.00, 
1549.00, 
1550.00, 
1551.00, 
1552.00, 
1553.00, 
1554.00, 
1555.00, 
1556.00, 
1557.00, 
1558.00, 
1559.00, 
1560.00, 
1561.00, 
1562.00, 
1563.00, 
1564.00, 
1565.00, 
1566.00, 
1567.00, 
1568.00, 
1569.00, 
1570.00, 
1571.00, 
1572.00, 
1573.00, 
1574.00, 
1575.00, 
1576.00, 
1577.00, 
1578.00, 
1579.00, 
1580.00, 
1581.00, 
1582.00, 
1583.00, 
1584.00, 
1585.00, 
1586.00, 
1587.00, 
1588.00, 
1589.00, 
1590.00, 
1591.00, 
1592.00, 
1593.00, 
1594.00, 
1595.00, 
1596.00, 
1597.00, 
1598.00, 
1599.00, 
1600.00, 
1601.00, 
1602.00, 
1603.00, 
1604.00, 
1605.00, 
1606.00, 
1607.00, 
1608.00, 
1609.00, 
1610.00, 
1611.00, 
1612.00, 
1613.00, 
1614.00, 
1615.00, 
1616.00, 
1617.00, 
1618.00, 
1619.00, 
1620.00, 
1621.00, 
1622.00, 
1623.00, 
1624.00, 
1625.00, 
1626.00, 
1627.00, 
1628.00, 
1629.00, 
1630.00, 
1631.00, 
1632.00, 
1633.00, 
1634.00, 
1635.00, 
1636.00, 
1637.00, 
1638.00, 
1639.00, 
1640.00, 
1641.00, 
1642.00, 
1643.00, 
1644.00, 
1645.00, 
1646.00, 
1647.00, 
1648.00, 
1649.00, 
1650.00, 
1651.00, 
1652.00, 
1653.00, 
1654.00, 
1655.00, 
1656.00, 
1657.00, 
1658.00, 
1659.00, 
1660.00, 
1661.00, 
1662.00, 
1663.00, 
1664.00, 
1665.00, 
1666.00, 
1667.00, 
1668.00, 
1669.00, 
1670.00, 
1671.00, 
1672.00, 
1673.00, 
1674.00, 
1675.00, 
1676.00, 
1677.00, 
1678.00, 
1679.00, 
1680.00, 
1681.00, 
1682.00, 
1683.00, 
1684.00, 
1685.00, 
1686.00, 
1687.00, 
1688.00, 
1689.00, 
1690.00, 
1691.00, 
1692.00, 
1693.00, 
1694.00, 
1695.00, 
1696.00, 
1697.00, 
1698.00, 
1699.00, 
1700.00, 
1701.00, 
1702.00, 
1703.00, 
1704.00, 
1705.00, 
1706.00, 
1707.00, 
1708.00, 
1709.00, 
1710.00, 
1711.00, 
1712.00, 
1713.00, 
1714.00, 
1715.00, 
1716.00, 
1717.00, 
1718.00, 
1719.00, 
1720.00, 
1721.00, 
1722.00, 
1723.00, 
1724.00, 
1725.00, 
1726.00, 
1727.00, 
1728.00, 
1729.00, 
1730.00, 
1731.00, 
1732.00, 
1733.00, 
1734.00, 
1735.00, 
1736.00, 
1737.00, 
1738.00, 
1739.00, 
1740.00, 
1741.00, 
1742.00, 
1743.00, 
1744.00, 
1745.00, 
1746.00, 
1747.00, 
1748.00, 
1749.00, 
1750.00, 
1751.00, 
1752.00, 
1753.00, 
1754.00, 
1755.00, 
1756.00, 
1757.00, 
1758.00, 
1759.00, 
1760.00, 
1761.00, 
1762.00, 
1763.00, 
1764.00, 
1765.00, 
1766.00, 
1767.00, 
1768.00, 
1769.00, 
1770.00, 
1771.00, 
1772.00, 
1773.00, 
1774.00, 
1775.00, 
1776.00, 
1777.00, 
1778.00, 
1779.00, 
1780.00, 
1781.00, 
1782.00, 
1783.00, 
1784.00, 
1785.00, 
1786.00, 
1787.00, 
1788.00, 
1789.00, 
1790.00, 
1791.00, 
1792.00, 
1793.00, 
1794.00, 
1795.00, 
1796.00, 
1797.00, 
1798.00, 
1799.00, 
1800.00, 
1801.00, 
1802.00, 
1803.00, 
1804.00, 
1805.00, 
1806.00, 
1807.00, 
1808.00, 
1809.00, 
1810.00, 
1811.00, 
1812.00, 
1813.00, 
1814.00, 
1815.00, 
1816.00, 
1817.00, 
1818.00, 
1819.00, 
1820.00, 
1821.00, 
1822.00, 
1823.00, 
1824.00, 
1825.00, 
1826.00, 
1827.00, 
1828.00, 
1829.00, 
1830.00, 
1831.00, 
1832.00, 
1833.00, 
1834.00, 
1835.00, 
1836.00, 
1837.00, 
1838.00, 
1839.00, 
1840.00, 
1841.00, 
1842.00, 
1843.00, 
1844.00, 
1845.00, 
1846.00, 
1847.00, 
1848.00, 
1849.00, 
1850.00, 
1851.00, 
1852.00, 
1853.00, 
1854.00, 
1855.00, 
1856.00, 
1857.00, 
1858.00, 
1859.00, 
1860.00, 
1861.00, 
1862.00, 
1863.00, 
1864.00, 
1865.00, 
1866.00, 
1867.00, 
1868.00, 
1869.00, 
1870.00, 
1871.00, 
1872.00, 
1873.00, 
1874.00, 
1875.00, 
1876.00, 
1877.00, 
1878.00, 
1879.00, 
1880.00, 
1881.00, 
1882.00, 
1883.00, 
1884.00, 
1885.00, 
1886.00, 
1887.00, 
1888.00, 
1889.00, 
1890.00, 
1891.00, 
1892.00, 
1893.00, 
1894.00, 
1895.00, 
1896.00, 
1897.00, 
1898.00, 
1899.00, 
1900.00, 
1901.00, 
1902.00, 
1903.00, 
1904.00, 
1905.00, 
1906.00, 
1907.00, 
1908.00, 
1909.00, 
1910.00, 
1911.00, 
1912.00, 
1913.00, 
1914.00, 
1915.00, 
1916.00, 
1917.00, 
1918.00, 
1919.00, 
1920.00, 
1921.00, 
1922.00, 
1923.00, 
1924.00, 
1925.00, 
1926.00, 
1927.00, 
1928.00, 
1929.00, 
1930.00, 
1931.00, 
1932.00, 
1933.00, 
1934.00, 
1935.00, 
1936.00, 
1937.00, 
1938.00, 
1939.00, 
1940.00, 
1941.00, 
1942.00, 
1943.00, 
1944.00, 
1945.00, 
1946.00, 
1947.00, 
1948.00, 
1949.00, 
1950.00, 
1951.00, 
1952.00, 
1953.00, 
1954.00, 
1955.00, 
1956.00, 
1957.00, 
1958.00, 
1959.00, 
1960.00, 
1961.00, 
1962.00, 
1963.00, 
1964.00, 
1965.00, 
1966.00, 
1967.00, 
1968.00, 
1969.00, 
1970.00, 
1971.00, 
1972.00, 
1973.00, 
1974.00, 
1975.00, 
1976.00, 
1977.00, 
1978.00, 
1979.00, 
1980.00, 
1981.00, 
1982.00, 
1983.00, 
1984.00, 
1985.00, 
1986.00, 
1987.00, 
1988.00, 
1989.00, 
1990.00, 
1991.00, 
1992.00, 
1993.00, 
1994.00, 
1995.00, 
1996.00, 
1997.00, 
1998.00, 
1999.00, 
2000.00, 
2001.00, 
2002.00, 
2003.00, 
2004.00, 
2005.00, 
2006.00, 
2007.00, 
2008.00, 
2009.00, 
2010.00, 
2011.00, 
2012.00, 
2013.00, 
2014.00, 
2015.00, 
2016.00, 
2017.00, 
2018.00, 
2019.00, 
2020.00, 
2021.00, 
2022.00, 
2023.00, 
2024.00, 
2025.00, 
2026.00, 
2027.00, 
2028.00, 
2029.00, 
2030.00, 
2031.00, 
2032.00, 
2033.00, 
2034.00, 
2035.00, 
2036.00, 
2037.00, 
2038.00, 
2039.00, 
2040.00, 
2041.00, 
2042.00, 
2043.00, 
2044.00, 
2045.00, 
2046.00, 
2047.00, 
2048.00, 
2049.00, 
2050.00, 
2051.00, 
2052.00, 
2053.00, 
2054.00, 
2055.00, 
2056.00, 
2057.00, 
2058.00, 
2059.00, 
2060.00, 
2061.00, 
2062.00, 
2063.00, 
2064.00, 
2065.00, 
2066.00, 
2067.00, 
2068.00, 
2069.00, 
2070.00, 
2071.00, 
2072.00, 
2073.00, 
2074.00, 
2075.00, 
2076.00, 
2077.00, 
2078.00, 
2079.00, 
2080.00, 
2081.00, 
2082.00, 
2083.00, 
2084.00, 
2085.00, 
2086.00, 
2087.00, 
2088.00, 
2089.00, 
2090.00, 
2091.00, 
2092.00, 
2093.00, 
2094.00, 
2095.00, 
2096.00, 
2097.00, 
2098.00, 
2099.00, 
2100.00, 
2101.00, 
2102.00, 
2103.00, 
2104.00, 
2105.00, 
2106.00, 
2107.00, 
2108.00, 
2109.00, 
2110.00, 
2111.00, 
2112.00, 
2113.00, 
2114.00, 
2115.00, 
2116.00, 
2117.00, 
2118.00, 
2119.00, 
2120.00, 
2121.00, 
2122.00, 
2123.00, 
2124.00, 
2125.00, 
2126.00, 
2127.00, 
2128.00, 
2129.00, 
2130.00, 
2131.00, 
2132.00, 
2133.00, 
2134.00, 
2135.00, 
2136.00, 
2137.00, 
2138.00, 
2139.00, 
2140.00, 
2141.00, 
2142.00, 
2143.00, 
2144.00, 
2145.00, 
2146.00, 
2147.00, 
2148.00, 
2149.00, 
2150.00, 
2151.00, 
2152.00, 
2153.00, 
2154.00, 
2155.00, 
2156.00, 
2157.00, 
2158.00, 
2159.00, 
2160.00, 
2161.00, 
2162.00, 
2163.00, 
2164.00, 
2165.00, 
2166.00, 
2167.00, 
2168.00, 
2169.00, 
2170.00, 
2171.00, 
2172.00, 
2173.00, 
2174.00, 
2175.00, 
2176.00, 
2177.00, 
2178.00, 
2179.00, 
2180.00, 
2181.00, 
2182.00, 
2183.00, 
2184.00, 
2185.00, 
2186.00, 
2187.00, 
2188.00, 
2189.00, 
2190.00, 
2191.00, 
2192.00, 
2193.00, 
2194.00, 
2195.00, 
2196.00, 
2197.00, 
2198.00, 
2199.00, 
2200.00, 
2201.00, 
2202.00, 
2203.00, 
2204.00, 
2205.00, 
2206.00, 
2207.00, 
2208.00, 
2209.00, 
2210.00, 
2211.00, 
2212.00, 
2213.00, 
2214.00, 
2215.00, 
2216.00, 
2217.00, 
2218.00, 
2219.00, 
2220.00, 
2221.00, 
2222.00, 
2223.00, 
2224.00, 
2225.00, 
2226.00, 
2227.00, 
2228.00, 
2229.00, 
2230.00, 
2231.00, 
2232.00, 
2233.00, 
2234.00, 
2235.00, 
2236.00, 
2237.00, 
2238.00, 
2239.00, 
2240.00, 
2241.00, 
2242.00, 
2243.00, 
2244.00, 
2245.00, 
2246.00, 
2247.00, 
2248.00, 
2249.00, 
2250.00, 
2251.00, 
2252.00, 
2253.00, 
2254.00, 
2255.00, 
2256.00, 
2257.00, 
2258.00, 
2259.00, 
2260.00, 
2261.00, 
2262.00, 
2263.00, 
2264.00, 
2265.00, 
2266.00, 
2267.00, 
2268.00, 
2269.00, 
2270.00, 
2271.00, 
2272.00, 
2273.00, 
2274.00, 
2275.00, 
2276.00, 
2277.00, 
2278.00, 
2279.00, 
2280.00, 
2281.00, 
2282.00, 
2283.00, 
2284.00, 
2285.00, 
2286.00, 
2287.00, 
2288.00, 
2289.00, 
2290.00, 
2291.00, 
2292.00, 
2293.00, 
2294.00, 
2295.00, 
2296.00, 
2297.00, 
2298.00, 
2299.00, 
2300.00, 
2301.00, 
2302.00, 
2303.00, 
2304.00, 
2305.00, 
2306.00, 
2307.00, 
2308.00, 
2309.00, 
2310.00, 
2311.00, 
2312.00, 
2313.00, 
2314.00, 
2315.00, 
2316.00, 
2317.00, 
2318.00, 
2319.00, 
2320.00, 
2321.00, 
2322.00, 
2323.00, 
2324.00, 
2325.00, 
2326.00, 
2327.00, 
2328.00, 
2329.00, 
2330.00, 
2331.00, 
2332.00, 
2333.00, 
2334.00, 
2335.00, 
2336.00, 
2337.00, 
2338.00, 
2339.00, 
2340.00, 
2341.00, 
2342.00, 
2343.00, 
2344.00, 
2345.00, 
2346.00, 
2347.00, 
2348.00, 
2349.00, 
2350.00, 
2351.00, 
2352.00, 
2353.00, 
2354.00, 
2355.00, 
2356.00, 
2357.00, 
2358.00, 
2359.00, 
2360.00, 
2361.00, 
2362.00, 
2363.00, 
2364.00, 
2365.00, 
2366.00, 
2367.00, 
2368.00, 
2369.00, 
2370.00, 
2371.00, 
2372.00, 
2373.00, 
2374.00, 
2375.00, 
2376.00, 
2377.00, 
2378.00, 
2379.00, 
2380.00, 
2381.00, 
2382.00, 
2383.00, 
2384.00, 
2385.00, 
2386.00, 
2387.00, 
2388.00, 
2389.00, 
2390.00, 
2391.00, 
2392.00, 
2393.00, 
2394.00, 
2395.00, 
2396.00, 
2397.00, 
2398.00, 
2399.00, 
2400.00, 
2401.00, 
2402.00, 
2403.00, 
2404.00, 
2405.00, 
2406.00, 
2407.00, 
2408.00, 
2409.00, 
2410.00, 
2411.00, 
2412.00, 
2413.00, 
2414.00, 
2415.00, 
2416.00, 
2417.00, 
2418.00, 
2419.00, 
2420.00, 
2421.00, 
2422.00, 
2423.00, 
2424.00, 
2425.00, 
2426.00, 
2427.00, 
2428.00, 
2429.00, 
2430.00, 
2431.00, 
2432.00, 
2433.00, 
2434.00, 
2435.00, 
2436.00, 
2437.00, 
2438.00, 
2439.00, 
2440.00, 
2441.00, 
2442.00, 
2443.00, 
2444.00, 
2445.00, 
2446.00, 
2447.00, 
2448.00, 
2449.00, 
2450.00, 
2451.00, 
2452.00, 
2453.00, 
2454.00, 
2455.00, 
2456.00, 
2457.00, 
2458.00, 
2459.00, 
2460.00, 
2461.00, 
2462.00, 
2463.00, 
2464.00, 
2465.00, 
2466.00, 
2467.00, 
2468.00, 
2469.00, 
2470.00, 
2471.00, 
2472.00, 
2473.00, 
2474.00, 
2475.00, 
2476.00, 
2477.00, 
2478.00, 
2479.00, 
2480.00, 
2481.00, 
2482.00, 
2483.00, 
2484.00, 
2485.00, 
2486.00, 
2487.00, 
2488.00, 
2489.00, 
2490.00, 
2491.00, 
2492.00, 
2493.00, 
2494.00, 
2495.00, 
2496.00, 
2497.00, 
2498.00, 
2499.00, 
2500.00, 
2501.00, 
2502.00, 
2503.00, 
2504.00, 
2505.00, 
2506.00, 
2507.00, 
2508.00, 
2509.00, 
2510.00, 
2511.00, 
2512.00, 
2513.00, 
2514.00, 
2515.00, 
2516.00, 
2517.00, 
2518.00, 
2519.00, 
2520.00, 
2521.00, 
2522.00, 
2523.00, 
2524.00, 
2525.00, 
2526.00, 
2527.00, 
2528.00, 
2529.00, 
2530.00, 
2531.00, 
2532.00, 
2533.00, 
2534.00, 
2535.00, 
2536.00, 
2537.00, 
2538.00, 
2539.00, 
2540.00, 
2541.00, 
2542.00, 
2543.00, 
2544.00, 
2545.00, 
2546.00, 
2547.00, 
2548.00, 
2549.00, 
2550.00, 
2551.00, 
2552.00, 
2553.00, 
2554.00, 
2555.00, 
2556.00, 
2557.00, 
2558.00, 
2559.00, 
2560.00, 
2561.00, 
2562.00, 
2563.00, 
2564.00, 
2565.00, 
2566.00, 
2567.00, 
2568.00, 
2569.00, 
2570.00, 
2571.00, 
2572.00, 
2573.00, 
2574.00, 
2575.00, 
2576.00, 
2577.00, 
2578.00, 
2579.00, 
2580.00, 
2581.00, 
2582.00, 
2583.00, 
2584.00, 
2585.00, 
2586.00, 
2587.00, 
2588.00, 
2589.00, 
2590.00, 
2591.00, 
2592.00, 
2593.00, 
2594.00, 
2595.00, 
2596.00, 
2597.00, 
2598.00, 
2599.00, 
2600.00, 
