"2cP2 - RawData"
"Wavelength nm.","T%"
200.00,0.002
201.00,0.003
202.00,0.001
203.00,0.002
204.00,-0.000
205.00,0.001
206.00,0.002
207.00,0.002
208.00,0.000
209.00,0.002
210.00,0.000
211.00,-0.000
212.00,0.001
213.00,0.002
214.00,0.002
215.00,-0.000
216.00,0.001
217.00,-0.002
218.00,0.000
219.00,0.002
220.00,-0.000
221.00,0.000
222.00,-0.002
223.00,0.002
224.00,0.002
225.00,-0.001
226.00,0.001
227.00,0.002
228.00,0.001
229.00,0.001
230.00,0.001
231.00,-0.001
232.00,0.000
233.00,0.001
234.00,0.000
235.00,-0.001
236.00,-0.003
237.00,0.000
238.00,-0.001
239.00,0.000
240.00,-0.001
241.00,0.000
242.00,-0.001
243.00,-0.001
244.00,0.002
245.00,-0.001
246.00,0.001
247.00,0.002
248.00,0.000
249.00,0.001
250.00,0.000
251.00,0.002
252.00,-0.000
253.00,-0.000
254.00,-0.001
255.00,0.000
256.00,0.000
257.00,0.002
258.00,-0.001
259.00,0.001
260.00,-0.001
261.00,0.000
262.00,-0.001
263.00,0.000
264.00,-0.001
265.00,0.002
266.00,-0.001
267.00,-0.001
268.00,0.001
269.00,0.000
270.00,0.000
271.00,-0.000
272.00,-0.000
273.00,-0.000
274.00,0.000
275.00,-0.001
276.00,-0.001
277.00,-0.001
278.00,0.002
279.00,0.001
280.00,0.000
281.00,-0.001
282.00,0.001
283.00,-0.000
284.00,0.000
285.00,0.002
286.00,0.000
287.00,-0.000
288.00,-0.001
289.00,0.002
290.00,0.001
291.00,-0.002
292.00,0.001
293.00,0.001
294.00,-0.000
295.00,0.001
296.00,-0.000
297.00,-0.001
298.00,0.001
299.00,0.003
300.00,0.002
301.00,0.005
302.00,0.007
303.00,0.011
304.00,0.016
305.00,0.025
306.00,0.039
307.00,0.056
308.00,0.091
309.00,0.142
310.00,0.199
311.00,0.271
312.00,0.365
313.00,0.495
314.00,0.656
315.00,0.862
316.00,1.098
317.00,1.390
318.00,1.721
319.00,2.120
320.00,2.572
321.00,3.083
322.00,3.659
323.00,4.297
324.00,5.017
325.00,5.717
326.00,6.462
327.00,7.316
328.00,8.146
329.00,9.035
330.00,9.992
331.00,10.896
332.00,11.847
333.00,12.860
334.00,13.847
335.00,14.872
336.00,15.880
337.00,16.865
338.00,17.847
339.00,18.701
340.00,19.673
341.00,20.532
342.00,21.378
343.00,22.263
344.00,23.056
345.00,23.848
346.00,24.547
347.00,25.274
348.00,25.877
349.00,26.539
350.00,27.086
351.00,27.682
352.00,28.225
353.00,28.734
354.00,29.216
355.00,29.617
356.00,30.084
357.00,30.495
358.00,30.807
359.00,31.152
360.00,31.420
361.00,31.723
362.00,32.089
363.00,32.342
364.00,32.590
365.00,32.807
366.00,32.934
367.00,33.108
368.00,33.258
369.00,33.411
370.00,33.531
371.00,33.614
372.00,33.669
373.00,33.670
374.00,33.710
375.00,33.701
376.00,33.696
377.00,33.663
378.00,33.656
379.00,33.576
380.00,33.586
381.00,33.632
382.00,33.640
383.00,33.682
384.00,33.772
385.00,33.848
386.00,33.913
387.00,34.037
388.00,34.212
389.00,34.143
390.00,34.207
391.00,34.309
392.00,34.351
393.00,34.399
394.00,34.476
395.00,34.462
396.00,34.499
397.00,34.513
398.00,34.562
399.00,34.574
400.00,34.495
401.00,34.609
402.00,34.629
403.00,34.611
404.00,34.452
405.00,34.608
406.00,34.584
407.00,34.546
408.00,34.513
409.00,34.499
410.00,34.448
411.00,34.419
412.00,34.416
413.00,34.360
414.00,34.370
415.00,34.396
416.00,34.354
417.00,34.391
418.00,34.409
419.00,34.409
420.00,34.401
421.00,34.525
422.00,34.533
423.00,34.532
424.00,34.538
425.00,34.566
426.00,34.580
427.00,34.618
428.00,34.645
429.00,34.696
430.00,34.722
431.00,34.754
432.00,34.730
433.00,34.829
434.00,34.836
435.00,34.878
436.00,34.949
437.00,34.983
438.00,35.027
439.00,35.033
440.00,35.132
441.00,35.187
442.00,35.245
443.00,35.291
444.00,35.344
445.00,35.407
446.00,35.474
447.00,35.584
448.00,35.637
449.00,35.725
450.00,35.809
451.00,35.813
452.00,35.906
453.00,36.038
454.00,36.048
455.00,36.191
456.00,36.220
457.00,36.286
458.00,36.357
459.00,36.476
460.00,36.588
461.00,36.662
462.00,36.777
463.00,36.756
464.00,36.946
465.00,37.013
466.00,37.121
467.00,37.236
468.00,37.255
469.00,37.364
470.00,37.375
471.00,37.471
472.00,37.539
473.00,37.566
474.00,37.629
475.00,37.731
476.00,37.729
477.00,37.851
478.00,37.866
479.00,38.096
480.00,38.233
481.00,38.315
482.00,38.406
483.00,38.593
484.00,38.653
485.00,38.816
486.00,38.854
487.00,39.001
488.00,39.093
489.00,39.235
490.00,39.355
491.00,39.398
492.00,39.611
493.00,39.643
494.00,39.642
495.00,39.734
496.00,39.807
497.00,39.898
498.00,40.020
499.00,40.124
500.00,40.197
501.00,40.319
502.00,40.398
503.00,40.499
504.00,40.542
505.00,40.645
506.00,40.741
507.00,40.851
508.00,40.857
509.00,41.018
510.00,41.062
511.00,41.111
512.00,41.309
513.00,41.321
514.00,41.422
515.00,41.531
516.00,41.536
517.00,41.653
518.00,41.778
519.00,41.739
520.00,41.826
521.00,41.831
522.00,41.931
523.00,42.022
524.00,42.074
525.00,42.163
526.00,42.260
527.00,42.296
528.00,42.357
529.00,42.446
530.00,42.475
531.00,42.698
532.00,42.699
533.00,42.803
534.00,42.901
535.00,42.946
536.00,43.025
537.00,43.058
538.00,43.177
539.00,43.172
540.00,43.228
541.00,43.263
542.00,43.330
543.00,43.321
544.00,43.434
545.00,43.506
546.00,43.451
547.00,43.587
548.00,43.637
549.00,43.600
550.00,43.821
551.00,43.826
552.00,43.925
553.00,44.032
554.00,44.092
555.00,44.061
556.00,44.138
557.00,44.181
558.00,44.183
559.00,44.217
560.00,44.262
561.00,44.379
562.00,44.380
563.00,44.444
564.00,44.480
565.00,44.452
566.00,44.480
567.00,44.487
568.00,44.509
569.00,44.532
570.00,44.505
571.00,44.638
572.00,44.607
573.00,44.689
574.00,44.716
575.00,44.732
576.00,44.734
577.00,44.833
578.00,44.888
579.00,44.868
580.00,45.008
581.00,45.109
582.00,45.127
583.00,45.232
584.00,45.335
585.00,45.303
586.00,45.354
587.00,45.436
588.00,45.432
589.00,45.481
590.00,45.544
591.00,45.559
592.00,45.509
593.00,45.531
594.00,45.636
595.00,45.663
596.00,45.734
597.00,45.763
598.00,45.782
599.00,45.842
600.00,45.894
601.00,45.948
602.00,45.898
603.00,45.937
604.00,45.999
605.00,46.004
606.00,46.045
607.00,45.972
608.00,46.173
609.00,46.057
610.00,46.071
611.00,46.094
612.00,46.241
613.00,46.195
614.00,46.201
615.00,46.283
616.00,46.334
617.00,46.324
618.00,46.439
619.00,46.529
620.00,46.518
621.00,46.407
622.00,46.488
623.00,46.510
624.00,46.493
625.00,46.529
626.00,46.591
627.00,46.587
628.00,46.627
629.00,46.762
630.00,46.758
631.00,46.662
632.00,46.748
633.00,46.795
634.00,46.737
635.00,46.764
636.00,46.835
637.00,46.967
638.00,47.069
639.00,47.140
640.00,47.096
641.00,47.091
642.00,47.106
643.00,47.101
644.00,47.195
645.00,47.236
646.00,47.283
647.00,47.272
648.00,47.373
649.00,47.447
650.00,47.360
651.00,47.496
652.00,47.548
653.00,47.530
654.00,47.622
655.00,47.565
656.00,47.637
657.00,47.641
658.00,47.664
659.00,47.835
660.00,47.784
661.00,47.809
662.00,47.988
663.00,47.902
664.00,48.098
665.00,48.065
666.00,47.936
667.00,48.165
668.00,48.235
669.00,48.141
670.00,48.329
671.00,48.683
672.00,48.257
673.00,48.412
674.00,48.442
675.00,48.474
676.00,48.553
677.00,48.529
678.00,48.559
679.00,48.585
680.00,48.637
681.00,48.591
682.00,48.714
683.00,48.729
684.00,48.809
685.00,48.943
686.00,48.901
687.00,48.885
688.00,48.836
689.00,48.863
690.00,49.043
691.00,49.023
692.00,49.004
693.00,49.047
694.00,49.055
695.00,49.114
696.00,49.064
697.00,49.146
698.00,49.180
699.00,49.380
700.00,49.371
701.00,49.356
702.00,49.372
703.00,49.411
704.00,49.465
705.00,49.441
706.00,49.478
707.00,49.412
708.00,49.408
709.00,49.604
710.00,49.565
711.00,49.456
712.00,49.544
713.00,49.517
714.00,49.615
715.00,49.601
716.00,49.652
717.00,49.681
718.00,49.564
719.00,49.620
720.00,49.708
721.00,54.053
722.00,53.984
723.00,53.879
724.00,53.859
725.00,53.905
726.00,53.771
727.00,53.813
728.00,53.772
729.00,53.711
730.00,53.721
731.00,53.696
732.00,53.673
733.00,53.649
734.00,53.666
735.00,53.624
736.00,53.653
737.00,53.610
738.00,53.626
739.00,53.648
740.00,53.596
741.00,53.652
742.00,53.556
743.00,53.586
744.00,53.474
745.00,53.522
746.00,53.413
747.00,53.423
748.00,53.390
749.00,53.288
750.00,53.249
751.00,53.199
752.00,53.227
753.00,53.207
754.00,53.185
755.00,53.056
756.00,53.050
757.00,53.149
758.00,53.062
759.00,53.043
760.00,53.030
761.00,52.963
762.00,53.062
763.00,53.039
764.00,53.078
765.00,52.945
766.00,53.015
767.00,52.927
768.00,52.944
769.00,52.865
770.00,52.958
771.00,52.874
772.00,52.747
773.00,52.836
774.00,52.777
775.00,52.853
776.00,52.796
777.00,52.824
778.00,52.752
779.00,52.776
780.00,52.770
781.00,52.693
782.00,52.693
783.00,52.608
784.00,52.692
785.00,52.626
786.00,52.574
787.00,52.572
788.00,52.547
789.00,52.563
790.00,52.515
791.00,52.404
792.00,52.442
793.00,52.376
794.00,52.320
795.00,52.298
796.00,52.337
797.00,52.218
798.00,52.247
799.00,52.246
800.00,52.165
801.00,52.174
802.00,52.115
803.00,52.129
804.00,52.054
805.00,52.048
806.00,51.998
807.00,51.967
808.00,52.024
809.00,52.016
810.00,51.940
811.00,51.931
812.00,51.869
813.00,51.895
814.00,51.867
815.00,51.810
816.00,51.773
817.00,51.801
818.00,51.665
819.00,51.683
820.00,51.694
821.00,51.605
822.00,51.648
823.00,51.576
824.00,51.559
825.00,51.510
826.00,51.511
827.00,51.634
828.00,51.478
829.00,51.514
830.00,51.449
831.00,54.032
832.00,54.023
833.00,53.982
834.00,53.992
835.00,53.893
836.00,53.910
837.00,53.868
838.00,53.818
839.00,53.825
840.00,53.783
841.00,53.782
842.00,53.737
843.00,53.721
844.00,53.734
845.00,53.677
846.00,53.667
847.00,53.658
848.00,53.604
849.00,53.529
850.00,53.537
851.00,53.433
852.00,53.451
853.00,53.377
854.00,53.343
855.00,53.279
856.00,53.331
857.00,53.110
858.00,53.218
859.00,53.187
860.00,53.145
861.00,53.189
862.00,53.087
863.00,53.126
864.00,53.078
865.00,53.064
866.00,53.034
867.00,53.069
868.00,53.033
869.00,52.994
870.00,53.027
871.00,52.989
872.00,52.969
873.00,52.913
874.00,52.927
875.00,52.897
876.00,52.888
877.00,52.881
878.00,52.866
879.00,52.832
880.00,52.848
881.00,52.808
882.00,52.817
883.00,52.762
884.00,52.737
885.00,52.709
886.00,52.702
887.00,52.642
888.00,52.637
889.00,52.592
890.00,52.606
891.00,52.555
892.00,52.527
893.00,52.546
894.00,52.502
895.00,52.486
896.00,52.439
897.00,52.458
898.00,52.400
899.00,52.403
900.00,52.393
901.00,52.356
902.00,52.384
903.00,52.320
904.00,52.336
905.00,52.290
906.00,52.235
907.00,52.422
908.00,52.202
909.00,52.206
910.00,52.174
911.00,52.160
912.00,52.177
913.00,52.100
914.00,52.085
915.00,52.088
916.00,52.087
917.00,52.018
918.00,52.014
919.00,52.014
920.00,51.962
921.00,51.982
922.00,51.920
923.00,51.930
924.00,51.866
925.00,51.875
926.00,51.829
927.00,51.845
928.00,51.779
929.00,51.798
930.00,51.743
931.00,51.760
932.00,51.677
933.00,51.756
934.00,51.694
935.00,51.655
936.00,51.642
937.00,51.639
938.00,51.603
939.00,51.604
940.00,51.541
941.00,51.561
942.00,51.495
943.00,51.512
944.00,51.458
945.00,51.462
946.00,51.462
947.00,51.404
948.00,51.410
949.00,51.365
950.00,51.317
951.00,51.363
952.00,51.319
953.00,51.258
954.00,51.269
955.00,51.213
956.00,51.207
957.00,51.153
958.00,51.175
959.00,51.119
960.00,51.107
961.00,51.085
962.00,51.107
963.00,51.047
964.00,51.042
965.00,51.044
966.00,51.027
967.00,51.028
968.00,50.982
969.00,51.019
970.00,50.979
971.00,50.987
972.00,50.957
973.00,50.966
974.00,51.010
975.00,50.954
976.00,50.995
977.00,50.969
978.00,51.020
979.00,50.979
980.00,50.974
981.00,51.003
982.00,50.959
983.00,50.967
984.00,50.945
985.00,50.976
986.00,50.911
987.00,50.932
988.00,50.904
989.00,50.883
990.00,50.900
991.00,50.868
992.00,50.887
993.00,50.850
994.00,50.840
995.00,50.860
996.00,50.796
997.00,50.838
998.00,50.792
999.00,50.819
1000.00,50.742
1001.00,50.739
1002.00,50.731
1003.00,50.712
1004.00,50.730
1005.00,50.676
1006.00,50.706
1007.00,50.664
1008.00,50.661
1009.00,50.662
1010.00,50.624
1011.00,50.621
1012.00,50.606
1013.00,50.590
1014.00,50.559
1015.00,50.562
1016.00,50.512
1017.00,50.518
1018.00,50.512
1019.00,50.467
1020.00,50.485
1021.00,50.462
1022.00,50.459
1023.00,50.416
1024.00,50.409
1025.00,50.393
1026.00,50.382
1027.00,50.356
1028.00,50.351
1029.00,50.345
1030.00,50.304
1031.00,50.310
1032.00,50.269
1033.00,50.273
1034.00,50.239
1035.00,50.201
1036.00,50.191
1037.00,50.170
1038.00,50.162
1039.00,50.134
1040.00,50.135
1041.00,50.078
1042.00,50.082
1043.00,50.040
1044.00,50.071
1045.00,50.060
1046.00,50.039
1047.00,50.057
1048.00,50.068
1049.00,50.077
1050.00,50.085
1051.00,50.096
1052.00,50.105
1053.00,50.133
1054.00,50.126
1055.00,50.140
1056.00,50.177
1057.00,50.142
1058.00,50.130
1059.00,50.134
1060.00,50.130
1061.00,50.126
1062.00,50.114
1063.00,50.114
1064.00,50.115
1065.00,50.089
1066.00,50.085
1067.00,50.070
1068.00,50.080
1069.00,50.051
1070.00,50.040
1071.00,50.000
1072.00,50.030
1073.00,50.003
1074.00,50.007
1075.00,49.992
1076.00,49.983
1077.00,49.966
1078.00,49.962
1079.00,49.950
1080.00,49.955
1081.00,49.939
1082.00,49.917
1083.00,49.928
1084.00,49.911
1085.00,49.904
1086.00,49.897
1087.00,49.887
1088.00,49.875
1089.00,49.865
1090.00,49.846
1091.00,49.854
1092.00,49.840
1093.00,49.807
1094.00,49.819
1095.00,49.817
1096.00,49.790
1097.00,49.787
1098.00,49.781
1099.00,49.766
1100.00,49.752
1101.00,49.726
1102.00,49.728
1103.00,49.729
1104.00,49.697
1105.00,49.691
1106.00,49.685
1107.00,49.688
1108.00,49.691
1109.00,49.673
1110.00,49.671
1111.00,49.656
1112.00,49.644
1113.00,49.646
1114.00,49.652
1115.00,49.624
1116.00,49.618
1117.00,49.614
1118.00,49.620
1119.00,49.599
1120.00,49.580
1121.00,49.578
1122.00,49.567
1123.00,49.559
1124.00,49.561
1125.00,49.540
1126.00,49.525
1127.00,49.546
1128.00,49.530
1129.00,49.508
1130.00,49.502
1131.00,49.501
1132.00,49.485
1133.00,49.486
1134.00,49.468
1135.00,49.465
1136.00,49.457
1137.00,49.453
1138.00,49.467
1139.00,49.466
1140.00,49.442
1141.00,49.439
1142.00,49.447
1143.00,49.459
1144.00,49.424
1145.00,49.419
1146.00,49.423
1147.00,49.425
1148.00,49.394
1149.00,49.415
1150.00,49.405
1151.00,49.403
1152.00,49.394
1153.00,49.395
1154.00,49.383
1155.00,49.388
1156.00,49.358
1157.00,49.384
1158.00,49.360
1159.00,49.351
1160.00,49.362
1161.00,49.367
1162.00,49.347
1163.00,49.351
1164.00,49.342
1165.00,49.330
1166.00,49.345
1167.00,49.326
1168.00,49.349
1169.00,49.328
1170.00,49.334
1171.00,49.337
1172.00,49.352
1173.00,49.337
1174.00,49.336
1175.00,49.323
1176.00,49.329
1177.00,49.316
1178.00,49.306
1179.00,49.331
1180.00,49.303
1181.00,49.315
1182.00,49.316
1183.00,49.303
1184.00,49.282
1185.00,49.317
1186.00,49.297
1187.00,49.297
1188.00,49.289
1189.00,49.282
1190.00,49.278
1191.00,49.284
1192.00,49.306
1193.00,49.297
1194.00,49.296
1195.00,49.258
1196.00,49.284
1197.00,49.280
1198.00,49.267
1199.00,49.278
1200.00,49.259
1201.00,49.287
1202.00,49.257
1203.00,49.267
1204.00,49.260
1205.00,49.272
1206.00,49.255
1207.00,49.277
1208.00,49.253
1209.00,49.246
1210.00,49.262
1211.00,49.235
1212.00,49.260
1213.00,49.219
1214.00,49.233
1215.00,49.233
1216.00,49.230
1217.00,49.250
1218.00,49.245
1219.00,49.249
1220.00,49.236
1221.00,49.248
1222.00,49.222
1223.00,49.244
1224.00,49.251
1225.00,49.221
1226.00,49.244
1227.00,49.233
1228.00,49.238
1229.00,49.240
1230.00,49.284
1231.00,49.273
1232.00,49.293
1233.00,49.271
1234.00,49.285
1235.00,49.280
1236.00,49.270
1237.00,49.285
1238.00,49.276
1239.00,49.287
1240.00,49.272
1241.00,49.286
1242.00,49.282
1243.00,49.311
1244.00,49.287
1245.00,49.303
1246.00,49.313
1247.00,49.304
1248.00,49.308
1249.00,49.310
1250.00,49.318
1251.00,49.307
1252.00,49.316
1253.00,49.297
1254.00,49.314
1255.00,49.344
1256.00,49.300
1257.00,49.278
1258.00,49.324
1259.00,49.322
1260.00,49.349
1261.00,49.339
1262.00,49.338
1263.00,49.324
1264.00,49.345
1265.00,49.356
1266.00,49.336
1267.00,49.355
1268.00,49.362
1269.00,49.340
1270.00,49.357
1271.00,49.375
1272.00,49.380
1273.00,49.380
1274.00,49.378
1275.00,49.381
1276.00,49.391
1277.00,49.388
1278.00,49.398
1279.00,49.405
1280.00,49.398
1281.00,49.415
1282.00,49.425
1283.00,49.411
1284.00,49.423
1285.00,49.403
1286.00,49.424
1287.00,49.412
1288.00,49.427
1289.00,49.418
1290.00,49.440
1291.00,49.415
1292.00,49.439
1293.00,49.442
1294.00,49.446
1295.00,49.457
1296.00,49.426
1297.00,49.454
1298.00,49.515
1299.00,49.475
1300.00,49.498
1301.00,49.480
1302.00,49.485
1303.00,49.515
1304.00,49.501
1305.00,49.513
1306.00,49.509
1307.00,49.522
1308.00,49.522
1309.00,49.530
1310.00,49.518
1311.00,49.524
1312.00,49.526
1313.00,49.525
1314.00,49.546
1315.00,49.558
1316.00,49.541
1317.00,49.574
1318.00,49.569
1319.00,49.570
1320.00,49.589
1321.00,49.731
1322.00,49.756
1323.00,49.728
1324.00,49.723
1325.00,49.718
1326.00,49.759
1327.00,49.724
1328.00,49.735
1329.00,49.723
1330.00,49.730
1331.00,49.743
1332.00,49.727
1333.00,49.734
1334.00,49.768
1335.00,49.765
1336.00,49.795
1337.00,49.828
1338.00,49.894
1339.00,49.937
1340.00,49.981
1341.00,50.045
1342.00,50.136
1343.00,50.217
1344.00,50.218
1345.00,50.291
1346.00,50.320
1347.00,50.338
1348.00,50.371
1349.00,50.368
1350.00,50.416
1351.00,50.405
1352.00,50.413
1353.00,50.454
1354.00,50.433
1355.00,50.390
1356.00,50.464
1357.00,50.456
1358.00,50.484
1359.00,50.485
1360.00,50.506
1361.00,50.402
1362.00,50.421
1363.00,50.495
1364.00,50.481
1365.00,50.425
1366.00,50.517
1367.00,50.443
1368.00,50.396
1369.00,50.455
1370.00,50.418
1371.00,50.353
1372.00,50.411
1373.00,50.410
1374.00,50.443
1375.00,50.421
1376.00,50.413
1377.00,50.402
1378.00,50.486
1379.00,50.435
1380.00,50.436
1381.00,50.444
1382.00,50.351
1383.00,50.409
1384.00,50.329
1385.00,50.340
1386.00,50.443
1387.00,50.322
1388.00,50.402
1389.00,50.368
1390.00,50.428
1391.00,50.393
1392.00,50.382
1393.00,50.465
1394.00,50.410
1395.00,50.317
1396.00,50.341
1397.00,50.461
1398.00,50.424
1399.00,50.369
1400.00,50.346
1401.00,50.397
1402.00,50.442
1403.00,50.410
1404.00,50.376
1405.00,50.434
1406.00,50.422
1407.00,50.450
1408.00,50.458
1409.00,50.410
1410.00,50.458
1411.00,50.461
1412.00,50.514
1413.00,50.465
1414.00,50.440
1415.00,50.483
1416.00,50.577
1417.00,50.537
1418.00,50.520
1419.00,50.507
1420.00,50.530
1421.00,50.570
1422.00,50.576
1423.00,50.569
1424.00,50.594
1425.00,50.615
1426.00,50.610
1427.00,50.637
1428.00,50.636
1429.00,50.667
1430.00,50.673
1431.00,50.668
1432.00,50.682
1433.00,50.713
1434.00,50.688
1435.00,50.749
1436.00,50.746
1437.00,50.736
1438.00,50.763
1439.00,50.782
1440.00,50.797
1441.00,50.800
1442.00,50.804
1443.00,50.838
1444.00,50.888
1445.00,50.835
1446.00,50.858
1447.00,50.910
1448.00,50.930
1449.00,50.958
1450.00,50.931
1451.00,50.944
1452.00,50.972
1453.00,50.974
1454.00,50.995
1455.00,51.024
1456.00,51.028
1457.00,51.033
1458.00,51.056
1459.00,51.065
1460.00,51.087
1461.00,51.086
1462.00,51.112
1463.00,51.127
1464.00,51.130
1465.00,51.144
1466.00,51.158
1467.00,51.158
1468.00,51.220
1469.00,51.214
1470.00,51.205
1471.00,51.229
1472.00,51.236
1473.00,51.243
1474.00,51.291
1475.00,51.265
1476.00,51.300
1477.00,51.295
1478.00,51.299
1479.00,51.332
1480.00,51.330
1481.00,51.321
1482.00,51.376
1483.00,51.369
1484.00,51.385
1485.00,51.409
1486.00,51.391
1487.00,51.420
1488.00,51.441
1489.00,51.431
1490.00,51.456
1491.00,51.455
1492.00,51.458
1493.00,51.482
1494.00,51.487
1495.00,51.496
1496.00,51.513
1497.00,51.504
1498.00,51.518
1499.00,51.549
1500.00,51.556
1501.00, 
1502.00, 
1503.00, 
1504.00, 
1505.00, 
1506.00, 
1507.00, 
1508.00, 
1509.00, 
1510.00, 
1511.00, 
1512.00, 
1513.00, 
1514.00, 
1515.00, 
1516.00, 
1517.00, 
1518.00, 
1519.00, 
1520.00, 
1521.00, 
1522.00, 
1523.00, 
1524.00, 
1525.00, 
1526.00, 
1527.00, 
1528.00, 
1529.00, 
1530.00, 
1531.00, 
1532.00, 
1533.00, 
1534.00, 
1535.00, 
1536.00, 
1537.00, 
1538.00, 
1539.00, 
1540.00, 
1541.00, 
1542.00, 
1543.00, 
1544.00, 
1545.00, 
1546.00, 
1547.00, 
1548.00, 
1549.00, 
1550.00, 
1551.00, 
1552.00, 
1553.00, 
1554.00, 
1555.00, 
1556.00, 
1557.00, 
1558.00, 
1559.00, 
1560.00, 
1561.00, 
1562.00, 
1563.00, 
1564.00, 
1565.00, 
1566.00, 
1567.00, 
1568.00, 
1569.00, 
1570.00, 
1571.00, 
1572.00, 
1573.00, 
1574.00, 
1575.00, 
1576.00, 
1577.00, 
1578.00, 
1579.00, 
1580.00, 
1581.00, 
1582.00, 
1583.00, 
1584.00, 
1585.00, 
1586.00, 
1587.00, 
1588.00, 
1589.00, 
1590.00, 
1591.00, 
1592.00, 
1593.00, 
1594.00, 
1595.00, 
1596.00, 
1597.00, 
1598.00, 
1599.00, 
1600.00, 
1601.00, 
1602.00, 
1603.00, 
1604.00, 
1605.00, 
1606.00, 
1607.00, 
1608.00, 
1609.00, 
1610.00, 
1611.00, 
1612.00, 
1613.00, 
1614.00, 
1615.00, 
1616.00, 
1617.00, 
1618.00, 
1619.00, 
1620.00, 
1621.00, 
1622.00, 
1623.00, 
1624.00, 
1625.00, 
1626.00, 
1627.00, 
1628.00, 
1629.00, 
1630.00, 
1631.00, 
1632.00, 
1633.00, 
1634.00, 
1635.00, 
1636.00, 
1637.00, 
1638.00, 
1639.00, 
1640.00, 
1641.00, 
1642.00, 
1643.00, 
1644.00, 
1645.00, 
1646.00, 
1647.00, 
1648.00, 
1649.00, 
1650.00, 
1651.00, 
1652.00, 
1653.00, 
1654.00, 
1655.00, 
1656.00, 
1657.00, 
1658.00, 
1659.00, 
1660.00, 
1661.00, 
1662.00, 
1663.00, 
1664.00, 
1665.00, 
1666.00, 
1667.00, 
1668.00, 
1669.00, 
1670.00, 
1671.00, 
1672.00, 
1673.00, 
1674.00, 
1675.00, 
1676.00, 
1677.00, 
1678.00, 
1679.00, 
1680.00, 
1681.00, 
1682.00, 
1683.00, 
1684.00, 
1685.00, 
1686.00, 
1687.00, 
1688.00, 
1689.00, 
1690.00, 
1691.00, 
1692.00, 
1693.00, 
1694.00, 
1695.00, 
1696.00, 
1697.00, 
1698.00, 
1699.00, 
1700.00, 
1701.00, 
1702.00, 
1703.00, 
1704.00, 
1705.00, 
1706.00, 
1707.00, 
1708.00, 
1709.00, 
1710.00, 
1711.00, 
1712.00, 
1713.00, 
1714.00, 
1715.00, 
1716.00, 
1717.00, 
1718.00, 
1719.00, 
1720.00, 
1721.00, 
1722.00, 
1723.00, 
1724.00, 
1725.00, 
1726.00, 
1727.00, 
1728.00, 
1729.00, 
1730.00, 
1731.00, 
1732.00, 
1733.00, 
1734.00, 
1735.00, 
1736.00, 
1737.00, 
1738.00, 
1739.00, 
1740.00, 
1741.00, 
1742.00, 
1743.00, 
1744.00, 
1745.00, 
1746.00, 
1747.00, 
1748.00, 
1749.00, 
1750.00, 
1751.00, 
1752.00, 
1753.00, 
1754.00, 
1755.00, 
1756.00, 
1757.00, 
1758.00, 
1759.00, 
1760.00, 
1761.00, 
1762.00, 
1763.00, 
1764.00, 
1765.00, 
1766.00, 
1767.00, 
1768.00, 
1769.00, 
1770.00, 
1771.00, 
1772.00, 
1773.00, 
1774.00, 
1775.00, 
1776.00, 
1777.00, 
1778.00, 
1779.00, 
1780.00, 
1781.00, 
1782.00, 
1783.00, 
1784.00, 
1785.00, 
1786.00, 
1787.00, 
1788.00, 
1789.00, 
1790.00, 
1791.00, 
1792.00, 
1793.00, 
1794.00, 
1795.00, 
1796.00, 
1797.00, 
1798.00, 
1799.00, 
1800.00, 
1801.00, 
1802.00, 
1803.00, 
1804.00, 
1805.00, 
1806.00, 
1807.00, 
1808.00, 
1809.00, 
1810.00, 
1811.00, 
1812.00, 
1813.00, 
1814.00, 
1815.00, 
1816.00, 
1817.00, 
1818.00, 
1819.00, 
1820.00, 
1821.00, 
1822.00, 
1823.00, 
1824.00, 
1825.00, 
1826.00, 
1827.00, 
1828.00, 
1829.00, 
1830.00, 
1831.00, 
1832.00, 
1833.00, 
1834.00, 
1835.00, 
1836.00, 
1837.00, 
1838.00, 
1839.00, 
1840.00, 
1841.00, 
1842.00, 
1843.00, 
1844.00, 
1845.00, 
1846.00, 
1847.00, 
1848.00, 
1849.00, 
1850.00, 
1851.00, 
1852.00, 
1853.00, 
1854.00, 
1855.00, 
1856.00, 
1857.00, 
1858.00, 
1859.00, 
1860.00, 
1861.00, 
1862.00, 
1863.00, 
1864.00, 
1865.00, 
1866.00, 
1867.00, 
1868.00, 
1869.00, 
1870.00, 
1871.00, 
1872.00, 
1873.00, 
1874.00, 
1875.00, 
1876.00, 
1877.00, 
1878.00, 
1879.00, 
1880.00, 
1881.00, 
1882.00, 
1883.00, 
1884.00, 
1885.00, 
1886.00, 
1887.00, 
1888.00, 
1889.00, 
1890.00, 
1891.00, 
1892.00, 
1893.00, 
1894.00, 
1895.00, 
1896.00, 
1897.00, 
1898.00, 
1899.00, 
1900.00, 
1901.00, 
1902.00, 
1903.00, 
1904.00, 
1905.00, 
1906.00, 
1907.00, 
1908.00, 
1909.00, 
1910.00, 
1911.00, 
1912.00, 
1913.00, 
1914.00, 
1915.00, 
1916.00, 
1917.00, 
1918.00, 
1919.00, 
1920.00, 
1921.00, 
1922.00, 
1923.00, 
1924.00, 
1925.00, 
1926.00, 
1927.00, 
1928.00, 
1929.00, 
1930.00, 
1931.00, 
1932.00, 
1933.00, 
1934.00, 
1935.00, 
1936.00, 
1937.00, 
1938.00, 
1939.00, 
1940.00, 
1941.00, 
1942.00, 
1943.00, 
1944.00, 
1945.00, 
1946.00, 
1947.00, 
1948.00, 
1949.00, 
1950.00, 
1951.00, 
1952.00, 
1953.00, 
1954.00, 
1955.00, 
1956.00, 
1957.00, 
1958.00, 
1959.00, 
1960.00, 
1961.00, 
1962.00, 
1963.00, 
1964.00, 
1965.00, 
1966.00, 
1967.00, 
1968.00, 
1969.00, 
1970.00, 
1971.00, 
1972.00, 
1973.00, 
1974.00, 
1975.00, 
1976.00, 
1977.00, 
1978.00, 
1979.00, 
1980.00, 
1981.00, 
1982.00, 
1983.00, 
1984.00, 
1985.00, 
1986.00, 
1987.00, 
1988.00, 
1989.00, 
1990.00, 
1991.00, 
1992.00, 
1993.00, 
1994.00, 
1995.00, 
1996.00, 
1997.00, 
1998.00, 
1999.00, 
2000.00, 
2001.00, 
2002.00, 
2003.00, 
2004.00, 
2005.00, 
2006.00, 
2007.00, 
2008.00, 
2009.00, 
2010.00, 
2011.00, 
2012.00, 
2013.00, 
2014.00, 
2015.00, 
2016.00, 
2017.00, 
2018.00, 
2019.00, 
2020.00, 
2021.00, 
2022.00, 
2023.00, 
2024.00, 
2025.00, 
2026.00, 
2027.00, 
2028.00, 
2029.00, 
2030.00, 
2031.00, 
2032.00, 
2033.00, 
2034.00, 
2035.00, 
2036.00, 
2037.00, 
2038.00, 
2039.00, 
2040.00, 
2041.00, 
2042.00, 
2043.00, 
2044.00, 
2045.00, 
2046.00, 
2047.00, 
2048.00, 
2049.00, 
2050.00, 
2051.00, 
2052.00, 
2053.00, 
2054.00, 
2055.00, 
2056.00, 
2057.00, 
2058.00, 
2059.00, 
2060.00, 
2061.00, 
2062.00, 
2063.00, 
2064.00, 
2065.00, 
2066.00, 
2067.00, 
2068.00, 
2069.00, 
2070.00, 
2071.00, 
2072.00, 
2073.00, 
2074.00, 
2075.00, 
2076.00, 
2077.00, 
2078.00, 
2079.00, 
2080.00, 
2081.00, 
2082.00, 
2083.00, 
2084.00, 
2085.00, 
2086.00, 
2087.00, 
2088.00, 
2089.00, 
2090.00, 
2091.00, 
2092.00, 
2093.00, 
2094.00, 
2095.00, 
2096.00, 
2097.00, 
2098.00, 
2099.00, 
2100.00, 
2101.00, 
2102.00, 
2103.00, 
2104.00, 
2105.00, 
2106.00, 
2107.00, 
2108.00, 
2109.00, 
2110.00, 
2111.00, 
2112.00, 
2113.00, 
2114.00, 
2115.00, 
2116.00, 
2117.00, 
2118.00, 
2119.00, 
2120.00, 
2121.00, 
2122.00, 
2123.00, 
2124.00, 
2125.00, 
2126.00, 
2127.00, 
2128.00, 
2129.00, 
2130.00, 
2131.00, 
2132.00, 
2133.00, 
2134.00, 
2135.00, 
2136.00, 
2137.00, 
2138.00, 
2139.00, 
2140.00, 
2141.00, 
2142.00, 
2143.00, 
2144.00, 
2145.00, 
2146.00, 
2147.00, 
2148.00, 
2149.00, 
2150.00, 
2151.00, 
2152.00, 
2153.00, 
2154.00, 
2155.00, 
2156.00, 
2157.00, 
2158.00, 
2159.00, 
2160.00, 
2161.00, 
2162.00, 
2163.00, 
2164.00, 
2165.00, 
2166.00, 
2167.00, 
2168.00, 
2169.00, 
2170.00, 
2171.00, 
2172.00, 
2173.00, 
2174.00, 
2175.00, 
2176.00, 
2177.00, 
2178.00, 
2179.00, 
2180.00, 
2181.00, 
2182.00, 
2183.00, 
2184.00, 
2185.00, 
2186.00, 
2187.00, 
2188.00, 
2189.00, 
2190.00, 
2191.00, 
2192.00, 
2193.00, 
2194.00, 
2195.00, 
2196.00, 
2197.00, 
2198.00, 
2199.00, 
2200.00, 
2201.00, 
2202.00, 
2203.00, 
2204.00, 
2205.00, 
2206.00, 
2207.00, 
2208.00, 
2209.00, 
2210.00, 
2211.00, 
2212.00, 
2213.00, 
2214.00, 
2215.00, 
2216.00, 
2217.00, 
2218.00, 
2219.00, 
2220.00, 
2221.00, 
2222.00, 
2223.00, 
2224.00, 
2225.00, 
2226.00, 
2227.00, 
2228.00, 
2229.00, 
2230.00, 
2231.00, 
2232.00, 
2233.00, 
2234.00, 
2235.00, 
2236.00, 
2237.00, 
2238.00, 
2239.00, 
2240.00, 
2241.00, 
2242.00, 
2243.00, 
2244.00, 
2245.00, 
2246.00, 
2247.00, 
2248.00, 
2249.00, 
2250.00, 
2251.00, 
2252.00, 
2253.00, 
2254.00, 
2255.00, 
2256.00, 
2257.00, 
2258.00, 
2259.00, 
2260.00, 
2261.00, 
2262.00, 
2263.00, 
2264.00, 
2265.00, 
2266.00, 
2267.00, 
2268.00, 
2269.00, 
2270.00, 
2271.00, 
2272.00, 
2273.00, 
2274.00, 
2275.00, 
2276.00, 
2277.00, 
2278.00, 
2279.00, 
2280.00, 
2281.00, 
2282.00, 
2283.00, 
2284.00, 
2285.00, 
2286.00, 
2287.00, 
2288.00, 
2289.00, 
2290.00, 
2291.00, 
2292.00, 
2293.00, 
2294.00, 
2295.00, 
2296.00, 
2297.00, 
2298.00, 
2299.00, 
2300.00, 
2301.00, 
2302.00, 
2303.00, 
2304.00, 
2305.00, 
2306.00, 
2307.00, 
2308.00, 
2309.00, 
2310.00, 
2311.00, 
2312.00, 
2313.00, 
2314.00, 
2315.00, 
2316.00, 
2317.00, 
2318.00, 
2319.00, 
2320.00, 
2321.00, 
2322.00, 
2323.00, 
2324.00, 
2325.00, 
2326.00, 
2327.00, 
2328.00, 
2329.00, 
2330.00, 
2331.00, 
2332.00, 
2333.00, 
2334.00, 
2335.00, 
2336.00, 
2337.00, 
2338.00, 
2339.00, 
2340.00, 
2341.00, 
2342.00, 
2343.00, 
2344.00, 
2345.00, 
2346.00, 
2347.00, 
2348.00, 
2349.00, 
2350.00, 
2351.00, 
2352.00, 
2353.00, 
2354.00, 
2355.00, 
2356.00, 
2357.00, 
2358.00, 
2359.00, 
2360.00, 
2361.00, 
2362.00, 
2363.00, 
2364.00, 
2365.00, 
2366.00, 
2367.00, 
2368.00, 
2369.00, 
2370.00, 
2371.00, 
2372.00, 
2373.00, 
2374.00, 
2375.00, 
2376.00, 
2377.00, 
2378.00, 
2379.00, 
2380.00, 
2381.00, 
2382.00, 
2383.00, 
2384.00, 
2385.00, 
2386.00, 
2387.00, 
2388.00, 
2389.00, 
2390.00, 
2391.00, 
2392.00, 
2393.00, 
2394.00, 
2395.00, 
2396.00, 
2397.00, 
2398.00, 
2399.00, 
2400.00, 
2401.00, 
2402.00, 
2403.00, 
2404.00, 
2405.00, 
2406.00, 
2407.00, 
2408.00, 
2409.00, 
2410.00, 
2411.00, 
2412.00, 
2413.00, 
2414.00, 
2415.00, 
2416.00, 
2417.00, 
2418.00, 
2419.00, 
2420.00, 
2421.00, 
2422.00, 
2423.00, 
2424.00, 
2425.00, 
2426.00, 
2427.00, 
2428.00, 
2429.00, 
2430.00, 
2431.00, 
2432.00, 
2433.00, 
2434.00, 
2435.00, 
2436.00, 
2437.00, 
2438.00, 
2439.00, 
2440.00, 
2441.00, 
2442.00, 
2443.00, 
2444.00, 
2445.00, 
2446.00, 
2447.00, 
2448.00, 
2449.00, 
2450.00, 
2451.00, 
2452.00, 
2453.00, 
2454.00, 
2455.00, 
2456.00, 
2457.00, 
2458.00, 
2459.00, 
2460.00, 
2461.00, 
2462.00, 
2463.00, 
2464.00, 
2465.00, 
2466.00, 
2467.00, 
2468.00, 
2469.00, 
2470.00, 
2471.00, 
2472.00, 
2473.00, 
2474.00, 
2475.00, 
2476.00, 
2477.00, 
2478.00, 
2479.00, 
2480.00, 
2481.00, 
2482.00, 
2483.00, 
2484.00, 
2485.00, 
2486.00, 
2487.00, 
2488.00, 
2489.00, 
2490.00, 
2491.00, 
2492.00, 
2493.00, 
2494.00, 
2495.00, 
2496.00, 
2497.00, 
2498.00, 
2499.00, 
2500.00, 
2501.00, 
2502.00, 
2503.00, 
2504.00, 
2505.00, 
2506.00, 
2507.00, 
2508.00, 
2509.00, 
2510.00, 
2511.00, 
2512.00, 
2513.00, 
2514.00, 
2515.00, 
2516.00, 
2517.00, 
2518.00, 
2519.00, 
2520.00, 
2521.00, 
2522.00, 
2523.00, 
2524.00, 
2525.00, 
2526.00, 
2527.00, 
2528.00, 
2529.00, 
2530.00, 
2531.00, 
2532.00, 
2533.00, 
2534.00, 
2535.00, 
2536.00, 
2537.00, 
2538.00, 
2539.00, 
2540.00, 
2541.00, 
2542.00, 
2543.00, 
2544.00, 
2545.00, 
2546.00, 
2547.00, 
2548.00, 
2549.00, 
2550.00, 
2551.00, 
2552.00, 
2553.00, 
2554.00, 
2555.00, 
2556.00, 
2557.00, 
2558.00, 
2559.00, 
2560.00, 
2561.00, 
2562.00, 
2563.00, 
2564.00, 
2565.00, 
2566.00, 
2567.00, 
2568.00, 
2569.00, 
2570.00, 
2571.00, 
2572.00, 
2573.00, 
2574.00, 
2575.00, 
2576.00, 
2577.00, 
2578.00, 
2579.00, 
2580.00, 
2581.00, 
2582.00, 
2583.00, 
2584.00, 
2585.00, 
2586.00, 
2587.00, 
2588.00, 
2589.00, 
2590.00, 
2591.00, 
2592.00, 
2593.00, 
2594.00, 
2595.00, 
2596.00, 
2597.00, 
2598.00, 
2599.00, 
2600.00, 
