"2cP5 - RawData"
"Wavelength nm.","T%"
200.00,-0.001
201.00,0.003
202.00,0.003
203.00,0.004
204.00,0.002
205.00,0.000
206.00,0.000
207.00,-0.001
208.00,0.004
209.00,0.000
210.00,0.001
211.00,0.004
212.00,0.001
213.00,0.000
214.00,-0.002
215.00,-0.000
216.00,0.000
217.00,0.002
218.00,0.002
219.00,-0.000
220.00,0.003
221.00,0.000
222.00,-0.002
223.00,0.001
224.00,-0.000
225.00,-0.001
226.00,0.002
227.00,0.001
228.00,-0.000
229.00,0.000
230.00,0.001
231.00,-0.002
232.00,-0.001
233.00,0.001
234.00,0.002
235.00,-0.002
236.00,0.000
237.00,0.000
238.00,0.001
239.00,-0.001
240.00,0.000
241.00,-0.000
242.00,-0.000
243.00,0.002
244.00,0.001
245.00,0.000
246.00,0.001
247.00,0.000
248.00,-0.000
249.00,0.001
250.00,-0.001
251.00,0.002
252.00,-0.001
253.00,0.001
254.00,-0.000
255.00,-0.001
256.00,-0.000
257.00,0.000
258.00,-0.001
259.00,-0.001
260.00,0.001
261.00,0.000
262.00,0.001
263.00,0.000
264.00,-0.001
265.00,0.002
266.00,0.001
267.00,-0.001
268.00,0.001
269.00,-0.001
270.00,-0.001
271.00,-0.000
272.00,0.001
273.00,0.000
274.00,-0.001
275.00,-0.001
276.00,0.002
277.00,-0.000
278.00,-0.000
279.00,0.001
280.00,-0.001
281.00,-0.000
282.00,-0.001
283.00,-0.001
284.00,-0.000
285.00,0.000
286.00,-0.001
287.00,-0.001
288.00,-0.000
289.00,-0.001
290.00,0.001
291.00,-0.000
292.00,-0.001
293.00,-0.000
294.00,0.001
295.00,0.001
296.00,-0.001
297.00,-0.001
298.00,-0.000
299.00,0.000
300.00,0.002
301.00,0.002
302.00,0.004
303.00,0.005
304.00,0.010
305.00,0.015
306.00,0.020
307.00,0.032
308.00,0.046
309.00,0.075
310.00,0.105
311.00,0.140
312.00,0.191
313.00,0.264
314.00,0.347
315.00,0.450
316.00,0.574
317.00,0.723
318.00,0.886
319.00,1.064
320.00,1.325
321.00,1.585
322.00,1.881
323.00,2.214
324.00,2.567
325.00,2.913
326.00,3.287
327.00,3.693
328.00,4.125
329.00,4.555
330.00,5.042
331.00,5.492
332.00,5.970
333.00,6.476
334.00,6.950
335.00,7.431
336.00,7.902
337.00,8.394
338.00,8.834
339.00,9.276
340.00,9.763
341.00,10.185
342.00,10.576
343.00,10.982
344.00,11.389
345.00,11.719
346.00,12.059
347.00,12.364
348.00,12.638
349.00,12.938
350.00,13.187
351.00,13.458
352.00,13.657
353.00,13.885
354.00,14.070
355.00,14.247
356.00,14.457
357.00,14.643
358.00,14.757
359.00,14.878
360.00,14.992
361.00,15.069
362.00,15.204
363.00,15.300
364.00,15.371
365.00,15.416
366.00,15.471
367.00,15.513
368.00,15.550
369.00,15.565
370.00,15.584
371.00,15.585
372.00,15.592
373.00,15.560
374.00,15.560
375.00,15.502
376.00,15.509
377.00,15.433
378.00,15.377
379.00,15.334
380.00,15.283
381.00,15.281
382.00,15.250
383.00,15.231
384.00,15.225
385.00,15.234
386.00,15.233
387.00,15.272
388.00,15.313
389.00,15.247
390.00,15.258
391.00,15.261
392.00,15.271
393.00,15.254
394.00,15.254
395.00,15.247
396.00,15.247
397.00,15.235
398.00,15.237
399.00,15.254
400.00,15.208
401.00,15.208
402.00,15.197
403.00,15.192
404.00,15.170
405.00,15.165
406.00,15.171
407.00,15.137
408.00,15.104
409.00,15.089
410.00,15.057
411.00,15.056
412.00,15.038
413.00,15.031
414.00,15.024
415.00,15.059
416.00,15.096
417.00,15.087
418.00,15.142
419.00,15.158
420.00,15.192
421.00,15.201
422.00,15.248
423.00,15.252
424.00,15.291
425.00,15.319
426.00,15.357
427.00,15.378
428.00,15.440
429.00,15.437
430.00,15.541
431.00,15.576
432.00,15.614
433.00,15.697
434.00,15.729
435.00,15.792
436.00,15.859
437.00,15.930
438.00,16.009
439.00,16.060
440.00,16.128
441.00,16.198
442.00,16.291
443.00,16.375
444.00,16.462
445.00,16.532
446.00,16.625
447.00,16.722
448.00,16.801
449.00,16.911
450.00,17.013
451.00,17.104
452.00,17.232
453.00,17.312
454.00,17.380
455.00,17.557
456.00,17.670
457.00,17.781
458.00,17.871
459.00,18.013
460.00,18.121
461.00,18.240
462.00,18.393
463.00,18.502
464.00,18.627
465.00,18.758
466.00,18.878
467.00,19.030
468.00,19.135
469.00,19.288
470.00,19.370
471.00,19.494
472.00,19.611
473.00,19.698
474.00,19.823
475.00,19.927
476.00,20.108
477.00,20.228
478.00,20.371
479.00,20.526
480.00,20.672
481.00,20.780
482.00,20.944
483.00,21.099
484.00,21.242
485.00,21.438
486.00,21.569
487.00,21.731
488.00,21.860
489.00,22.084
490.00,22.223
491.00,22.359
492.00,22.588
493.00,22.697
494.00,22.725
495.00,22.882
496.00,23.030
497.00,23.150
498.00,23.295
499.00,23.427
500.00,23.505
501.00,23.635
502.00,23.884
503.00,24.050
504.00,24.156
505.00,24.331
506.00,24.422
507.00,24.538
508.00,24.671
509.00,24.851
510.00,24.960
511.00,25.085
512.00,25.235
513.00,25.371
514.00,25.557
515.00,25.642
516.00,25.813
517.00,25.925
518.00,26.050
519.00,26.140
520.00,26.252
521.00,26.330
522.00,26.423
523.00,26.467
524.00,26.585
525.00,26.710
526.00,26.849
527.00,26.978
528.00,27.063
529.00,27.235
530.00,27.300
531.00,27.461
532.00,27.545
533.00,27.650
534.00,27.752
535.00,27.848
536.00,27.937
537.00,28.036
538.00,28.165
539.00,28.190
540.00,28.275
541.00,28.319
542.00,28.402
543.00,28.496
544.00,28.584
545.00,28.689
546.00,28.720
547.00,28.848
548.00,28.897
549.00,29.001
550.00,29.119
551.00,29.196
552.00,29.278
553.00,29.347
554.00,29.434
555.00,29.468
556.00,29.552
557.00,29.627
558.00,29.670
559.00,29.749
560.00,29.814
561.00,29.901
562.00,29.946
563.00,30.019
564.00,30.067
565.00,30.114
566.00,30.156
567.00,30.204
568.00,30.228
569.00,30.280
570.00,30.317
571.00,30.409
572.00,30.415
573.00,30.463
574.00,30.532
575.00,30.556
576.00,30.586
577.00,30.661
578.00,30.741
579.00,30.750
580.00,30.888
581.00,30.953
582.00,31.028
583.00,31.112
584.00,31.201
585.00,31.245
586.00,31.288
587.00,31.336
588.00,31.346
589.00,31.383
590.00,31.479
591.00,31.552
592.00,31.514
593.00,31.555
594.00,31.671
595.00,31.685
596.00,31.756
597.00,31.833
598.00,31.873
599.00,31.941
600.00,32.050
601.00,32.102
602.00,32.009
603.00,32.076
604.00,32.219
605.00,32.297
606.00,32.390
607.00,32.428
608.00,32.528
609.00,32.507
610.00,32.533
611.00,32.584
612.00,32.672
613.00,32.711
614.00,32.771
615.00,32.880
616.00,32.978
617.00,33.015
618.00,33.116
619.00,33.190
620.00,33.207
621.00,33.201
622.00,33.306
623.00,33.416
624.00,33.460
625.00,33.515
626.00,33.625
627.00,33.675
628.00,33.719
629.00,33.788
630.00,33.879
631.00,33.958
632.00,34.018
633.00,34.175
634.00,34.200
635.00,34.334
636.00,34.417
637.00,34.574
638.00,34.618
639.00,34.663
640.00,34.730
641.00,34.855
642.00,34.913
643.00,34.941
644.00,35.111
645.00,35.125
646.00,35.364
647.00,35.423
648.00,35.481
649.00,35.623
650.00,35.684
651.00,35.799
652.00,35.944
653.00,36.041
654.00,36.199
655.00,36.307
656.00,36.487
657.00,36.584
658.00,36.607
659.00,36.789
660.00,36.787
661.00,36.921
662.00,37.132
663.00,37.223
664.00,37.337
665.00,37.473
666.00,37.544
667.00,37.710
668.00,37.879
669.00,38.092
670.00,38.117
671.00,38.158
672.00,38.234
673.00,38.469
674.00,38.639
675.00,38.752
676.00,38.871
677.00,38.967
678.00,38.950
679.00,39.093
680.00,39.229
681.00,39.375
682.00,39.540
683.00,39.687
684.00,39.858
685.00,39.986
686.00,40.027
687.00,40.192
688.00,40.357
689.00,40.340
690.00,40.585
691.00,40.691
692.00,40.612
693.00,40.772
694.00,40.807
695.00,40.911
696.00,41.043
697.00,41.154
698.00,41.220
699.00,41.582
700.00,41.951
701.00,41.991
702.00,42.051
703.00,42.276
704.00,42.329
705.00,42.347
706.00,42.540
707.00,42.580
708.00,42.661
709.00,42.990
710.00,42.915
711.00,42.919
712.00,43.125
713.00,43.271
714.00,43.433
715.00,43.434
716.00,43.597
717.00,43.644
718.00,43.741
719.00,43.907
720.00,44.026
721.00,48.208
722.00,48.290
723.00,48.342
724.00,48.372
725.00,48.372
726.00,48.486
727.00,48.570
728.00,48.636
729.00,48.695
730.00,48.758
731.00,48.878
732.00,48.907
733.00,48.912
734.00,49.025
735.00,49.127
736.00,49.151
737.00,49.263
738.00,49.291
739.00,49.410
740.00,49.419
741.00,49.507
742.00,49.583
743.00,49.559
744.00,49.652
745.00,49.681
746.00,49.732
747.00,49.775
748.00,49.745
749.00,49.799
750.00,49.877
751.00,49.890
752.00,49.964
753.00,50.010
754.00,50.023
755.00,50.012
756.00,50.097
757.00,50.119
758.00,50.122
759.00,50.205
760.00,50.232
761.00,50.239
762.00,50.253
763.00,50.392
764.00,50.452
765.00,50.430
766.00,50.535
767.00,50.559
768.00,50.601
769.00,50.544
770.00,50.687
771.00,50.619
772.00,50.638
773.00,50.654
774.00,50.775
775.00,50.836
776.00,50.860
777.00,50.822
778.00,50.848
779.00,50.975
780.00,51.003
781.00,50.990
782.00,51.013
783.00,50.961
784.00,51.063
785.00,51.044
786.00,51.072
787.00,51.049
788.00,51.039
789.00,51.139
790.00,51.050
791.00,51.086
792.00,51.036
793.00,51.080
794.00,51.024
795.00,51.028
796.00,51.147
797.00,51.069
798.00,51.144
799.00,51.163
800.00,51.172
801.00,51.149
802.00,51.089
803.00,51.216
804.00,51.060
805.00,51.174
806.00,51.027
807.00,51.100
808.00,51.136
809.00,51.157
810.00,51.117
811.00,51.057
812.00,51.134
813.00,51.054
814.00,51.153
815.00,51.130
816.00,51.105
817.00,51.090
818.00,50.944
819.00,51.109
820.00,51.088
821.00,51.114
822.00,51.094
823.00,51.081
824.00,51.082
825.00,51.061
826.00,51.067
827.00,51.240
828.00,51.054
829.00,51.043
830.00,51.020
831.00,53.274
832.00,53.263
833.00,53.241
834.00,53.273
835.00,53.223
836.00,53.259
837.00,53.225
838.00,53.169
839.00,53.186
840.00,53.134
841.00,53.142
842.00,53.089
843.00,53.117
844.00,53.130
845.00,53.100
846.00,53.085
847.00,53.095
848.00,53.124
849.00,53.061
850.00,53.062
851.00,52.982
852.00,53.034
853.00,52.923
854.00,52.929
855.00,52.855
856.00,52.914
857.00,52.721
858.00,52.810
859.00,52.846
860.00,52.792
861.00,52.857
862.00,52.724
863.00,52.832
864.00,52.775
865.00,52.813
866.00,52.764
867.00,52.782
868.00,52.765
869.00,52.722
870.00,52.773
871.00,52.725
872.00,52.740
873.00,52.707
874.00,52.741
875.00,52.699
876.00,52.759
877.00,52.724
878.00,52.739
879.00,52.680
880.00,52.715
881.00,52.662
882.00,52.665
883.00,52.639
884.00,52.613
885.00,52.570
886.00,52.580
887.00,52.544
888.00,52.510
889.00,52.531
890.00,52.551
891.00,52.491
892.00,52.495
893.00,52.493
894.00,52.492
895.00,52.440
896.00,52.422
897.00,52.418
898.00,52.377
899.00,52.382
900.00,52.375
901.00,52.367
902.00,52.410
903.00,52.348
904.00,52.346
905.00,52.319
906.00,52.331
907.00,52.294
908.00,52.247
909.00,52.258
910.00,52.241
911.00,52.209
912.00,52.212
913.00,52.187
914.00,52.157
915.00,52.151
916.00,52.157
917.00,52.088
918.00,52.087
919.00,52.107
920.00,52.047
921.00,52.057
922.00,52.049
923.00,52.016
924.00,51.971
925.00,51.991
926.00,51.952
927.00,51.973
928.00,51.903
929.00,51.949
930.00,51.872
931.00,51.893
932.00,51.858
933.00,51.871
934.00,51.859
935.00,51.821
936.00,51.798
937.00,51.797
938.00,51.770
939.00,51.779
940.00,51.723
941.00,51.734
942.00,51.681
943.00,51.685
944.00,51.633
945.00,51.638
946.00,51.657
947.00,51.602
948.00,51.589
949.00,51.533
950.00,51.586
951.00,51.516
952.00,51.530
953.00,51.457
954.00,51.467
955.00,51.413
956.00,51.411
957.00,51.362
958.00,51.391
959.00,51.320
960.00,51.332
961.00,51.320
962.00,51.327
963.00,51.283
964.00,51.267
965.00,51.355
966.00,51.253
967.00,51.263
968.00,51.215
969.00,51.269
970.00,51.226
971.00,51.240
972.00,51.208
973.00,51.241
974.00,51.279
975.00,51.204
976.00,51.249
977.00,51.231
978.00,51.274
979.00,51.227
980.00,51.227
981.00,51.261
982.00,51.215
983.00,51.253
984.00,51.209
985.00,51.261
986.00,51.190
987.00,51.221
988.00,51.183
989.00,51.160
990.00,51.188
991.00,51.163
992.00,51.169
993.00,51.122
994.00,51.114
995.00,51.127
996.00,51.111
997.00,51.115
998.00,51.070
999.00,51.111
1000.00,51.046
1001.00,51.045
1002.00,51.043
1003.00,51.008
1004.00,51.025
1005.00,50.964
1006.00,51.013
1007.00,50.961
1008.00,50.961
1009.00,50.947
1010.00,50.923
1011.00,50.969
1012.00,50.900
1013.00,50.910
1014.00,50.874
1015.00,50.892
1016.00,50.855
1017.00,50.842
1018.00,50.854
1019.00,50.789
1020.00,50.792
1021.00,50.771
1022.00,50.768
1023.00,50.736
1024.00,50.722
1025.00,50.695
1026.00,50.717
1027.00,50.680
1028.00,50.672
1029.00,50.673
1030.00,50.626
1031.00,50.643
1032.00,50.608
1033.00,50.609
1034.00,50.579
1035.00,50.545
1036.00,50.521
1037.00,50.507
1038.00,50.488
1039.00,50.446
1040.00,50.467
1041.00,50.405
1042.00,50.415
1043.00,50.387
1044.00,50.408
1045.00,50.402
1046.00,50.380
1047.00,50.415
1048.00,50.428
1049.00,50.437
1050.00,50.434
1051.00,50.472
1052.00,50.442
1053.00,50.475
1054.00,50.467
1055.00,50.476
1056.00,50.501
1057.00,50.487
1058.00,50.469
1059.00,50.471
1060.00,50.482
1061.00,50.471
1062.00,50.478
1063.00,50.472
1064.00,50.478
1065.00,50.454
1066.00,50.438
1067.00,50.430
1068.00,50.449
1069.00,50.402
1070.00,50.407
1071.00,50.389
1072.00,50.419
1073.00,50.369
1074.00,50.362
1075.00,50.356
1076.00,50.349
1077.00,50.307
1078.00,50.309
1079.00,50.305
1080.00,50.302
1081.00,50.300
1082.00,50.286
1083.00,50.282
1084.00,50.281
1085.00,50.271
1086.00,50.265
1087.00,50.295
1088.00,50.245
1089.00,50.250
1090.00,50.214
1091.00,50.220
1092.00,50.204
1093.00,50.190
1094.00,50.171
1095.00,50.194
1096.00,50.168
1097.00,50.163
1098.00,50.166
1099.00,50.152
1100.00,50.140
1101.00,50.141
1102.00,50.124
1103.00,50.138
1104.00,50.097
1105.00,50.095
1106.00,50.090
1107.00,50.077
1108.00,50.055
1109.00,50.052
1110.00,50.047
1111.00,50.037
1112.00,50.030
1113.00,50.028
1114.00,50.025
1115.00,50.018
1116.00,49.998
1117.00,49.999
1118.00,49.978
1119.00,49.973
1120.00,49.964
1121.00,49.957
1122.00,49.951
1123.00,49.925
1124.00,49.920
1125.00,49.922
1126.00,49.912
1127.00,49.930
1128.00,49.924
1129.00,49.911
1130.00,49.884
1131.00,49.889
1132.00,49.852
1133.00,49.866
1134.00,49.851
1135.00,49.842
1136.00,49.827
1137.00,49.825
1138.00,49.829
1139.00,49.850
1140.00,49.815
1141.00,49.816
1142.00,49.818
1143.00,49.833
1144.00,49.798
1145.00,49.804
1146.00,49.790
1147.00,49.803
1148.00,49.781
1149.00,49.799
1150.00,49.801
1151.00,49.790
1152.00,49.777
1153.00,49.787
1154.00,49.761
1155.00,49.777
1156.00,49.745
1157.00,49.762
1158.00,49.743
1159.00,49.738
1160.00,49.739
1161.00,49.758
1162.00,49.737
1163.00,49.731
1164.00,49.747
1165.00,49.726
1166.00,49.751
1167.00,49.721
1168.00,49.744
1169.00,49.723
1170.00,49.719
1171.00,49.704
1172.00,49.721
1173.00,49.700
1174.00,49.714
1175.00,49.713
1176.00,49.706
1177.00,49.701
1178.00,49.692
1179.00,49.701
1180.00,49.693
1181.00,49.708
1182.00,49.691
1183.00,49.693
1184.00,49.663
1185.00,49.703
1186.00,49.680
1187.00,49.681
1188.00,49.669
1189.00,49.660
1190.00,49.689
1191.00,49.672
1192.00,49.683
1193.00,49.667
1194.00,49.679
1195.00,49.649
1196.00,49.674
1197.00,49.682
1198.00,49.646
1199.00,49.652
1200.00,49.647
1201.00,49.671
1202.00,49.651
1203.00,49.654
1204.00,49.647
1205.00,49.671
1206.00,49.650
1207.00,49.657
1208.00,49.645
1209.00,49.656
1210.00,49.664
1211.00,49.659
1212.00,49.693
1213.00,49.642
1214.00,49.647
1215.00,49.625
1216.00,49.631
1217.00,49.638
1218.00,49.624
1219.00,49.649
1220.00,49.615
1221.00,49.650
1222.00,49.616
1223.00,49.639
1224.00,49.646
1225.00,49.626
1226.00,49.635
1227.00,49.637
1228.00,49.639
1229.00,49.654
1230.00,49.679
1231.00,49.652
1232.00,49.698
1233.00,49.676
1234.00,49.677
1235.00,49.683
1236.00,49.666
1237.00,49.677
1238.00,49.671
1239.00,49.681
1240.00,49.659
1241.00,49.679
1242.00,49.674
1243.00,49.687
1244.00,49.667
1245.00,49.693
1246.00,49.700
1247.00,49.698
1248.00,49.685
1249.00,49.709
1250.00,49.712
1251.00,49.673
1252.00,49.692
1253.00,49.668
1254.00,49.698
1255.00,49.716
1256.00,49.672
1257.00,49.665
1258.00,49.702
1259.00,49.690
1260.00,49.724
1261.00,49.724
1262.00,49.719
1263.00,49.716
1264.00,49.715
1265.00,49.739
1266.00,49.728
1267.00,49.733
1268.00,49.750
1269.00,49.761
1270.00,49.776
1271.00,49.789
1272.00,49.775
1273.00,49.781
1274.00,49.771
1275.00,49.775
1276.00,49.772
1277.00,49.772
1278.00,49.772
1279.00,49.793
1280.00,49.774
1281.00,49.800
1282.00,49.816
1283.00,49.802
1284.00,49.809
1285.00,49.802
1286.00,49.807
1287.00,49.800
1288.00,49.797
1289.00,49.791
1290.00,49.821
1291.00,49.805
1292.00,49.814
1293.00,49.826
1294.00,49.818
1295.00,49.825
1296.00,49.840
1297.00,49.822
1298.00,49.874
1299.00,49.835
1300.00,49.856
1301.00,49.850
1302.00,49.880
1303.00,49.885
1304.00,49.873
1305.00,49.896
1306.00,49.880
1307.00,49.902
1308.00,49.888
1309.00,49.906
1310.00,49.904
1311.00,49.888
1312.00,49.906
1313.00,49.900
1314.00,49.904
1315.00,49.945
1316.00,49.938
1317.00,49.980
1318.00,49.957
1319.00,49.965
1320.00,49.973
1321.00,50.129
1322.00,50.125
1323.00,50.122
1324.00,50.125
1325.00,50.101
1326.00,50.136
1327.00,50.113
1328.00,50.111
1329.00,50.113
1330.00,50.113
1331.00,50.120
1332.00,50.108
1333.00,50.107
1334.00,50.146
1335.00,50.149
1336.00,50.186
1337.00,50.206
1338.00,50.265
1339.00,50.299
1340.00,50.363
1341.00,50.425
1342.00,50.495
1343.00,50.534
1344.00,50.582
1345.00,50.671
1346.00,50.702
1347.00,50.710
1348.00,50.750
1349.00,50.749
1350.00,50.776
1351.00,50.769
1352.00,50.784
1353.00,50.784
1354.00,50.803
1355.00,50.742
1356.00,50.829
1357.00,50.820
1358.00,50.822
1359.00,50.855
1360.00,50.864
1361.00,50.841
1362.00,50.778
1363.00,51.012
1364.00,50.976
1365.00,50.809
1366.00,50.888
1367.00,50.826
1368.00,50.745
1369.00,50.805
1370.00,50.808
1371.00,50.747
1372.00,50.786
1373.00,50.794
1374.00,50.824
1375.00,50.795
1376.00,50.791
1377.00,50.740
1378.00,50.847
1379.00,50.799
1380.00,50.805
1381.00,50.836
1382.00,50.715
1383.00,50.789
1384.00,50.694
1385.00,50.740
1386.00,50.813
1387.00,50.748
1388.00,50.730
1389.00,50.769
1390.00,50.794
1391.00,50.815
1392.00,50.753
1393.00,50.716
1394.00,50.799
1395.00,50.787
1396.00,50.700
1397.00,50.735
1398.00,50.764
1399.00,50.744
1400.00,50.776
1401.00,50.753
1402.00,50.759
1403.00,50.800
1404.00,50.817
1405.00,50.813
1406.00,50.812
1407.00,50.828
1408.00,50.913
1409.00,50.888
1410.00,50.845
1411.00,50.831
1412.00,50.908
1413.00,50.894
1414.00,50.864
1415.00,50.861
1416.00,50.903
1417.00,50.934
1418.00,50.911
1419.00,50.904
1420.00,50.907
1421.00,50.947
1422.00,50.964
1423.00,50.983
1424.00,50.969
1425.00,51.007
1426.00,50.981
1427.00,51.012
1428.00,51.012
1429.00,51.031
1430.00,51.034
1431.00,51.049
1432.00,51.060
1433.00,51.101
1434.00,51.065
1435.00,51.127
1436.00,51.136
1437.00,51.138
1438.00,51.145
1439.00,51.172
1440.00,51.184
1441.00,51.198
1442.00,51.219
1443.00,51.222
1444.00,51.286
1445.00,51.221
1446.00,51.258
1447.00,51.295
1448.00,51.317
1449.00,51.312
1450.00,51.310
1451.00,51.329
1452.00,51.348
1453.00,51.365
1454.00,51.387
1455.00,51.414
1456.00,51.413
1457.00,51.401
1458.00,51.448
1459.00,51.440
1460.00,51.465
1461.00,51.479
1462.00,51.512
1463.00,51.513
1464.00,51.514
1465.00,51.532
1466.00,51.538
1467.00,51.548
1468.00,51.606
1469.00,51.585
1470.00,51.595
1471.00,51.600
1472.00,51.611
1473.00,51.618
1474.00,51.661
1475.00,51.656
1476.00,51.671
1477.00,51.670
1478.00,51.687
1479.00,51.707
1480.00,51.708
1481.00,51.710
1482.00,51.739
1483.00,51.741
1484.00,51.761
1485.00,51.775
1486.00,51.789
1487.00,51.811
1488.00,51.846
1489.00,51.816
1490.00,51.826
1491.00,51.842
1492.00,51.853
1493.00,51.852
1494.00,51.877
1495.00,51.859
1496.00,51.889
1497.00,51.869
1498.00,51.886
1499.00,51.925
1500.00,51.924
1501.00, 
1502.00, 
1503.00, 
1504.00, 
1505.00, 
1506.00, 
1507.00, 
1508.00, 
1509.00, 
1510.00, 
1511.00, 
1512.00, 
1513.00, 
1514.00, 
1515.00, 
1516.00, 
1517.00, 
1518.00, 
1519.00, 
1520.00, 
1521.00, 
1522.00, 
1523.00, 
1524.00, 
1525.00, 
1526.00, 
1527.00, 
1528.00, 
1529.00, 
1530.00, 
1531.00, 
1532.00, 
1533.00, 
1534.00, 
1535.00, 
1536.00, 
1537.00, 
1538.00, 
1539.00, 
1540.00, 
1541.00, 
1542.00, 
1543.00, 
1544.00, 
1545.00, 
1546.00, 
1547.00, 
1548.00, 
1549.00, 
1550.00, 
1551.00, 
1552.00, 
1553.00, 
1554.00, 
1555.00, 
1556.00, 
1557.00, 
1558.00, 
1559.00, 
1560.00, 
1561.00, 
1562.00, 
1563.00, 
1564.00, 
1565.00, 
1566.00, 
1567.00, 
1568.00, 
1569.00, 
1570.00, 
1571.00, 
1572.00, 
1573.00, 
1574.00, 
1575.00, 
1576.00, 
1577.00, 
1578.00, 
1579.00, 
1580.00, 
1581.00, 
1582.00, 
1583.00, 
1584.00, 
1585.00, 
1586.00, 
1587.00, 
1588.00, 
1589.00, 
1590.00, 
1591.00, 
1592.00, 
1593.00, 
1594.00, 
1595.00, 
1596.00, 
1597.00, 
1598.00, 
1599.00, 
1600.00, 
1601.00, 
1602.00, 
1603.00, 
1604.00, 
1605.00, 
1606.00, 
1607.00, 
1608.00, 
1609.00, 
1610.00, 
1611.00, 
1612.00, 
1613.00, 
1614.00, 
1615.00, 
1616.00, 
1617.00, 
1618.00, 
1619.00, 
1620.00, 
1621.00, 
1622.00, 
1623.00, 
1624.00, 
1625.00, 
1626.00, 
1627.00, 
1628.00, 
1629.00, 
1630.00, 
1631.00, 
1632.00, 
1633.00, 
1634.00, 
1635.00, 
1636.00, 
1637.00, 
1638.00, 
1639.00, 
1640.00, 
1641.00, 
1642.00, 
1643.00, 
1644.00, 
1645.00, 
1646.00, 
1647.00, 
1648.00, 
1649.00, 
1650.00, 
1651.00, 
1652.00, 
1653.00, 
1654.00, 
1655.00, 
1656.00, 
1657.00, 
1658.00, 
1659.00, 
1660.00, 
1661.00, 
1662.00, 
1663.00, 
1664.00, 
1665.00, 
1666.00, 
1667.00, 
1668.00, 
1669.00, 
1670.00, 
1671.00, 
1672.00, 
1673.00, 
1674.00, 
1675.00, 
1676.00, 
1677.00, 
1678.00, 
1679.00, 
1680.00, 
1681.00, 
1682.00, 
1683.00, 
1684.00, 
1685.00, 
1686.00, 
1687.00, 
1688.00, 
1689.00, 
1690.00, 
1691.00, 
1692.00, 
1693.00, 
1694.00, 
1695.00, 
1696.00, 
1697.00, 
1698.00, 
1699.00, 
1700.00, 
1701.00, 
1702.00, 
1703.00, 
1704.00, 
1705.00, 
1706.00, 
1707.00, 
1708.00, 
1709.00, 
1710.00, 
1711.00, 
1712.00, 
1713.00, 
1714.00, 
1715.00, 
1716.00, 
1717.00, 
1718.00, 
1719.00, 
1720.00, 
1721.00, 
1722.00, 
1723.00, 
1724.00, 
1725.00, 
1726.00, 
1727.00, 
1728.00, 
1729.00, 
1730.00, 
1731.00, 
1732.00, 
1733.00, 
1734.00, 
1735.00, 
1736.00, 
1737.00, 
1738.00, 
1739.00, 
1740.00, 
1741.00, 
1742.00, 
1743.00, 
1744.00, 
1745.00, 
1746.00, 
1747.00, 
1748.00, 
1749.00, 
1750.00, 
1751.00, 
1752.00, 
1753.00, 
1754.00, 
1755.00, 
1756.00, 
1757.00, 
1758.00, 
1759.00, 
1760.00, 
1761.00, 
1762.00, 
1763.00, 
1764.00, 
1765.00, 
1766.00, 
1767.00, 
1768.00, 
1769.00, 
1770.00, 
1771.00, 
1772.00, 
1773.00, 
1774.00, 
1775.00, 
1776.00, 
1777.00, 
1778.00, 
1779.00, 
1780.00, 
1781.00, 
1782.00, 
1783.00, 
1784.00, 
1785.00, 
1786.00, 
1787.00, 
1788.00, 
1789.00, 
1790.00, 
1791.00, 
1792.00, 
1793.00, 
1794.00, 
1795.00, 
1796.00, 
1797.00, 
1798.00, 
1799.00, 
1800.00, 
1801.00, 
1802.00, 
1803.00, 
1804.00, 
1805.00, 
1806.00, 
1807.00, 
1808.00, 
1809.00, 
1810.00, 
1811.00, 
1812.00, 
1813.00, 
1814.00, 
1815.00, 
1816.00, 
1817.00, 
1818.00, 
1819.00, 
1820.00, 
1821.00, 
1822.00, 
1823.00, 
1824.00, 
1825.00, 
1826.00, 
1827.00, 
1828.00, 
1829.00, 
1830.00, 
1831.00, 
1832.00, 
1833.00, 
1834.00, 
1835.00, 
1836.00, 
1837.00, 
1838.00, 
1839.00, 
1840.00, 
1841.00, 
1842.00, 
1843.00, 
1844.00, 
1845.00, 
1846.00, 
1847.00, 
1848.00, 
1849.00, 
1850.00, 
1851.00, 
1852.00, 
1853.00, 
1854.00, 
1855.00, 
1856.00, 
1857.00, 
1858.00, 
1859.00, 
1860.00, 
1861.00, 
1862.00, 
1863.00, 
1864.00, 
1865.00, 
1866.00, 
1867.00, 
1868.00, 
1869.00, 
1870.00, 
1871.00, 
1872.00, 
1873.00, 
1874.00, 
1875.00, 
1876.00, 
1877.00, 
1878.00, 
1879.00, 
1880.00, 
1881.00, 
1882.00, 
1883.00, 
1884.00, 
1885.00, 
1886.00, 
1887.00, 
1888.00, 
1889.00, 
1890.00, 
1891.00, 
1892.00, 
1893.00, 
1894.00, 
1895.00, 
1896.00, 
1897.00, 
1898.00, 
1899.00, 
1900.00, 
1901.00, 
1902.00, 
1903.00, 
1904.00, 
1905.00, 
1906.00, 
1907.00, 
1908.00, 
1909.00, 
1910.00, 
1911.00, 
1912.00, 
1913.00, 
1914.00, 
1915.00, 
1916.00, 
1917.00, 
1918.00, 
1919.00, 
1920.00, 
1921.00, 
1922.00, 
1923.00, 
1924.00, 
1925.00, 
1926.00, 
1927.00, 
1928.00, 
1929.00, 
1930.00, 
1931.00, 
1932.00, 
1933.00, 
1934.00, 
1935.00, 
1936.00, 
1937.00, 
1938.00, 
1939.00, 
1940.00, 
1941.00, 
1942.00, 
1943.00, 
1944.00, 
1945.00, 
1946.00, 
1947.00, 
1948.00, 
1949.00, 
1950.00, 
1951.00, 
1952.00, 
1953.00, 
1954.00, 
1955.00, 
1956.00, 
1957.00, 
1958.00, 
1959.00, 
1960.00, 
1961.00, 
1962.00, 
1963.00, 
1964.00, 
1965.00, 
1966.00, 
1967.00, 
1968.00, 
1969.00, 
1970.00, 
1971.00, 
1972.00, 
1973.00, 
1974.00, 
1975.00, 
1976.00, 
1977.00, 
1978.00, 
1979.00, 
1980.00, 
1981.00, 
1982.00, 
1983.00, 
1984.00, 
1985.00, 
1986.00, 
1987.00, 
1988.00, 
1989.00, 
1990.00, 
1991.00, 
1992.00, 
1993.00, 
1994.00, 
1995.00, 
1996.00, 
1997.00, 
1998.00, 
1999.00, 
2000.00, 
2001.00, 
2002.00, 
2003.00, 
2004.00, 
2005.00, 
2006.00, 
2007.00, 
2008.00, 
2009.00, 
2010.00, 
2011.00, 
2012.00, 
2013.00, 
2014.00, 
2015.00, 
2016.00, 
2017.00, 
2018.00, 
2019.00, 
2020.00, 
2021.00, 
2022.00, 
2023.00, 
2024.00, 
2025.00, 
2026.00, 
2027.00, 
2028.00, 
2029.00, 
2030.00, 
2031.00, 
2032.00, 
2033.00, 
2034.00, 
2035.00, 
2036.00, 
2037.00, 
2038.00, 
2039.00, 
2040.00, 
2041.00, 
2042.00, 
2043.00, 
2044.00, 
2045.00, 
2046.00, 
2047.00, 
2048.00, 
2049.00, 
2050.00, 
2051.00, 
2052.00, 
2053.00, 
2054.00, 
2055.00, 
2056.00, 
2057.00, 
2058.00, 
2059.00, 
2060.00, 
2061.00, 
2062.00, 
2063.00, 
2064.00, 
2065.00, 
2066.00, 
2067.00, 
2068.00, 
2069.00, 
2070.00, 
2071.00, 
2072.00, 
2073.00, 
2074.00, 
2075.00, 
2076.00, 
2077.00, 
2078.00, 
2079.00, 
2080.00, 
2081.00, 
2082.00, 
2083.00, 
2084.00, 
2085.00, 
2086.00, 
2087.00, 
2088.00, 
2089.00, 
2090.00, 
2091.00, 
2092.00, 
2093.00, 
2094.00, 
2095.00, 
2096.00, 
2097.00, 
2098.00, 
2099.00, 
2100.00, 
2101.00, 
2102.00, 
2103.00, 
2104.00, 
2105.00, 
2106.00, 
2107.00, 
2108.00, 
2109.00, 
2110.00, 
2111.00, 
2112.00, 
2113.00, 
2114.00, 
2115.00, 
2116.00, 
2117.00, 
2118.00, 
2119.00, 
2120.00, 
2121.00, 
2122.00, 
2123.00, 
2124.00, 
2125.00, 
2126.00, 
2127.00, 
2128.00, 
2129.00, 
2130.00, 
2131.00, 
2132.00, 
2133.00, 
2134.00, 
2135.00, 
2136.00, 
2137.00, 
2138.00, 
2139.00, 
2140.00, 
2141.00, 
2142.00, 
2143.00, 
2144.00, 
2145.00, 
2146.00, 
2147.00, 
2148.00, 
2149.00, 
2150.00, 
2151.00, 
2152.00, 
2153.00, 
2154.00, 
2155.00, 
2156.00, 
2157.00, 
2158.00, 
2159.00, 
2160.00, 
2161.00, 
2162.00, 
2163.00, 
2164.00, 
2165.00, 
2166.00, 
2167.00, 
2168.00, 
2169.00, 
2170.00, 
2171.00, 
2172.00, 
2173.00, 
2174.00, 
2175.00, 
2176.00, 
2177.00, 
2178.00, 
2179.00, 
2180.00, 
2181.00, 
2182.00, 
2183.00, 
2184.00, 
2185.00, 
2186.00, 
2187.00, 
2188.00, 
2189.00, 
2190.00, 
2191.00, 
2192.00, 
2193.00, 
2194.00, 
2195.00, 
2196.00, 
2197.00, 
2198.00, 
2199.00, 
2200.00, 
2201.00, 
2202.00, 
2203.00, 
2204.00, 
2205.00, 
2206.00, 
2207.00, 
2208.00, 
2209.00, 
2210.00, 
2211.00, 
2212.00, 
2213.00, 
2214.00, 
2215.00, 
2216.00, 
2217.00, 
2218.00, 
2219.00, 
2220.00, 
2221.00, 
2222.00, 
2223.00, 
2224.00, 
2225.00, 
2226.00, 
2227.00, 
2228.00, 
2229.00, 
2230.00, 
2231.00, 
2232.00, 
2233.00, 
2234.00, 
2235.00, 
2236.00, 
2237.00, 
2238.00, 
2239.00, 
2240.00, 
2241.00, 
2242.00, 
2243.00, 
2244.00, 
2245.00, 
2246.00, 
2247.00, 
2248.00, 
2249.00, 
2250.00, 
2251.00, 
2252.00, 
2253.00, 
2254.00, 
2255.00, 
2256.00, 
2257.00, 
2258.00, 
2259.00, 
2260.00, 
2261.00, 
2262.00, 
2263.00, 
2264.00, 
2265.00, 
2266.00, 
2267.00, 
2268.00, 
2269.00, 
2270.00, 
2271.00, 
2272.00, 
2273.00, 
2274.00, 
2275.00, 
2276.00, 
2277.00, 
2278.00, 
2279.00, 
2280.00, 
2281.00, 
2282.00, 
2283.00, 
2284.00, 
2285.00, 
2286.00, 
2287.00, 
2288.00, 
2289.00, 
2290.00, 
2291.00, 
2292.00, 
2293.00, 
2294.00, 
2295.00, 
2296.00, 
2297.00, 
2298.00, 
2299.00, 
2300.00, 
2301.00, 
2302.00, 
2303.00, 
2304.00, 
2305.00, 
2306.00, 
2307.00, 
2308.00, 
2309.00, 
2310.00, 
2311.00, 
2312.00, 
2313.00, 
2314.00, 
2315.00, 
2316.00, 
2317.00, 
2318.00, 
2319.00, 
2320.00, 
2321.00, 
2322.00, 
2323.00, 
2324.00, 
2325.00, 
2326.00, 
2327.00, 
2328.00, 
2329.00, 
2330.00, 
2331.00, 
2332.00, 
2333.00, 
2334.00, 
2335.00, 
2336.00, 
2337.00, 
2338.00, 
2339.00, 
2340.00, 
2341.00, 
2342.00, 
2343.00, 
2344.00, 
2345.00, 
2346.00, 
2347.00, 
2348.00, 
2349.00, 
2350.00, 
2351.00, 
2352.00, 
2353.00, 
2354.00, 
2355.00, 
2356.00, 
2357.00, 
2358.00, 
2359.00, 
2360.00, 
2361.00, 
2362.00, 
2363.00, 
2364.00, 
2365.00, 
2366.00, 
2367.00, 
2368.00, 
2369.00, 
2370.00, 
2371.00, 
2372.00, 
2373.00, 
2374.00, 
2375.00, 
2376.00, 
2377.00, 
2378.00, 
2379.00, 
2380.00, 
2381.00, 
2382.00, 
2383.00, 
2384.00, 
2385.00, 
2386.00, 
2387.00, 
2388.00, 
2389.00, 
2390.00, 
2391.00, 
2392.00, 
2393.00, 
2394.00, 
2395.00, 
2396.00, 
2397.00, 
2398.00, 
2399.00, 
2400.00, 
2401.00, 
2402.00, 
2403.00, 
2404.00, 
2405.00, 
2406.00, 
2407.00, 
2408.00, 
2409.00, 
2410.00, 
2411.00, 
2412.00, 
2413.00, 
2414.00, 
2415.00, 
2416.00, 
2417.00, 
2418.00, 
2419.00, 
2420.00, 
2421.00, 
2422.00, 
2423.00, 
2424.00, 
2425.00, 
2426.00, 
2427.00, 
2428.00, 
2429.00, 
2430.00, 
2431.00, 
2432.00, 
2433.00, 
2434.00, 
2435.00, 
2436.00, 
2437.00, 
2438.00, 
2439.00, 
2440.00, 
2441.00, 
2442.00, 
2443.00, 
2444.00, 
2445.00, 
2446.00, 
2447.00, 
2448.00, 
2449.00, 
2450.00, 
2451.00, 
2452.00, 
2453.00, 
2454.00, 
2455.00, 
2456.00, 
2457.00, 
2458.00, 
2459.00, 
2460.00, 
2461.00, 
2462.00, 
2463.00, 
2464.00, 
2465.00, 
2466.00, 
2467.00, 
2468.00, 
2469.00, 
2470.00, 
2471.00, 
2472.00, 
2473.00, 
2474.00, 
2475.00, 
2476.00, 
2477.00, 
2478.00, 
2479.00, 
2480.00, 
2481.00, 
2482.00, 
2483.00, 
2484.00, 
2485.00, 
2486.00, 
2487.00, 
2488.00, 
2489.00, 
2490.00, 
2491.00, 
2492.00, 
2493.00, 
2494.00, 
2495.00, 
2496.00, 
2497.00, 
2498.00, 
2499.00, 
2500.00, 
2501.00, 
2502.00, 
2503.00, 
2504.00, 
2505.00, 
2506.00, 
2507.00, 
2508.00, 
2509.00, 
2510.00, 
2511.00, 
2512.00, 
2513.00, 
2514.00, 
2515.00, 
2516.00, 
2517.00, 
2518.00, 
2519.00, 
2520.00, 
2521.00, 
2522.00, 
2523.00, 
2524.00, 
2525.00, 
2526.00, 
2527.00, 
2528.00, 
2529.00, 
2530.00, 
2531.00, 
2532.00, 
2533.00, 
2534.00, 
2535.00, 
2536.00, 
2537.00, 
2538.00, 
2539.00, 
2540.00, 
2541.00, 
2542.00, 
2543.00, 
2544.00, 
2545.00, 
2546.00, 
2547.00, 
2548.00, 
2549.00, 
2550.00, 
2551.00, 
2552.00, 
2553.00, 
2554.00, 
2555.00, 
2556.00, 
2557.00, 
2558.00, 
2559.00, 
2560.00, 
2561.00, 
2562.00, 
2563.00, 
2564.00, 
2565.00, 
2566.00, 
2567.00, 
2568.00, 
2569.00, 
2570.00, 
2571.00, 
2572.00, 
2573.00, 
2574.00, 
2575.00, 
2576.00, 
2577.00, 
2578.00, 
2579.00, 
2580.00, 
2581.00, 
2582.00, 
2583.00, 
2584.00, 
2585.00, 
2586.00, 
2587.00, 
2588.00, 
2589.00, 
2590.00, 
2591.00, 
2592.00, 
2593.00, 
2594.00, 
2595.00, 
2596.00, 
2597.00, 
2598.00, 
2599.00, 
2600.00, 
