"1aP2 - RawData"
"Wavelength nm.","T%"
200.00,0.004
201.00,0.000
202.00,-0.000
203.00,0.003
204.00,0.001
205.00,0.001
206.00,0.001
207.00,0.001
208.00,0.005
209.00,-0.000
210.00,-0.001
211.00,0.000
212.00,0.001
213.00,0.002
214.00,-0.001
215.00,0.001
216.00,0.002
217.00,0.004
218.00,0.001
219.00,0.004
220.00,0.002
221.00,0.003
222.00,-0.000
223.00,0.001
224.00,0.001
225.00,0.000
226.00,0.003
227.00,0.001
228.00,0.000
229.00,-0.000
230.00,0.001
231.00,0.003
232.00,0.003
233.00,0.002
234.00,0.001
235.00,0.001
236.00,0.000
237.00,-0.000
238.00,0.002
239.00,0.001
240.00,-0.002
241.00,-0.001
242.00,0.001
243.00,0.001
244.00,0.002
245.00,0.001
246.00,0.001
247.00,0.000
248.00,0.001
249.00,0.001
250.00,0.000
251.00,0.002
252.00,-0.001
253.00,-0.000
254.00,-0.001
255.00,0.001
256.00,0.000
257.00,0.000
258.00,0.001
259.00,-0.001
260.00,0.002
261.00,0.000
262.00,-0.002
263.00,0.001
264.00,0.002
265.00,0.001
266.00,0.000
267.00,0.001
268.00,-0.000
269.00,0.001
270.00,-0.002
271.00,0.002
272.00,-0.001
273.00,0.001
274.00,0.001
275.00,-0.001
276.00,-0.001
277.00,0.001
278.00,0.000
279.00,0.002
280.00,0.000
281.00,0.000
282.00,0.000
283.00,-0.000
284.00,-0.001
285.00,0.000
286.00,0.001
287.00,0.000
288.00,0.000
289.00,-0.002
290.00,0.000
291.00,0.000
292.00,-0.000
293.00,-0.001
294.00,-0.001
295.00,-0.001
296.00,0.001
297.00,-0.000
298.00,0.001
299.00,0.001
300.00,0.004
301.00,0.006
302.00,0.008
303.00,0.015
304.00,0.023
305.00,0.033
306.00,0.050
307.00,0.076
308.00,0.119
309.00,0.182
310.00,0.243
311.00,0.336
312.00,0.452
313.00,0.607
314.00,0.791
315.00,1.023
316.00,1.299
317.00,1.632
318.00,1.998
319.00,2.420
320.00,2.929
321.00,3.496
322.00,4.105
323.00,4.796
324.00,5.524
325.00,6.249
326.00,6.981
327.00,7.846
328.00,8.710
329.00,9.600
330.00,10.510
331.00,11.399
332.00,12.329
333.00,13.227
334.00,14.144
335.00,15.133
336.00,16.046
337.00,16.918
338.00,17.780
339.00,18.560
340.00,19.407
341.00,20.224
342.00,20.943
343.00,21.656
344.00,22.337
345.00,23.001
346.00,23.579
347.00,24.142
348.00,24.751
349.00,25.242
350.00,25.751
351.00,26.238
352.00,26.530
353.00,26.865
354.00,27.310
355.00,27.692
356.00,27.997
357.00,28.272
358.00,28.519
359.00,28.772
360.00,29.010
361.00,29.210
362.00,29.405
363.00,29.637
364.00,29.767
365.00,29.912
366.00,29.978
367.00,30.110
368.00,30.217
369.00,30.262
370.00,30.312
371.00,30.338
372.00,30.368
373.00,30.349
374.00,30.347
375.00,30.267
376.00,30.288
377.00,30.242
378.00,30.164
379.00,30.083
380.00,30.101
381.00,30.077
382.00,30.101
383.00,30.116
384.00,30.210
385.00,30.207
386.00,30.245
387.00,30.203
388.00,30.362
389.00,30.419
390.00,30.550
391.00,30.502
392.00,30.535
393.00,30.477
394.00,30.573
395.00,30.657
396.00,30.675
397.00,30.716
398.00,30.737
399.00,30.733
400.00,30.720
401.00,30.751
402.00,30.760
403.00,30.747
404.00,30.710
405.00,30.711
406.00,30.761
407.00,30.664
408.00,30.660
409.00,30.629
410.00,30.556
411.00,30.572
412.00,30.521
413.00,30.554
414.00,30.496
415.00,30.523
416.00,30.588
417.00,30.593
418.00,30.568
419.00,30.617
420.00,30.663
421.00,30.689
422.00,30.775
423.00,30.833
424.00,30.848
425.00,30.903
426.00,30.934
427.00,30.990
428.00,31.027
429.00,31.047
430.00,31.125
431.00,31.183
432.00,31.222
433.00,31.301
434.00,31.314
435.00,31.401
436.00,31.442
437.00,31.501
438.00,31.584
439.00,31.659
440.00,31.773
441.00,31.814
442.00,31.860
443.00,31.990
444.00,32.068
445.00,32.111
446.00,32.236
447.00,32.319
448.00,32.436
449.00,32.522
450.00,32.616
451.00,32.757
452.00,32.830
453.00,32.938
454.00,33.042
455.00,33.116
456.00,33.235
457.00,33.343
458.00,33.463
459.00,33.532
460.00,33.624
461.00,33.680
462.00,33.902
463.00,34.027
464.00,34.188
465.00,34.296
466.00,34.432
467.00,34.452
468.00,34.604
469.00,34.734
470.00,34.789
471.00,34.898
472.00,35.008
473.00,35.073
474.00,35.187
475.00,35.303
476.00,35.422
477.00,35.489
478.00,35.602
479.00,35.739
480.00,35.772
481.00,35.926
482.00,36.051
483.00,36.327
484.00,36.440
485.00,36.589
486.00,36.746
487.00,36.854
488.00,36.992
489.00,37.144
490.00,37.206
491.00,37.337
492.00,37.326
493.00,37.636
494.00,37.693
495.00,37.799
496.00,37.910
497.00,37.973
498.00,38.166
499.00,38.312
500.00,38.354
501.00,38.488
502.00,38.588
503.00,38.648
504.00,38.792
505.00,38.879
506.00,38.998
507.00,39.000
508.00,39.119
509.00,39.203
510.00,39.384
511.00,39.522
512.00,39.662
513.00,39.763
514.00,39.857
515.00,39.997
516.00,40.102
517.00,40.176
518.00,40.258
519.00,40.350
520.00,40.417
521.00,40.437
522.00,40.597
523.00,40.657
524.00,40.669
525.00,40.737
526.00,40.841
527.00,40.897
528.00,40.962
529.00,41.049
530.00,41.158
531.00,41.327
532.00,41.381
533.00,41.422
534.00,41.536
535.00,41.567
536.00,41.634
537.00,41.709
538.00,41.746
539.00,41.875
540.00,41.860
541.00,41.861
542.00,41.988
543.00,42.022
544.00,42.092
545.00,42.058
546.00,42.059
547.00,42.118
548.00,42.274
549.00,42.342
550.00,42.416
551.00,42.465
552.00,42.545
553.00,42.570
554.00,42.638
555.00,42.645
556.00,42.668
557.00,42.764
558.00,42.760
559.00,42.798
560.00,42.885
561.00,42.971
562.00,42.944
563.00,43.046
564.00,43.030
565.00,43.042
566.00,43.058
567.00,43.066
568.00,42.962
569.00,43.217
570.00,43.169
571.00,43.233
572.00,43.263
573.00,43.249
574.00,43.308
575.00,43.280
576.00,43.312
577.00,43.343
578.00,43.400
579.00,43.434
580.00,43.484
581.00,43.602
582.00,43.620
583.00,43.704
584.00,43.733
585.00,43.793
586.00,43.833
587.00,43.800
588.00,43.933
589.00,43.910
590.00,43.923
591.00,43.946
592.00,43.799
593.00,43.902
594.00,44.018
595.00,44.110
596.00,44.189
597.00,44.159
598.00,44.297
599.00,44.292
600.00,44.328
601.00,44.364
602.00,44.400
603.00,44.403
604.00,44.416
605.00,44.398
606.00,44.508
607.00,44.529
608.00,44.547
609.00,44.529
610.00,44.598
611.00,44.689
612.00,44.602
613.00,44.632
614.00,44.665
615.00,44.666
616.00,44.840
617.00,44.818
618.00,44.838
619.00,44.916
620.00,44.843
621.00,44.909
622.00,45.040
623.00,45.048
624.00,45.095
625.00,45.103
626.00,45.155
627.00,45.194
628.00,45.268
629.00,45.276
630.00,45.246
631.00,45.344
632.00,45.461
633.00,45.406
634.00,45.455
635.00,45.595
636.00,45.675
637.00,45.580
638.00,45.789
639.00,45.916
640.00,45.906
641.00,45.901
642.00,45.934
643.00,46.026
644.00,46.094
645.00,46.061
646.00,46.191
647.00,46.219
648.00,46.315
649.00,46.359
650.00,46.296
651.00,46.496
652.00,46.551
653.00,46.542
654.00,46.637
655.00,46.716
656.00,46.748
657.00,46.910
658.00,46.726
659.00,46.967
660.00,47.064
661.00,46.978
662.00,47.183
663.00,47.141
664.00,47.286
665.00,47.358
666.00,47.376
667.00,47.583
668.00,47.369
669.00,47.509
670.00,47.692
671.00,47.762
672.00,47.644
673.00,47.847
674.00,47.876
675.00,47.964
676.00,48.070
677.00,48.096
678.00,48.051
679.00,48.231
680.00,48.257
681.00,48.385
682.00,48.467
683.00,48.498
684.00,48.632
685.00,48.664
686.00,48.625
687.00,48.713
688.00,48.753
689.00,48.627
690.00,48.744
691.00,48.974
692.00,48.994
693.00,49.042
694.00,49.040
695.00,49.125
696.00,49.077
697.00,49.118
698.00,49.250
699.00,49.332
700.00,49.463
701.00,49.467
702.00,49.551
703.00,49.707
704.00,49.707
705.00,49.575
706.00,49.677
707.00,49.980
708.00,49.664
709.00,49.867
710.00,50.121
711.00,49.891
712.00,49.859
713.00,50.103
714.00,49.891
715.00,50.054
716.00,50.235
717.00,50.072
718.00,50.223
719.00,50.224
720.00,50.135
721.00,54.759
722.00,54.669
723.00,54.590
724.00,54.762
725.00,54.768
726.00,54.664
727.00,54.717
728.00,54.647
729.00,54.703
730.00,54.765
731.00,54.793
732.00,54.734
733.00,54.779
734.00,54.816
735.00,54.809
736.00,54.775
737.00,54.745
738.00,54.847
739.00,54.815
740.00,54.815
741.00,54.806
742.00,54.862
743.00,54.834
744.00,54.840
745.00,54.837
746.00,54.767
747.00,54.798
748.00,54.824
749.00,54.739
750.00,54.724
751.00,54.681
752.00,54.663
753.00,54.669
754.00,54.668
755.00,54.618
756.00,54.726
757.00,54.628
758.00,54.680
759.00,54.611
760.00,54.599
761.00,54.662
762.00,54.612
763.00,54.668
764.00,54.645
765.00,54.540
766.00,54.706
767.00,54.611
768.00,54.667
769.00,54.586
770.00,54.693
771.00,54.622
772.00,54.675
773.00,54.599
774.00,54.606
775.00,54.640
776.00,54.594
777.00,54.606
778.00,54.562
779.00,54.645
780.00,54.507
781.00,54.579
782.00,54.587
783.00,54.512
784.00,54.554
785.00,54.445
786.00,54.539
787.00,54.460
788.00,54.427
789.00,54.462
790.00,54.321
791.00,54.490
792.00,54.344
793.00,54.384
794.00,54.350
795.00,54.360
796.00,54.322
797.00,54.285
798.00,54.363
799.00,54.307
800.00,54.282
801.00,54.232
802.00,54.241
803.00,54.183
804.00,54.134
805.00,54.158
806.00,54.103
807.00,54.143
808.00,54.095
809.00,54.061
810.00,54.119
811.00,54.139
812.00,54.068
813.00,53.953
814.00,53.985
815.00,54.039
816.00,54.010
817.00,54.020
818.00,53.902
819.00,53.848
820.00,53.869
821.00,53.898
822.00,53.888
823.00,53.857
824.00,53.878
825.00,53.773
826.00,53.802
827.00,53.780
828.00,53.823
829.00,53.810
830.00,53.729
831.00,56.177
832.00,56.151
833.00,56.114
834.00,56.128
835.00,56.091
836.00,56.128
837.00,56.069
838.00,56.068
839.00,56.034
840.00,55.983
841.00,56.035
842.00,55.966
843.00,55.943
844.00,56.071
845.00,55.881
846.00,55.939
847.00,55.878
848.00,55.882
849.00,55.849
850.00,55.786
851.00,55.731
852.00,55.752
853.00,55.699
854.00,55.693
855.00,55.603
856.00,55.630
857.00,55.583
858.00,55.559
859.00,55.572
860.00,55.539
861.00,55.533
862.00,55.507
863.00,55.512
864.00,55.472
865.00,55.493
866.00,55.433
867.00,55.470
868.00,55.448
869.00,55.398
870.00,55.434
871.00,55.500
872.00,55.397
873.00,55.385
874.00,55.409
875.00,55.350
876.00,55.382
877.00,55.365
878.00,55.361
879.00,55.319
880.00,55.291
881.00,55.283
882.00,55.305
883.00,55.256
884.00,55.188
885.00,55.221
886.00,55.207
887.00,55.174
888.00,55.161
889.00,55.177
890.00,55.117
891.00,55.078
892.00,55.110
893.00,55.047
894.00,55.050
895.00,55.014
896.00,55.018
897.00,54.987
898.00,54.966
899.00,55.003
900.00,54.951
901.00,54.942
902.00,54.934
903.00,54.910
904.00,54.896
905.00,54.889
906.00,54.904
907.00,54.855
908.00,54.818
909.00,54.840
910.00,54.800
911.00,54.764
912.00,54.790
913.00,54.730
914.00,54.707
915.00,54.700
916.00,54.685
917.00,54.658
918.00,54.664
919.00,54.593
920.00,54.560
921.00,54.585
922.00,54.594
923.00,54.557
924.00,54.504
925.00,54.530
926.00,54.525
927.00,54.496
928.00,54.484
929.00,54.460
930.00,54.419
931.00,54.406
932.00,54.391
933.00,54.392
934.00,54.347
935.00,54.350
936.00,54.315
937.00,54.298
938.00,54.296
939.00,54.288
940.00,54.288
941.00,54.242
942.00,54.228
943.00,54.224
944.00,54.170
945.00,54.170
946.00,54.185
947.00,54.119
948.00,54.109
949.00,54.097
950.00,54.054
951.00,54.051
952.00,54.022
953.00,53.996
954.00,53.986
955.00,53.942
956.00,53.925
957.00,53.907
958.00,53.909
959.00,53.844
960.00,53.840
961.00,53.847
962.00,53.855
963.00,53.816
964.00,53.811
965.00,53.809
966.00,53.786
967.00,53.762
968.00,53.776
969.00,53.759
970.00,53.719
971.00,53.783
972.00,53.710
973.00,53.750
974.00,53.766
975.00,53.739
976.00,53.770
977.00,53.762
978.00,53.797
979.00,53.761
980.00,53.784
981.00,53.760
982.00,53.756
983.00,53.755
984.00,53.755
985.00,53.740
986.00,53.743
987.00,53.742
988.00,53.698
989.00,53.686
990.00,53.687
991.00,53.672
992.00,53.695
993.00,53.649
994.00,53.657
995.00,53.638
996.00,53.651
997.00,53.611
998.00,53.617
999.00,53.616
1000.00,53.541
1001.00,53.575
1002.00,53.623
1003.00,53.565
1004.00,53.541
1005.00,53.514
1006.00,53.522
1007.00,53.506
1008.00,53.490
1009.00,53.488
1010.00,53.485
1011.00,53.456
1012.00,53.442
1013.00,53.431
1014.00,53.397
1015.00,53.418
1016.00,53.351
1017.00,53.369
1018.00,53.348
1019.00,53.325
1020.00,53.320
1021.00,53.302
1022.00,53.287
1023.00,53.256
1024.00,53.257
1025.00,53.242
1026.00,53.259
1027.00,53.216
1028.00,53.215
1029.00,53.199
1030.00,53.169
1031.00,53.193
1032.00,53.149
1033.00,53.152
1034.00,53.127
1035.00,53.098
1036.00,53.067
1037.00,53.066
1038.00,53.046
1039.00,53.018
1040.00,53.021
1041.00,52.980
1042.00,53.001
1043.00,52.966
1044.00,52.987
1045.00,52.981
1046.00,52.973
1047.00,52.978
1048.00,53.004
1049.00,53.005
1050.00,53.027
1051.00,53.033
1052.00,53.036
1053.00,53.063
1054.00,53.058
1055.00,53.057
1056.00,53.070
1057.00,53.092
1058.00,53.064
1059.00,53.077
1060.00,53.067
1061.00,53.053
1062.00,53.056
1063.00,53.087
1064.00,53.054
1065.00,53.041
1066.00,53.022
1067.00,53.041
1068.00,53.047
1069.00,53.032
1070.00,53.021
1071.00,52.992
1072.00,53.012
1073.00,53.001
1074.00,52.986
1075.00,52.975
1076.00,52.968
1077.00,52.925
1078.00,52.934
1079.00,52.924
1080.00,52.937
1081.00,52.921
1082.00,52.919
1083.00,52.908
1084.00,52.896
1085.00,52.905
1086.00,52.916
1087.00,52.904
1088.00,52.886
1089.00,52.885
1090.00,52.884
1091.00,52.878
1092.00,52.879
1093.00,52.861
1094.00,52.834
1095.00,52.822
1096.00,52.801
1097.00,52.811
1098.00,52.797
1099.00,52.774
1100.00,52.785
1101.00,52.769
1102.00,52.771
1103.00,52.765
1104.00,52.759
1105.00,52.738
1106.00,52.743
1107.00,52.721
1108.00,52.737
1109.00,52.720
1110.00,52.714
1111.00,52.707
1112.00,52.686
1113.00,52.677
1114.00,52.683
1115.00,52.685
1116.00,52.675
1117.00,52.642
1118.00,52.646
1119.00,52.646
1120.00,52.645
1121.00,52.627
1122.00,52.632
1123.00,52.606
1124.00,52.612
1125.00,52.627
1126.00,52.618
1127.00,52.619
1128.00,52.603
1129.00,52.565
1130.00,52.572
1131.00,52.571
1132.00,52.559
1133.00,52.560
1134.00,52.534
1135.00,52.514
1136.00,52.536
1137.00,52.532
1138.00,52.543
1139.00,52.542
1140.00,52.535
1141.00,52.543
1142.00,52.555
1143.00,52.550
1144.00,52.514
1145.00,52.504
1146.00,52.525
1147.00,52.507
1148.00,52.496
1149.00,52.509
1150.00,52.526
1151.00,52.512
1152.00,52.507
1153.00,52.515
1154.00,52.491
1155.00,52.484
1156.00,52.491
1157.00,52.505
1158.00,52.499
1159.00,52.488
1160.00,52.488
1161.00,52.505
1162.00,52.501
1163.00,52.515
1164.00,52.502
1165.00,52.486
1166.00,52.490
1167.00,52.509
1168.00,52.515
1169.00,52.506
1170.00,52.498
1171.00,52.491
1172.00,52.477
1173.00,52.465
1174.00,52.497
1175.00,52.476
1176.00,52.480
1177.00,52.480
1178.00,52.464
1179.00,52.478
1180.00,52.479
1181.00,52.490
1182.00,52.491
1183.00,52.501
1184.00,52.472
1185.00,52.506
1186.00,52.482
1187.00,52.474
1188.00,52.464
1189.00,52.474
1190.00,52.467
1191.00,52.481
1192.00,52.479
1193.00,52.492
1194.00,52.508
1195.00,52.467
1196.00,52.502
1197.00,52.499
1198.00,52.470
1199.00,52.494
1200.00,52.512
1201.00,52.479
1202.00,52.474
1203.00,52.475
1204.00,52.469
1205.00,52.499
1206.00,52.472
1207.00,52.508
1208.00,52.467
1209.00,52.481
1210.00,52.478
1211.00,52.476
1212.00,52.503
1213.00,52.467
1214.00,52.515
1215.00,52.494
1216.00,52.489
1217.00,52.482
1218.00,52.491
1219.00,52.495
1220.00,52.459
1221.00,52.506
1222.00,52.475
1223.00,52.504
1224.00,52.492
1225.00,52.481
1226.00,52.487
1227.00,52.486
1228.00,52.491
1229.00,52.494
1230.00,52.531
1231.00,52.504
1232.00,52.540
1233.00,52.529
1234.00,52.522
1235.00,52.529
1236.00,52.535
1237.00,52.539
1238.00,52.542
1239.00,52.544
1240.00,52.539
1241.00,52.536
1242.00,52.534
1243.00,52.560
1244.00,52.535
1245.00,52.555
1246.00,52.557
1247.00,52.551
1248.00,52.551
1249.00,52.575
1250.00,52.575
1251.00,52.584
1252.00,52.590
1253.00,52.561
1254.00,52.607
1255.00,52.581
1256.00,52.569
1257.00,52.563
1258.00,52.619
1259.00,52.613
1260.00,52.639
1261.00,52.627
1262.00,52.639
1263.00,52.618
1264.00,52.614
1265.00,52.634
1266.00,52.624
1267.00,52.629
1268.00,52.662
1269.00,52.648
1270.00,52.679
1271.00,52.656
1272.00,52.657
1273.00,52.682
1274.00,52.671
1275.00,52.685
1276.00,52.707
1277.00,52.681
1278.00,52.691
1279.00,52.690
1280.00,52.703
1281.00,52.702
1282.00,52.728
1283.00,52.720
1284.00,52.729
1285.00,52.718
1286.00,52.696
1287.00,52.739
1288.00,52.716
1289.00,52.736
1290.00,52.799
1291.00,52.749
1292.00,52.741
1293.00,52.764
1294.00,52.776
1295.00,52.802
1296.00,52.797
1297.00,52.800
1298.00,52.824
1299.00,52.803
1300.00,52.843
1301.00,52.817
1302.00,52.830
1303.00,52.837
1304.00,52.817
1305.00,52.828
1306.00,52.844
1307.00,52.842
1308.00,52.830
1309.00,52.836
1310.00,52.834
1311.00,52.812
1312.00,52.843
1313.00,52.861
1314.00,52.883
1315.00,52.895
1316.00,52.897
1317.00,52.933
1318.00,52.925
1319.00,52.918
1320.00,52.943
1321.00,53.075
1322.00,53.077
1323.00,53.070
1324.00,53.047
1325.00,53.025
1326.00,53.059
1327.00,53.040
1328.00,53.049
1329.00,53.029
1330.00,53.048
1331.00,53.044
1332.00,53.023
1333.00,53.038
1334.00,53.093
1335.00,53.110
1336.00,53.125
1337.00,53.157
1338.00,53.223
1339.00,53.266
1340.00,53.318
1341.00,53.383
1342.00,53.456
1343.00,53.497
1344.00,53.543
1345.00,53.602
1346.00,53.651
1347.00,53.662
1348.00,53.675
1349.00,53.705
1350.00,53.695
1351.00,53.726
1352.00,53.695
1353.00,53.627
1354.00,53.728
1355.00,53.699
1356.00,53.900
1357.00,53.774
1358.00,53.703
1359.00,53.833
1360.00,53.798
1361.00,53.892
1362.00,53.607
1363.00,54.001
1364.00,54.064
1365.00,53.809
1366.00,54.155
1367.00,53.910
1368.00,53.641
1369.00,53.756
1370.00,53.768
1371.00,53.710
1372.00,53.774
1373.00,53.779
1374.00,53.797
1375.00,53.780
1376.00,53.764
1377.00,53.752
1378.00,53.749
1379.00,53.800
1380.00,53.789
1381.00,53.829
1382.00,53.952
1383.00,53.837
1384.00,53.802
1385.00,53.688
1386.00,53.774
1387.00,53.769
1388.00,53.728
1389.00,53.686
1390.00,53.735
1391.00,53.792
1392.00,53.763
1393.00,53.790
1394.00,53.796
1395.00,53.742
1396.00,53.857
1397.00,53.654
1398.00,53.720
1399.00,53.810
1400.00,53.847
1401.00,53.724
1402.00,53.795
1403.00,53.817
1404.00,53.740
1405.00,53.850
1406.00,53.812
1407.00,53.817
1408.00,53.812
1409.00,53.804
1410.00,53.845
1411.00,53.792
1412.00,53.859
1413.00,53.822
1414.00,53.895
1415.00,53.861
1416.00,53.891
1417.00,53.899
1418.00,53.878
1419.00,53.923
1420.00,53.929
1421.00,53.974
1422.00,53.934
1423.00,53.962
1424.00,53.976
1425.00,53.972
1426.00,54.026
1427.00,54.057
1428.00,54.018
1429.00,54.039
1430.00,54.044
1431.00,54.059
1432.00,54.070
1433.00,54.086
1434.00,54.067
1435.00,54.155
1436.00,54.123
1437.00,54.121
1438.00,54.137
1439.00,54.168
1440.00,54.155
1441.00,54.183
1442.00,54.193
1443.00,54.205
1444.00,54.222
1445.00,54.239
1446.00,54.258
1447.00,54.291
1448.00,54.306
1449.00,54.303
1450.00,54.313
1451.00,54.329
1452.00,54.361
1453.00,54.354
1454.00,54.374
1455.00,54.397
1456.00,54.392
1457.00,54.394
1458.00,54.422
1459.00,54.436
1460.00,54.472
1461.00,54.490
1462.00,54.506
1463.00,54.513
1464.00,54.525
1465.00,54.546
1466.00,54.546
1467.00,54.566
1468.00,54.621
1469.00,54.578
1470.00,54.601
1471.00,54.623
1472.00,54.642
1473.00,54.652
1474.00,54.668
1475.00,54.672
1476.00,54.669
1477.00,54.681
1478.00,54.686
1479.00,54.693
1480.00,54.705
1481.00,54.733
1482.00,54.771
1483.00,54.764
1484.00,54.775
1485.00,54.791
1486.00,54.777
1487.00,54.812
1488.00,54.818
1489.00,54.816
1490.00,54.823
1491.00,54.844
1492.00,54.863
1493.00,54.849
1494.00,54.896
1495.00,54.880
1496.00,54.922
1497.00,54.919
1498.00,54.922
1499.00,54.947
1500.00,54.928
1501.00, 
1502.00, 
1503.00, 
1504.00, 
1505.00, 
1506.00, 
1507.00, 
1508.00, 
1509.00, 
1510.00, 
1511.00, 
1512.00, 
1513.00, 
1514.00, 
1515.00, 
1516.00, 
1517.00, 
1518.00, 
1519.00, 
1520.00, 
1521.00, 
1522.00, 
1523.00, 
1524.00, 
1525.00, 
1526.00, 
1527.00, 
1528.00, 
1529.00, 
1530.00, 
1531.00, 
1532.00, 
1533.00, 
1534.00, 
1535.00, 
1536.00, 
1537.00, 
1538.00, 
1539.00, 
1540.00, 
1541.00, 
1542.00, 
1543.00, 
1544.00, 
1545.00, 
1546.00, 
1547.00, 
1548.00, 
1549.00, 
1550.00, 
1551.00, 
1552.00, 
1553.00, 
1554.00, 
1555.00, 
1556.00, 
1557.00, 
1558.00, 
1559.00, 
1560.00, 
1561.00, 
1562.00, 
1563.00, 
1564.00, 
1565.00, 
1566.00, 
1567.00, 
1568.00, 
1569.00, 
1570.00, 
1571.00, 
1572.00, 
1573.00, 
1574.00, 
1575.00, 
1576.00, 
1577.00, 
1578.00, 
1579.00, 
1580.00, 
1581.00, 
1582.00, 
1583.00, 
1584.00, 
1585.00, 
1586.00, 
1587.00, 
1588.00, 
1589.00, 
1590.00, 
1591.00, 
1592.00, 
1593.00, 
1594.00, 
1595.00, 
1596.00, 
1597.00, 
1598.00, 
1599.00, 
1600.00, 
1601.00, 
1602.00, 
1603.00, 
1604.00, 
1605.00, 
1606.00, 
1607.00, 
1608.00, 
1609.00, 
1610.00, 
1611.00, 
1612.00, 
1613.00, 
1614.00, 
1615.00, 
1616.00, 
1617.00, 
1618.00, 
1619.00, 
1620.00, 
1621.00, 
1622.00, 
1623.00, 
1624.00, 
1625.00, 
1626.00, 
1627.00, 
1628.00, 
1629.00, 
1630.00, 
1631.00, 
1632.00, 
1633.00, 
1634.00, 
1635.00, 
1636.00, 
1637.00, 
1638.00, 
1639.00, 
1640.00, 
1641.00, 
1642.00, 
1643.00, 
1644.00, 
1645.00, 
1646.00, 
1647.00, 
1648.00, 
1649.00, 
1650.00, 
1651.00, 
1652.00, 
1653.00, 
1654.00, 
1655.00, 
1656.00, 
1657.00, 
1658.00, 
1659.00, 
1660.00, 
1661.00, 
1662.00, 
1663.00, 
1664.00, 
1665.00, 
1666.00, 
1667.00, 
1668.00, 
1669.00, 
1670.00, 
1671.00, 
1672.00, 
1673.00, 
1674.00, 
1675.00, 
1676.00, 
1677.00, 
1678.00, 
1679.00, 
1680.00, 
1681.00, 
1682.00, 
1683.00, 
1684.00, 
1685.00, 
1686.00, 
1687.00, 
1688.00, 
1689.00, 
1690.00, 
1691.00, 
1692.00, 
1693.00, 
1694.00, 
1695.00, 
1696.00, 
1697.00, 
1698.00, 
1699.00, 
1700.00, 
1701.00, 
1702.00, 
1703.00, 
1704.00, 
1705.00, 
1706.00, 
1707.00, 
1708.00, 
1709.00, 
1710.00, 
1711.00, 
1712.00, 
1713.00, 
1714.00, 
1715.00, 
1716.00, 
1717.00, 
1718.00, 
1719.00, 
1720.00, 
1721.00, 
1722.00, 
1723.00, 
1724.00, 
1725.00, 
1726.00, 
1727.00, 
1728.00, 
1729.00, 
1730.00, 
1731.00, 
1732.00, 
1733.00, 
1734.00, 
1735.00, 
1736.00, 
1737.00, 
1738.00, 
1739.00, 
1740.00, 
1741.00, 
1742.00, 
1743.00, 
1744.00, 
1745.00, 
1746.00, 
1747.00, 
1748.00, 
1749.00, 
1750.00, 
1751.00, 
1752.00, 
1753.00, 
1754.00, 
1755.00, 
1756.00, 
1757.00, 
1758.00, 
1759.00, 
1760.00, 
1761.00, 
1762.00, 
1763.00, 
1764.00, 
1765.00, 
1766.00, 
1767.00, 
1768.00, 
1769.00, 
1770.00, 
1771.00, 
1772.00, 
1773.00, 
1774.00, 
1775.00, 
1776.00, 
1777.00, 
1778.00, 
1779.00, 
1780.00, 
1781.00, 
1782.00, 
1783.00, 
1784.00, 
1785.00, 
1786.00, 
1787.00, 
1788.00, 
1789.00, 
1790.00, 
1791.00, 
1792.00, 
1793.00, 
1794.00, 
1795.00, 
1796.00, 
1797.00, 
1798.00, 
1799.00, 
1800.00, 
1801.00, 
1802.00, 
1803.00, 
1804.00, 
1805.00, 
1806.00, 
1807.00, 
1808.00, 
1809.00, 
1810.00, 
1811.00, 
1812.00, 
1813.00, 
1814.00, 
1815.00, 
1816.00, 
1817.00, 
1818.00, 
1819.00, 
1820.00, 
1821.00, 
1822.00, 
1823.00, 
1824.00, 
1825.00, 
1826.00, 
1827.00, 
1828.00, 
1829.00, 
1830.00, 
1831.00, 
1832.00, 
1833.00, 
1834.00, 
1835.00, 
1836.00, 
1837.00, 
1838.00, 
1839.00, 
1840.00, 
1841.00, 
1842.00, 
1843.00, 
1844.00, 
1845.00, 
1846.00, 
1847.00, 
1848.00, 
1849.00, 
1850.00, 
1851.00, 
1852.00, 
1853.00, 
1854.00, 
1855.00, 
1856.00, 
1857.00, 
1858.00, 
1859.00, 
1860.00, 
1861.00, 
1862.00, 
1863.00, 
1864.00, 
1865.00, 
1866.00, 
1867.00, 
1868.00, 
1869.00, 
1870.00, 
1871.00, 
1872.00, 
1873.00, 
1874.00, 
1875.00, 
1876.00, 
1877.00, 
1878.00, 
1879.00, 
1880.00, 
1881.00, 
1882.00, 
1883.00, 
1884.00, 
1885.00, 
1886.00, 
1887.00, 
1888.00, 
1889.00, 
1890.00, 
1891.00, 
1892.00, 
1893.00, 
1894.00, 
1895.00, 
1896.00, 
1897.00, 
1898.00, 
1899.00, 
1900.00, 
1901.00, 
1902.00, 
1903.00, 
1904.00, 
1905.00, 
1906.00, 
1907.00, 
1908.00, 
1909.00, 
1910.00, 
1911.00, 
1912.00, 
1913.00, 
1914.00, 
1915.00, 
1916.00, 
1917.00, 
1918.00, 
1919.00, 
1920.00, 
1921.00, 
1922.00, 
1923.00, 
1924.00, 
1925.00, 
1926.00, 
1927.00, 
1928.00, 
1929.00, 
1930.00, 
1931.00, 
1932.00, 
1933.00, 
1934.00, 
1935.00, 
1936.00, 
1937.00, 
1938.00, 
1939.00, 
1940.00, 
1941.00, 
1942.00, 
1943.00, 
1944.00, 
1945.00, 
1946.00, 
1947.00, 
1948.00, 
1949.00, 
1950.00, 
1951.00, 
1952.00, 
1953.00, 
1954.00, 
1955.00, 
1956.00, 
1957.00, 
1958.00, 
1959.00, 
1960.00, 
1961.00, 
1962.00, 
1963.00, 
1964.00, 
1965.00, 
1966.00, 
1967.00, 
1968.00, 
1969.00, 
1970.00, 
1971.00, 
1972.00, 
1973.00, 
1974.00, 
1975.00, 
1976.00, 
1977.00, 
1978.00, 
1979.00, 
1980.00, 
1981.00, 
1982.00, 
1983.00, 
1984.00, 
1985.00, 
1986.00, 
1987.00, 
1988.00, 
1989.00, 
1990.00, 
1991.00, 
1992.00, 
1993.00, 
1994.00, 
1995.00, 
1996.00, 
1997.00, 
1998.00, 
1999.00, 
2000.00, 
2001.00, 
2002.00, 
2003.00, 
2004.00, 
2005.00, 
2006.00, 
2007.00, 
2008.00, 
2009.00, 
2010.00, 
2011.00, 
2012.00, 
2013.00, 
2014.00, 
2015.00, 
2016.00, 
2017.00, 
2018.00, 
2019.00, 
2020.00, 
2021.00, 
2022.00, 
2023.00, 
2024.00, 
2025.00, 
2026.00, 
2027.00, 
2028.00, 
2029.00, 
2030.00, 
2031.00, 
2032.00, 
2033.00, 
2034.00, 
2035.00, 
2036.00, 
2037.00, 
2038.00, 
2039.00, 
2040.00, 
2041.00, 
2042.00, 
2043.00, 
2044.00, 
2045.00, 
2046.00, 
2047.00, 
2048.00, 
2049.00, 
2050.00, 
2051.00, 
2052.00, 
2053.00, 
2054.00, 
2055.00, 
2056.00, 
2057.00, 
2058.00, 
2059.00, 
2060.00, 
2061.00, 
2062.00, 
2063.00, 
2064.00, 
2065.00, 
2066.00, 
2067.00, 
2068.00, 
2069.00, 
2070.00, 
2071.00, 
2072.00, 
2073.00, 
2074.00, 
2075.00, 
2076.00, 
2077.00, 
2078.00, 
2079.00, 
2080.00, 
2081.00, 
2082.00, 
2083.00, 
2084.00, 
2085.00, 
2086.00, 
2087.00, 
2088.00, 
2089.00, 
2090.00, 
2091.00, 
2092.00, 
2093.00, 
2094.00, 
2095.00, 
2096.00, 
2097.00, 
2098.00, 
2099.00, 
2100.00, 
2101.00, 
2102.00, 
2103.00, 
2104.00, 
2105.00, 
2106.00, 
2107.00, 
2108.00, 
2109.00, 
2110.00, 
2111.00, 
2112.00, 
2113.00, 
2114.00, 
2115.00, 
2116.00, 
2117.00, 
2118.00, 
2119.00, 
2120.00, 
2121.00, 
2122.00, 
2123.00, 
2124.00, 
2125.00, 
2126.00, 
2127.00, 
2128.00, 
2129.00, 
2130.00, 
2131.00, 
2132.00, 
2133.00, 
2134.00, 
2135.00, 
2136.00, 
2137.00, 
2138.00, 
2139.00, 
2140.00, 
2141.00, 
2142.00, 
2143.00, 
2144.00, 
2145.00, 
2146.00, 
2147.00, 
2148.00, 
2149.00, 
2150.00, 
2151.00, 
2152.00, 
2153.00, 
2154.00, 
2155.00, 
2156.00, 
2157.00, 
2158.00, 
2159.00, 
2160.00, 
2161.00, 
2162.00, 
2163.00, 
2164.00, 
2165.00, 
2166.00, 
2167.00, 
2168.00, 
2169.00, 
2170.00, 
2171.00, 
2172.00, 
2173.00, 
2174.00, 
2175.00, 
2176.00, 
2177.00, 
2178.00, 
2179.00, 
2180.00, 
2181.00, 
2182.00, 
2183.00, 
2184.00, 
2185.00, 
2186.00, 
2187.00, 
2188.00, 
2189.00, 
2190.00, 
2191.00, 
2192.00, 
2193.00, 
2194.00, 
2195.00, 
2196.00, 
2197.00, 
2198.00, 
2199.00, 
2200.00, 
2201.00, 
2202.00, 
2203.00, 
2204.00, 
2205.00, 
2206.00, 
2207.00, 
2208.00, 
2209.00, 
2210.00, 
2211.00, 
2212.00, 
2213.00, 
2214.00, 
2215.00, 
2216.00, 
2217.00, 
2218.00, 
2219.00, 
2220.00, 
2221.00, 
2222.00, 
2223.00, 
2224.00, 
2225.00, 
2226.00, 
2227.00, 
2228.00, 
2229.00, 
2230.00, 
2231.00, 
2232.00, 
2233.00, 
2234.00, 
2235.00, 
2236.00, 
2237.00, 
2238.00, 
2239.00, 
2240.00, 
2241.00, 
2242.00, 
2243.00, 
2244.00, 
2245.00, 
2246.00, 
2247.00, 
2248.00, 
2249.00, 
2250.00, 
2251.00, 
2252.00, 
2253.00, 
2254.00, 
2255.00, 
2256.00, 
2257.00, 
2258.00, 
2259.00, 
2260.00, 
2261.00, 
2262.00, 
2263.00, 
2264.00, 
2265.00, 
2266.00, 
2267.00, 
2268.00, 
2269.00, 
2270.00, 
2271.00, 
2272.00, 
2273.00, 
2274.00, 
2275.00, 
2276.00, 
2277.00, 
2278.00, 
2279.00, 
2280.00, 
2281.00, 
2282.00, 
2283.00, 
2284.00, 
2285.00, 
2286.00, 
2287.00, 
2288.00, 
2289.00, 
2290.00, 
2291.00, 
2292.00, 
2293.00, 
2294.00, 
2295.00, 
2296.00, 
2297.00, 
2298.00, 
2299.00, 
2300.00, 
2301.00, 
2302.00, 
2303.00, 
2304.00, 
2305.00, 
2306.00, 
2307.00, 
2308.00, 
2309.00, 
2310.00, 
2311.00, 
2312.00, 
2313.00, 
2314.00, 
2315.00, 
2316.00, 
2317.00, 
2318.00, 
2319.00, 
2320.00, 
2321.00, 
2322.00, 
2323.00, 
2324.00, 
2325.00, 
2326.00, 
2327.00, 
2328.00, 
2329.00, 
2330.00, 
2331.00, 
2332.00, 
2333.00, 
2334.00, 
2335.00, 
2336.00, 
2337.00, 
2338.00, 
2339.00, 
2340.00, 
2341.00, 
2342.00, 
2343.00, 
2344.00, 
2345.00, 
2346.00, 
2347.00, 
2348.00, 
2349.00, 
2350.00, 
2351.00, 
2352.00, 
2353.00, 
2354.00, 
2355.00, 
2356.00, 
2357.00, 
2358.00, 
2359.00, 
2360.00, 
2361.00, 
2362.00, 
2363.00, 
2364.00, 
2365.00, 
2366.00, 
2367.00, 
2368.00, 
2369.00, 
2370.00, 
2371.00, 
2372.00, 
2373.00, 
2374.00, 
2375.00, 
2376.00, 
2377.00, 
2378.00, 
2379.00, 
2380.00, 
2381.00, 
2382.00, 
2383.00, 
2384.00, 
2385.00, 
2386.00, 
2387.00, 
2388.00, 
2389.00, 
2390.00, 
2391.00, 
2392.00, 
2393.00, 
2394.00, 
2395.00, 
2396.00, 
2397.00, 
2398.00, 
2399.00, 
2400.00, 
2401.00, 
2402.00, 
2403.00, 
2404.00, 
2405.00, 
2406.00, 
2407.00, 
2408.00, 
2409.00, 
2410.00, 
2411.00, 
2412.00, 
2413.00, 
2414.00, 
2415.00, 
2416.00, 
2417.00, 
2418.00, 
2419.00, 
2420.00, 
2421.00, 
2422.00, 
2423.00, 
2424.00, 
2425.00, 
2426.00, 
2427.00, 
2428.00, 
2429.00, 
2430.00, 
2431.00, 
2432.00, 
2433.00, 
2434.00, 
2435.00, 
2436.00, 
2437.00, 
2438.00, 
2439.00, 
2440.00, 
2441.00, 
2442.00, 
2443.00, 
2444.00, 
2445.00, 
2446.00, 
2447.00, 
2448.00, 
2449.00, 
2450.00, 
2451.00, 
2452.00, 
2453.00, 
2454.00, 
2455.00, 
2456.00, 
2457.00, 
2458.00, 
2459.00, 
2460.00, 
2461.00, 
2462.00, 
2463.00, 
2464.00, 
2465.00, 
2466.00, 
2467.00, 
2468.00, 
2469.00, 
2470.00, 
2471.00, 
2472.00, 
2473.00, 
2474.00, 
2475.00, 
2476.00, 
2477.00, 
2478.00, 
2479.00, 
2480.00, 
2481.00, 
2482.00, 
2483.00, 
2484.00, 
2485.00, 
2486.00, 
2487.00, 
2488.00, 
2489.00, 
2490.00, 
2491.00, 
2492.00, 
2493.00, 
2494.00, 
2495.00, 
2496.00, 
2497.00, 
2498.00, 
2499.00, 
2500.00, 
2501.00, 
2502.00, 
2503.00, 
2504.00, 
2505.00, 
2506.00, 
2507.00, 
2508.00, 
2509.00, 
2510.00, 
2511.00, 
2512.00, 
2513.00, 
2514.00, 
2515.00, 
2516.00, 
2517.00, 
2518.00, 
2519.00, 
2520.00, 
2521.00, 
2522.00, 
2523.00, 
2524.00, 
2525.00, 
2526.00, 
2527.00, 
2528.00, 
2529.00, 
2530.00, 
2531.00, 
2532.00, 
2533.00, 
2534.00, 
2535.00, 
2536.00, 
2537.00, 
2538.00, 
2539.00, 
2540.00, 
2541.00, 
2542.00, 
2543.00, 
2544.00, 
2545.00, 
2546.00, 
2547.00, 
2548.00, 
2549.00, 
2550.00, 
2551.00, 
2552.00, 
2553.00, 
2554.00, 
2555.00, 
2556.00, 
2557.00, 
2558.00, 
2559.00, 
2560.00, 
2561.00, 
2562.00, 
2563.00, 
2564.00, 
2565.00, 
2566.00, 
2567.00, 
2568.00, 
2569.00, 
2570.00, 
2571.00, 
2572.00, 
2573.00, 
2574.00, 
2575.00, 
2576.00, 
2577.00, 
2578.00, 
2579.00, 
2580.00, 
2581.00, 
2582.00, 
2583.00, 
2584.00, 
2585.00, 
2586.00, 
2587.00, 
2588.00, 
2589.00, 
2590.00, 
2591.00, 
2592.00, 
2593.00, 
2594.00, 
2595.00, 
2596.00, 
2597.00, 
2598.00, 
2599.00, 
2600.00, 
