"1cP1 - RawData"
"Wavelength nm.","T%"
200.00,-0.002
201.00,0.002
202.00,0.004
203.00,0.004
204.00,0.002
205.00,0.001
206.00,0.000
207.00,-0.002
208.00,0.003
209.00,0.000
210.00,0.002
211.00,0.003
212.00,0.002
213.00,0.001
214.00,0.000
215.00,-0.001
216.00,0.001
217.00,0.003
218.00,0.001
219.00,0.003
220.00,0.001
221.00,0.000
222.00,0.004
223.00,-0.001
224.00,-0.002
225.00,-0.000
226.00,-0.002
227.00,-0.002
228.00,-0.002
229.00,0.003
230.00,-0.001
231.00,-0.002
232.00,0.004
233.00,0.001
234.00,0.001
235.00,-0.001
236.00,0.001
237.00,-0.000
238.00,0.001
239.00,0.001
240.00,0.001
241.00,0.002
242.00,0.000
243.00,0.001
244.00,-0.001
245.00,0.003
246.00,0.002
247.00,0.000
248.00,0.000
249.00,0.002
250.00,0.000
251.00,0.001
252.00,0.002
253.00,0.001
254.00,-0.001
255.00,0.000
256.00,0.002
257.00,0.001
258.00,0.001
259.00,-0.001
260.00,0.001
261.00,0.001
262.00,0.000
263.00,0.001
264.00,0.002
265.00,0.001
266.00,-0.000
267.00,0.000
268.00,0.000
269.00,-0.002
270.00,0.002
271.00,0.001
272.00,-0.001
273.00,0.001
274.00,0.001
275.00,0.001
276.00,0.001
277.00,0.000
278.00,0.001
279.00,0.001
280.00,0.000
281.00,0.001
282.00,-0.001
283.00,0.000
284.00,0.000
285.00,0.001
286.00,0.001
287.00,0.002
288.00,0.001
289.00,0.001
290.00,0.001
291.00,-0.001
292.00,0.002
293.00,-0.000
294.00,0.001
295.00,-0.001
296.00,0.001
297.00,0.001
298.00,0.001
299.00,-0.001
300.00,0.001
301.00,0.001
302.00,0.001
303.00,0.002
304.00,0.002
305.00,0.001
306.00,0.004
307.00,0.004
308.00,0.008
309.00,0.013
310.00,0.020
311.00,0.030
312.00,0.046
313.00,0.076
314.00,0.113
315.00,0.162
316.00,0.238
317.00,0.333
318.00,0.456
319.00,0.612
320.00,0.806
321.00,1.057
322.00,1.349
323.00,1.696
324.00,2.058
325.00,2.542
326.00,3.017
327.00,3.606
328.00,4.227
329.00,4.848
330.00,5.585
331.00,6.319
332.00,7.146
333.00,7.966
334.00,8.787
335.00,9.668
336.00,10.560
337.00,11.477
338.00,12.357
339.00,13.213
340.00,14.094
341.00,14.956
342.00,15.806
343.00,16.577
344.00,17.326
345.00,18.148
346.00,18.804
347.00,19.532
348.00,20.223
349.00,20.846
350.00,21.418
351.00,21.947
352.00,22.452
353.00,22.946
354.00,23.399
355.00,23.822
356.00,24.242
357.00,24.615
358.00,24.974
359.00,25.357
360.00,25.684
361.00,25.960
362.00,26.207
363.00,26.396
364.00,26.642
365.00,26.797
366.00,26.978
367.00,27.160
368.00,27.255
369.00,27.340
370.00,27.424
371.00,27.475
372.00,27.468
373.00,27.457
374.00,27.472
375.00,27.465
376.00,27.422
377.00,27.341
378.00,27.221
379.00,27.142
380.00,27.139
381.00,27.159
382.00,27.192
383.00,27.264
384.00,27.365
385.00,27.442
386.00,27.505
387.00,27.667
388.00,27.802
389.00,27.830
390.00,27.957
391.00,28.038
392.00,28.090
393.00,28.105
394.00,28.194
395.00,28.266
396.00,28.234
397.00,28.309
398.00,28.330
399.00,28.334
400.00,28.339
401.00,28.386
402.00,28.406
403.00,28.397
404.00,28.405
405.00,28.360
406.00,28.381
407.00,28.321
408.00,28.343
409.00,28.309
410.00,28.211
411.00,28.206
412.00,28.181
413.00,28.158
414.00,28.133
415.00,28.159
416.00,28.197
417.00,28.130
418.00,28.179
419.00,28.256
420.00,28.283
421.00,28.324
422.00,28.341
423.00,28.405
424.00,28.431
425.00,28.436
426.00,28.479
427.00,28.571
428.00,28.556
429.00,28.557
430.00,28.547
431.00,28.654
432.00,28.636
433.00,28.773
434.00,28.816
435.00,28.848
436.00,28.921
437.00,28.984
438.00,29.037
439.00,29.085
440.00,29.175
441.00,29.206
442.00,29.289
443.00,29.380
444.00,29.474
445.00,29.526
446.00,29.624
447.00,29.703
448.00,29.817
449.00,29.899
450.00,30.018
451.00,30.078
452.00,30.184
453.00,30.292
454.00,30.393
455.00,30.466
456.00,30.599
457.00,30.703
458.00,30.788
459.00,30.917
460.00,31.073
461.00,31.186
462.00,31.213
463.00,31.409
464.00,31.414
465.00,31.623
466.00,31.765
467.00,31.885
468.00,31.944
469.00,31.979
470.00,32.085
471.00,32.210
472.00,32.306
473.00,32.386
474.00,32.454
475.00,32.567
476.00,32.677
477.00,32.794
478.00,32.867
479.00,33.044
480.00,33.178
481.00,33.286
482.00,33.436
483.00,33.585
484.00,33.730
485.00,33.826
486.00,33.993
487.00,34.122
488.00,34.174
489.00,34.362
490.00,34.497
491.00,34.583
492.00,34.672
493.00,34.881
494.00,35.023
495.00,35.012
496.00,35.139
497.00,35.240
498.00,35.360
499.00,35.527
500.00,35.652
501.00,35.679
502.00,35.840
503.00,35.903
504.00,35.973
505.00,36.104
506.00,36.220
507.00,36.270
508.00,36.380
509.00,36.529
510.00,36.673
511.00,36.750
512.00,36.857
513.00,36.977
514.00,37.084
515.00,37.189
516.00,37.390
517.00,37.436
518.00,37.458
519.00,37.493
520.00,37.621
521.00,37.705
522.00,37.800
523.00,37.908
524.00,37.980
525.00,38.066
526.00,38.134
527.00,38.189
528.00,38.254
529.00,38.415
530.00,38.553
531.00,38.703
532.00,38.694
533.00,38.788
534.00,38.903
535.00,38.978
536.00,39.025
537.00,39.147
538.00,39.150
539.00,39.251
540.00,39.308
541.00,39.331
542.00,39.382
543.00,39.435
544.00,39.482
545.00,39.596
546.00,39.628
547.00,39.752
548.00,39.820
549.00,39.862
550.00,39.947
551.00,40.049
552.00,40.112
553.00,40.118
554.00,40.192
555.00,40.210
556.00,40.233
557.00,40.322
558.00,40.388
559.00,40.392
560.00,40.501
561.00,40.594
562.00,40.540
563.00,40.608
564.00,40.703
565.00,40.663
566.00,40.702
567.00,40.738
568.00,40.795
569.00,40.890
570.00,40.869
571.00,40.934
572.00,40.933
573.00,40.893
574.00,40.963
575.00,40.982
576.00,40.971
577.00,41.035
578.00,41.153
579.00,41.174
580.00,41.238
581.00,41.397
582.00,41.441
583.00,41.387
584.00,41.507
585.00,41.602
586.00,41.624
587.00,41.694
588.00,41.709
589.00,41.654
590.00,41.793
591.00,41.812
592.00,41.743
593.00,41.787
594.00,41.874
595.00,42.005
596.00,42.020
597.00,42.078
598.00,42.226
599.00,42.232
600.00,42.247
601.00,42.241
602.00,42.224
603.00,42.225
604.00,42.296
605.00,42.387
606.00,42.410
607.00,42.402
608.00,42.424
609.00,42.451
610.00,42.625
611.00,42.532
612.00,42.557
613.00,42.590
614.00,42.595
615.00,42.666
616.00,42.823
617.00,42.713
618.00,42.749
619.00,42.802
620.00,42.801
621.00,42.884
622.00,42.911
623.00,42.966
624.00,43.041
625.00,43.071
626.00,43.065
627.00,43.118
628.00,43.197
629.00,43.229
630.00,43.269
631.00,43.285
632.00,43.371
633.00,43.438
634.00,43.518
635.00,43.572
636.00,43.599
637.00,43.629
638.00,43.650
639.00,43.802
640.00,43.808
641.00,43.848
642.00,43.895
643.00,43.911
644.00,43.907
645.00,43.942
646.00,44.160
647.00,44.194
648.00,44.196
649.00,44.169
650.00,44.147
651.00,44.388
652.00,44.478
653.00,44.388
654.00,44.409
655.00,44.722
656.00,44.828
657.00,44.705
658.00,44.705
659.00,44.803
660.00,44.805
661.00,44.859
662.00,44.996
663.00,44.986
664.00,45.202
665.00,45.366
666.00,45.209
667.00,45.324
668.00,45.233
669.00,45.449
670.00,45.733
671.00,45.665
672.00,45.723
673.00,45.732
674.00,45.706
675.00,45.758
676.00,45.882
677.00,46.032
678.00,45.905
679.00,46.082
680.00,46.096
681.00,46.232
682.00,46.217
683.00,46.224
684.00,46.222
685.00,46.429
686.00,46.457
687.00,46.507
688.00,46.472
689.00,46.378
690.00,46.639
691.00,46.828
692.00,46.771
693.00,46.791
694.00,47.000
695.00,47.081
696.00,47.072
697.00,46.916
698.00,46.982
699.00,47.106
700.00,47.093
701.00,47.166
702.00,47.199
703.00,47.360
704.00,47.397
705.00,47.267
706.00,47.289
707.00,47.206
708.00,47.488
709.00,48.083
710.00,48.036
711.00,47.505
712.00,47.678
713.00,47.732
714.00,47.748
715.00,47.803
716.00,47.739
717.00,47.922
718.00,48.132
719.00,48.034
720.00,47.958
721.00,52.804
722.00,52.672
723.00,52.673
724.00,52.706
725.00,52.778
726.00,52.731
727.00,52.674
728.00,52.639
729.00,52.688
730.00,52.629
731.00,52.779
732.00,52.704
733.00,52.788
734.00,52.750
735.00,52.735
736.00,52.679
737.00,52.693
738.00,52.802
739.00,52.805
740.00,52.689
741.00,52.742
742.00,52.747
743.00,52.730
744.00,52.712
745.00,52.705
746.00,52.688
747.00,52.669
748.00,52.655
749.00,52.651
750.00,52.576
751.00,52.571
752.00,52.504
753.00,52.632
754.00,52.550
755.00,52.549
756.00,52.557
757.00,52.477
758.00,52.507
759.00,52.519
760.00,52.525
761.00,52.456
762.00,52.548
763.00,52.468
764.00,52.418
765.00,52.500
766.00,52.477
767.00,52.441
768.00,52.427
769.00,52.458
770.00,52.508
771.00,52.416
772.00,52.507
773.00,52.363
774.00,52.396
775.00,52.393
776.00,52.406
777.00,52.380
778.00,52.383
779.00,52.382
780.00,52.323
781.00,52.336
782.00,52.326
783.00,52.271
784.00,52.274
785.00,52.165
786.00,52.327
787.00,52.290
788.00,52.284
789.00,52.197
790.00,52.142
791.00,52.157
792.00,52.063
793.00,52.076
794.00,52.032
795.00,52.144
796.00,52.020
797.00,51.966
798.00,52.022
799.00,51.937
800.00,51.893
801.00,51.902
802.00,51.885
803.00,51.857
804.00,51.873
805.00,51.827
806.00,51.779
807.00,51.730
808.00,51.713
809.00,51.717
810.00,51.695
811.00,51.679
812.00,51.718
813.00,51.656
814.00,51.672
815.00,51.667
816.00,51.663
817.00,51.593
818.00,51.516
819.00,51.451
820.00,51.511
821.00,51.496
822.00,51.484
823.00,51.423
824.00,51.445
825.00,51.386
826.00,51.322
827.00,51.416
828.00,51.425
829.00,51.303
830.00,51.386
831.00,53.699
832.00,53.620
833.00,53.566
834.00,53.585
835.00,53.526
836.00,53.563
837.00,53.515
838.00,53.472
839.00,53.453
840.00,53.395
841.00,53.414
842.00,53.403
843.00,53.398
844.00,53.357
845.00,53.301
846.00,53.298
847.00,53.281
848.00,53.250
849.00,53.205
850.00,53.182
851.00,53.059
852.00,53.131
853.00,53.190
854.00,53.035
855.00,52.968
856.00,52.983
857.00,52.909
858.00,52.900
859.00,52.908
860.00,52.891
861.00,52.872
862.00,52.827
863.00,52.812
864.00,52.781
865.00,52.812
866.00,52.737
867.00,52.722
868.00,52.734
869.00,52.717
870.00,52.700
871.00,52.666
872.00,52.664
873.00,52.679
874.00,52.628
875.00,52.604
876.00,52.618
877.00,52.588
878.00,52.571
879.00,52.566
880.00,52.559
881.00,52.514
882.00,52.492
883.00,52.684
884.00,52.470
885.00,52.425
886.00,52.412
887.00,52.389
888.00,52.366
889.00,52.350
890.00,52.320
891.00,52.274
892.00,52.301
893.00,52.271
894.00,52.268
895.00,52.239
896.00,52.205
897.00,52.194
898.00,52.141
899.00,52.147
900.00,52.147
901.00,52.122
902.00,52.102
903.00,52.066
904.00,52.057
905.00,52.030
906.00,52.054
907.00,52.028
908.00,51.988
909.00,51.976
910.00,51.930
911.00,51.917
912.00,51.951
913.00,51.861
914.00,51.839
915.00,51.817
916.00,51.794
917.00,51.762
918.00,51.773
919.00,51.722
920.00,51.701
921.00,51.690
922.00,51.682
923.00,51.651
924.00,51.668
925.00,51.648
926.00,51.638
927.00,51.597
928.00,51.590
929.00,51.571
930.00,51.557
931.00,51.520
932.00,51.517
933.00,51.490
934.00,51.458
935.00,51.453
936.00,51.423
937.00,51.352
938.00,51.513
939.00,51.358
940.00,51.357
941.00,51.344
942.00,51.302
943.00,51.292
944.00,51.248
945.00,51.256
946.00,51.244
947.00,51.186
948.00,51.173
949.00,51.157
950.00,51.133
951.00,51.116
952.00,51.090
953.00,51.105
954.00,51.045
955.00,51.019
956.00,50.987
957.00,50.950
958.00,50.961
959.00,50.911
960.00,50.899
961.00,50.877
962.00,50.895
963.00,50.840
964.00,50.834
965.00,50.834
966.00,50.817
967.00,50.787
968.00,50.784
969.00,50.791
970.00,50.764
971.00,50.793
972.00,50.742
973.00,50.787
974.00,50.810
975.00,50.775
976.00,50.777
977.00,50.770
978.00,50.798
979.00,50.755
980.00,50.776
981.00,50.753
982.00,50.746
983.00,50.732
984.00,50.743
985.00,50.763
986.00,50.717
987.00,50.734
988.00,50.700
989.00,50.684
990.00,50.682
991.00,50.664
992.00,50.687
993.00,50.640
994.00,50.629
995.00,50.626
996.00,50.629
997.00,50.595
998.00,50.581
999.00,50.588
1000.00,50.531
1001.00,50.548
1002.00,50.506
1003.00,50.521
1004.00,50.480
1005.00,50.454
1006.00,50.482
1007.00,50.459
1008.00,50.458
1009.00,50.433
1010.00,50.456
1011.00,50.414
1012.00,50.383
1013.00,50.424
1014.00,50.409
1015.00,50.367
1016.00,50.312
1017.00,50.329
1018.00,50.306
1019.00,50.272
1020.00,50.273
1021.00,50.260
1022.00,50.243
1023.00,50.215
1024.00,50.214
1025.00,50.201
1026.00,50.205
1027.00,50.174
1028.00,50.180
1029.00,50.160
1030.00,50.123
1031.00,50.135
1032.00,50.092
1033.00,50.080
1034.00,50.058
1035.00,50.010
1036.00,49.993
1037.00,49.990
1038.00,49.968
1039.00,49.952
1040.00,49.955
1041.00,49.928
1042.00,49.921
1043.00,49.886
1044.00,49.900
1045.00,49.885
1046.00,49.880
1047.00,49.879
1048.00,49.898
1049.00,49.898
1050.00,49.921
1051.00,49.956
1052.00,49.952
1053.00,49.965
1054.00,49.955
1055.00,49.972
1056.00,49.989
1057.00,49.990
1058.00,49.980
1059.00,49.992
1060.00,49.994
1061.00,49.986
1062.00,49.960
1063.00,49.960
1064.00,49.958
1065.00,49.950
1066.00,49.919
1067.00,49.948
1068.00,49.934
1069.00,49.902
1070.00,49.902
1071.00,49.868
1072.00,49.901
1073.00,49.886
1074.00,49.870
1075.00,49.856
1076.00,49.860
1077.00,49.830
1078.00,49.832
1079.00,49.824
1080.00,49.828
1081.00,49.814
1082.00,49.805
1083.00,49.817
1084.00,49.808
1085.00,49.787
1086.00,49.790
1087.00,49.784
1088.00,49.760
1089.00,49.750
1090.00,49.757
1091.00,49.742
1092.00,49.731
1093.00,49.713
1094.00,49.708
1095.00,49.687
1096.00,49.667
1097.00,49.679
1098.00,49.671
1099.00,49.660
1100.00,49.665
1101.00,49.653
1102.00,49.640
1103.00,49.631
1104.00,49.616
1105.00,49.619
1106.00,49.632
1107.00,49.579
1108.00,49.581
1109.00,49.576
1110.00,49.568
1111.00,49.576
1112.00,49.562
1113.00,49.574
1114.00,49.574
1115.00,49.555
1116.00,49.555
1117.00,49.538
1118.00,49.527
1119.00,49.523
1120.00,49.525
1121.00,49.510
1122.00,49.503
1123.00,49.480
1124.00,49.476
1125.00,49.471
1126.00,49.475
1127.00,49.491
1128.00,49.478
1129.00,49.440
1130.00,49.453
1131.00,49.450
1132.00,49.440
1133.00,49.451
1134.00,49.427
1135.00,49.421
1136.00,49.431
1137.00,49.420
1138.00,49.422
1139.00,49.433
1140.00,49.416
1141.00,49.395
1142.00,49.404
1143.00,49.391
1144.00,49.381
1145.00,49.383
1146.00,49.412
1147.00,49.365
1148.00,49.349
1149.00,49.373
1150.00,49.384
1151.00,49.371
1152.00,49.366
1153.00,49.367
1154.00,49.344
1155.00,49.353
1156.00,49.345
1157.00,49.351
1158.00,49.356
1159.00,49.352
1160.00,49.353
1161.00,49.361
1162.00,49.329
1163.00,49.333
1164.00,49.329
1165.00,49.326
1166.00,49.347
1167.00,49.342
1168.00,49.342
1169.00,49.334
1170.00,49.318
1171.00,49.324
1172.00,49.335
1173.00,49.317
1174.00,49.329
1175.00,49.319
1176.00,49.309
1177.00,49.307
1178.00,49.297
1179.00,49.321
1180.00,49.325
1181.00,49.336
1182.00,49.337
1183.00,49.336
1184.00,49.311
1185.00,49.317
1186.00,49.296
1187.00,49.302
1188.00,49.305
1189.00,49.308
1190.00,49.305
1191.00,49.303
1192.00,49.301
1193.00,49.308
1194.00,49.322
1195.00,49.270
1196.00,49.299
1197.00,49.304
1198.00,49.287
1199.00,49.286
1200.00,49.299
1201.00,49.319
1202.00,49.296
1203.00,49.291
1204.00,49.294
1205.00,49.327
1206.00,49.302
1207.00,49.317
1208.00,49.296
1209.00,49.302
1210.00,49.310
1211.00,49.297
1212.00,49.320
1213.00,49.296
1214.00,49.323
1215.00,49.309
1216.00,49.328
1217.00,49.315
1218.00,49.317
1219.00,49.323
1220.00,49.315
1221.00,49.357
1222.00,49.310
1223.00,49.332
1224.00,49.337
1225.00,49.310
1226.00,49.322
1227.00,49.320
1228.00,49.314
1229.00,49.325
1230.00,49.362
1231.00,49.343
1232.00,49.359
1233.00,49.365
1234.00,49.371
1235.00,49.374
1236.00,49.363
1237.00,49.377
1238.00,49.401
1239.00,49.386
1240.00,49.406
1241.00,49.436
1242.00,49.413
1243.00,49.414
1244.00,49.374
1245.00,49.407
1246.00,49.423
1247.00,49.408
1248.00,49.410
1249.00,49.424
1250.00,49.422
1251.00,49.422
1252.00,49.430
1253.00,49.411
1254.00,49.457
1255.00,49.441
1256.00,49.426
1257.00,49.415
1258.00,49.466
1259.00,49.464
1260.00,49.492
1261.00,49.478
1262.00,49.474
1263.00,49.478
1264.00,49.481
1265.00,49.496
1266.00,49.487
1267.00,49.488
1268.00,49.496
1269.00,49.487
1270.00,49.526
1271.00,49.530
1272.00,49.531
1273.00,49.556
1274.00,49.558
1275.00,49.551
1276.00,49.571
1277.00,49.561
1278.00,49.583
1279.00,49.581
1280.00,49.570
1281.00,49.588
1282.00,49.598
1283.00,49.589
1284.00,49.599
1285.00,49.591
1286.00,49.600
1287.00,49.623
1288.00,49.644
1289.00,49.632
1290.00,49.653
1291.00,49.634
1292.00,49.650
1293.00,49.659
1294.00,49.662
1295.00,49.687
1296.00,49.679
1297.00,49.680
1298.00,49.714
1299.00,49.689
1300.00,49.693
1301.00,49.692
1302.00,49.719
1303.00,49.750
1304.00,49.721
1305.00,49.731
1306.00,49.740
1307.00,49.757
1308.00,49.763
1309.00,49.772
1310.00,49.762
1311.00,49.752
1312.00,49.782
1313.00,49.807
1314.00,49.825
1315.00,49.840
1316.00,49.821
1317.00,49.854
1318.00,49.857
1319.00,49.846
1320.00,49.872
1321.00,50.010
1322.00,49.993
1323.00,49.978
1324.00,49.971
1325.00,49.969
1326.00,49.992
1327.00,49.993
1328.00,49.995
1329.00,49.996
1330.00,50.004
1331.00,50.018
1332.00,50.032
1333.00,50.007
1334.00,50.066
1335.00,50.075
1336.00,50.099
1337.00,50.134
1338.00,50.197
1339.00,50.251
1340.00,50.310
1341.00,50.371
1342.00,50.433
1343.00,50.488
1344.00,50.547
1345.00,50.619
1346.00,50.659
1347.00,50.687
1348.00,50.702
1349.00,50.710
1350.00,50.718
1351.00,50.744
1352.00,50.735
1353.00,50.757
1354.00,50.746
1355.00,50.729
1356.00,50.858
1357.00,50.792
1358.00,50.770
1359.00,50.813
1360.00,50.809
1361.00,50.803
1362.00,50.657
1363.00,50.861
1364.00,51.014
1365.00,50.845
1366.00,50.961
1367.00,50.886
1368.00,50.692
1369.00,50.786
1370.00,50.802
1371.00,50.754
1372.00,50.801
1373.00,50.836
1374.00,50.833
1375.00,50.825
1376.00,50.789
1377.00,50.837
1378.00,50.902
1379.00,50.830
1380.00,50.801
1381.00,50.855
1382.00,50.928
1383.00,50.844
1384.00,50.765
1385.00,50.704
1386.00,50.824
1387.00,50.833
1388.00,50.771
1389.00,50.751
1390.00,50.791
1391.00,50.839
1392.00,50.821
1393.00,50.950
1394.00,50.855
1395.00,50.840
1396.00,50.792
1397.00,50.651
1398.00,50.805
1399.00,50.847
1400.00,50.864
1401.00,50.769
1402.00,50.833
1403.00,50.850
1404.00,50.812
1405.00,50.969
1406.00,50.910
1407.00,50.669
1408.00,50.866
1409.00,50.876
1410.00,50.892
1411.00,50.884
1412.00,50.909
1413.00,50.879
1414.00,50.941
1415.00,50.957
1416.00,50.978
1417.00,50.985
1418.00,50.948
1419.00,50.958
1420.00,50.994
1421.00,51.021
1422.00,51.027
1423.00,51.042
1424.00,51.088
1425.00,51.072
1426.00,51.077
1427.00,51.114
1428.00,51.131
1429.00,51.142
1430.00,51.138
1431.00,51.184
1432.00,51.192
1433.00,51.208
1434.00,51.213
1435.00,51.272
1436.00,51.256
1437.00,51.242
1438.00,51.280
1439.00,51.325
1440.00,51.323
1441.00,51.338
1442.00,51.348
1443.00,51.377
1444.00,51.437
1445.00,51.417
1446.00,51.410
1447.00,51.456
1448.00,51.474
1449.00,51.485
1450.00,51.487
1451.00,51.509
1452.00,51.546
1453.00,51.537
1454.00,51.571
1455.00,51.627
1456.00,51.611
1457.00,51.619
1458.00,51.654
1459.00,51.658
1460.00,51.694
1461.00,51.709
1462.00,51.733
1463.00,51.741
1464.00,51.738
1465.00,51.762
1466.00,51.764
1467.00,51.805
1468.00,51.864
1469.00,51.824
1470.00,51.847
1471.00,51.884
1472.00,51.883
1473.00,51.895
1474.00,51.909
1475.00,51.934
1476.00,51.942
1477.00,51.944
1478.00,51.974
1479.00,51.999
1480.00,51.997
1481.00,52.007
1482.00,52.054
1483.00,52.081
1484.00,52.073
1485.00,52.102
1486.00,52.099
1487.00,52.091
1488.00,52.127
1489.00,52.127
1490.00,52.148
1491.00,52.166
1492.00,52.186
1493.00,52.184
1494.00,52.223
1495.00,52.215
1496.00,52.235
1497.00,52.213
1498.00,52.227
1499.00,52.260
1500.00,52.272
1501.00, 
1502.00, 
1503.00, 
1504.00, 
1505.00, 
1506.00, 
1507.00, 
1508.00, 
1509.00, 
1510.00, 
1511.00, 
1512.00, 
1513.00, 
1514.00, 
1515.00, 
1516.00, 
1517.00, 
1518.00, 
1519.00, 
1520.00, 
1521.00, 
1522.00, 
1523.00, 
1524.00, 
1525.00, 
1526.00, 
1527.00, 
1528.00, 
1529.00, 
1530.00, 
1531.00, 
1532.00, 
1533.00, 
1534.00, 
1535.00, 
1536.00, 
1537.00, 
1538.00, 
1539.00, 
1540.00, 
1541.00, 
1542.00, 
1543.00, 
1544.00, 
1545.00, 
1546.00, 
1547.00, 
1548.00, 
1549.00, 
1550.00, 
1551.00, 
1552.00, 
1553.00, 
1554.00, 
1555.00, 
1556.00, 
1557.00, 
1558.00, 
1559.00, 
1560.00, 
1561.00, 
1562.00, 
1563.00, 
1564.00, 
1565.00, 
1566.00, 
1567.00, 
1568.00, 
1569.00, 
1570.00, 
1571.00, 
1572.00, 
1573.00, 
1574.00, 
1575.00, 
1576.00, 
1577.00, 
1578.00, 
1579.00, 
1580.00, 
1581.00, 
1582.00, 
1583.00, 
1584.00, 
1585.00, 
1586.00, 
1587.00, 
1588.00, 
1589.00, 
1590.00, 
1591.00, 
1592.00, 
1593.00, 
1594.00, 
1595.00, 
1596.00, 
1597.00, 
1598.00, 
1599.00, 
1600.00, 
1601.00, 
1602.00, 
1603.00, 
1604.00, 
1605.00, 
1606.00, 
1607.00, 
1608.00, 
1609.00, 
1610.00, 
1611.00, 
1612.00, 
1613.00, 
1614.00, 
1615.00, 
1616.00, 
1617.00, 
1618.00, 
1619.00, 
1620.00, 
1621.00, 
1622.00, 
1623.00, 
1624.00, 
1625.00, 
1626.00, 
1627.00, 
1628.00, 
1629.00, 
1630.00, 
1631.00, 
1632.00, 
1633.00, 
1634.00, 
1635.00, 
1636.00, 
1637.00, 
1638.00, 
1639.00, 
1640.00, 
1641.00, 
1642.00, 
1643.00, 
1644.00, 
1645.00, 
1646.00, 
1647.00, 
1648.00, 
1649.00, 
1650.00, 
1651.00, 
1652.00, 
1653.00, 
1654.00, 
1655.00, 
1656.00, 
1657.00, 
1658.00, 
1659.00, 
1660.00, 
1661.00, 
1662.00, 
1663.00, 
1664.00, 
1665.00, 
1666.00, 
1667.00, 
1668.00, 
1669.00, 
1670.00, 
1671.00, 
1672.00, 
1673.00, 
1674.00, 
1675.00, 
1676.00, 
1677.00, 
1678.00, 
1679.00, 
1680.00, 
1681.00, 
1682.00, 
1683.00, 
1684.00, 
1685.00, 
1686.00, 
1687.00, 
1688.00, 
1689.00, 
1690.00, 
1691.00, 
1692.00, 
1693.00, 
1694.00, 
1695.00, 
1696.00, 
1697.00, 
1698.00, 
1699.00, 
1700.00, 
1701.00, 
1702.00, 
1703.00, 
1704.00, 
1705.00, 
1706.00, 
1707.00, 
1708.00, 
1709.00, 
1710.00, 
1711.00, 
1712.00, 
1713.00, 
1714.00, 
1715.00, 
1716.00, 
1717.00, 
1718.00, 
1719.00, 
1720.00, 
1721.00, 
1722.00, 
1723.00, 
1724.00, 
1725.00, 
1726.00, 
1727.00, 
1728.00, 
1729.00, 
1730.00, 
1731.00, 
1732.00, 
1733.00, 
1734.00, 
1735.00, 
1736.00, 
1737.00, 
1738.00, 
1739.00, 
1740.00, 
1741.00, 
1742.00, 
1743.00, 
1744.00, 
1745.00, 
1746.00, 
1747.00, 
1748.00, 
1749.00, 
1750.00, 
1751.00, 
1752.00, 
1753.00, 
1754.00, 
1755.00, 
1756.00, 
1757.00, 
1758.00, 
1759.00, 
1760.00, 
1761.00, 
1762.00, 
1763.00, 
1764.00, 
1765.00, 
1766.00, 
1767.00, 
1768.00, 
1769.00, 
1770.00, 
1771.00, 
1772.00, 
1773.00, 
1774.00, 
1775.00, 
1776.00, 
1777.00, 
1778.00, 
1779.00, 
1780.00, 
1781.00, 
1782.00, 
1783.00, 
1784.00, 
1785.00, 
1786.00, 
1787.00, 
1788.00, 
1789.00, 
1790.00, 
1791.00, 
1792.00, 
1793.00, 
1794.00, 
1795.00, 
1796.00, 
1797.00, 
1798.00, 
1799.00, 
1800.00, 
1801.00, 
1802.00, 
1803.00, 
1804.00, 
1805.00, 
1806.00, 
1807.00, 
1808.00, 
1809.00, 
1810.00, 
1811.00, 
1812.00, 
1813.00, 
1814.00, 
1815.00, 
1816.00, 
1817.00, 
1818.00, 
1819.00, 
1820.00, 
1821.00, 
1822.00, 
1823.00, 
1824.00, 
1825.00, 
1826.00, 
1827.00, 
1828.00, 
1829.00, 
1830.00, 
1831.00, 
1832.00, 
1833.00, 
1834.00, 
1835.00, 
1836.00, 
1837.00, 
1838.00, 
1839.00, 
1840.00, 
1841.00, 
1842.00, 
1843.00, 
1844.00, 
1845.00, 
1846.00, 
1847.00, 
1848.00, 
1849.00, 
1850.00, 
1851.00, 
1852.00, 
1853.00, 
1854.00, 
1855.00, 
1856.00, 
1857.00, 
1858.00, 
1859.00, 
1860.00, 
1861.00, 
1862.00, 
1863.00, 
1864.00, 
1865.00, 
1866.00, 
1867.00, 
1868.00, 
1869.00, 
1870.00, 
1871.00, 
1872.00, 
1873.00, 
1874.00, 
1875.00, 
1876.00, 
1877.00, 
1878.00, 
1879.00, 
1880.00, 
1881.00, 
1882.00, 
1883.00, 
1884.00, 
1885.00, 
1886.00, 
1887.00, 
1888.00, 
1889.00, 
1890.00, 
1891.00, 
1892.00, 
1893.00, 
1894.00, 
1895.00, 
1896.00, 
1897.00, 
1898.00, 
1899.00, 
1900.00, 
1901.00, 
1902.00, 
1903.00, 
1904.00, 
1905.00, 
1906.00, 
1907.00, 
1908.00, 
1909.00, 
1910.00, 
1911.00, 
1912.00, 
1913.00, 
1914.00, 
1915.00, 
1916.00, 
1917.00, 
1918.00, 
1919.00, 
1920.00, 
1921.00, 
1922.00, 
1923.00, 
1924.00, 
1925.00, 
1926.00, 
1927.00, 
1928.00, 
1929.00, 
1930.00, 
1931.00, 
1932.00, 
1933.00, 
1934.00, 
1935.00, 
1936.00, 
1937.00, 
1938.00, 
1939.00, 
1940.00, 
1941.00, 
1942.00, 
1943.00, 
1944.00, 
1945.00, 
1946.00, 
1947.00, 
1948.00, 
1949.00, 
1950.00, 
1951.00, 
1952.00, 
1953.00, 
1954.00, 
1955.00, 
1956.00, 
1957.00, 
1958.00, 
1959.00, 
1960.00, 
1961.00, 
1962.00, 
1963.00, 
1964.00, 
1965.00, 
1966.00, 
1967.00, 
1968.00, 
1969.00, 
1970.00, 
1971.00, 
1972.00, 
1973.00, 
1974.00, 
1975.00, 
1976.00, 
1977.00, 
1978.00, 
1979.00, 
1980.00, 
1981.00, 
1982.00, 
1983.00, 
1984.00, 
1985.00, 
1986.00, 
1987.00, 
1988.00, 
1989.00, 
1990.00, 
1991.00, 
1992.00, 
1993.00, 
1994.00, 
1995.00, 
1996.00, 
1997.00, 
1998.00, 
1999.00, 
2000.00, 
2001.00, 
2002.00, 
2003.00, 
2004.00, 
2005.00, 
2006.00, 
2007.00, 
2008.00, 
2009.00, 
2010.00, 
2011.00, 
2012.00, 
2013.00, 
2014.00, 
2015.00, 
2016.00, 
2017.00, 
2018.00, 
2019.00, 
2020.00, 
2021.00, 
2022.00, 
2023.00, 
2024.00, 
2025.00, 
2026.00, 
2027.00, 
2028.00, 
2029.00, 
2030.00, 
2031.00, 
2032.00, 
2033.00, 
2034.00, 
2035.00, 
2036.00, 
2037.00, 
2038.00, 
2039.00, 
2040.00, 
2041.00, 
2042.00, 
2043.00, 
2044.00, 
2045.00, 
2046.00, 
2047.00, 
2048.00, 
2049.00, 
2050.00, 
2051.00, 
2052.00, 
2053.00, 
2054.00, 
2055.00, 
2056.00, 
2057.00, 
2058.00, 
2059.00, 
2060.00, 
2061.00, 
2062.00, 
2063.00, 
2064.00, 
2065.00, 
2066.00, 
2067.00, 
2068.00, 
2069.00, 
2070.00, 
2071.00, 
2072.00, 
2073.00, 
2074.00, 
2075.00, 
2076.00, 
2077.00, 
2078.00, 
2079.00, 
2080.00, 
2081.00, 
2082.00, 
2083.00, 
2084.00, 
2085.00, 
2086.00, 
2087.00, 
2088.00, 
2089.00, 
2090.00, 
2091.00, 
2092.00, 
2093.00, 
2094.00, 
2095.00, 
2096.00, 
2097.00, 
2098.00, 
2099.00, 
2100.00, 
2101.00, 
2102.00, 
2103.00, 
2104.00, 
2105.00, 
2106.00, 
2107.00, 
2108.00, 
2109.00, 
2110.00, 
2111.00, 
2112.00, 
2113.00, 
2114.00, 
2115.00, 
2116.00, 
2117.00, 
2118.00, 
2119.00, 
2120.00, 
2121.00, 
2122.00, 
2123.00, 
2124.00, 
2125.00, 
2126.00, 
2127.00, 
2128.00, 
2129.00, 
2130.00, 
2131.00, 
2132.00, 
2133.00, 
2134.00, 
2135.00, 
2136.00, 
2137.00, 
2138.00, 
2139.00, 
2140.00, 
2141.00, 
2142.00, 
2143.00, 
2144.00, 
2145.00, 
2146.00, 
2147.00, 
2148.00, 
2149.00, 
2150.00, 
2151.00, 
2152.00, 
2153.00, 
2154.00, 
2155.00, 
2156.00, 
2157.00, 
2158.00, 
2159.00, 
2160.00, 
2161.00, 
2162.00, 
2163.00, 
2164.00, 
2165.00, 
2166.00, 
2167.00, 
2168.00, 
2169.00, 
2170.00, 
2171.00, 
2172.00, 
2173.00, 
2174.00, 
2175.00, 
2176.00, 
2177.00, 
2178.00, 
2179.00, 
2180.00, 
2181.00, 
2182.00, 
2183.00, 
2184.00, 
2185.00, 
2186.00, 
2187.00, 
2188.00, 
2189.00, 
2190.00, 
2191.00, 
2192.00, 
2193.00, 
2194.00, 
2195.00, 
2196.00, 
2197.00, 
2198.00, 
2199.00, 
2200.00, 
2201.00, 
2202.00, 
2203.00, 
2204.00, 
2205.00, 
2206.00, 
2207.00, 
2208.00, 
2209.00, 
2210.00, 
2211.00, 
2212.00, 
2213.00, 
2214.00, 
2215.00, 
2216.00, 
2217.00, 
2218.00, 
2219.00, 
2220.00, 
2221.00, 
2222.00, 
2223.00, 
2224.00, 
2225.00, 
2226.00, 
2227.00, 
2228.00, 
2229.00, 
2230.00, 
2231.00, 
2232.00, 
2233.00, 
2234.00, 
2235.00, 
2236.00, 
2237.00, 
2238.00, 
2239.00, 
2240.00, 
2241.00, 
2242.00, 
2243.00, 
2244.00, 
2245.00, 
2246.00, 
2247.00, 
2248.00, 
2249.00, 
2250.00, 
2251.00, 
2252.00, 
2253.00, 
2254.00, 
2255.00, 
2256.00, 
2257.00, 
2258.00, 
2259.00, 
2260.00, 
2261.00, 
2262.00, 
2263.00, 
2264.00, 
2265.00, 
2266.00, 
2267.00, 
2268.00, 
2269.00, 
2270.00, 
2271.00, 
2272.00, 
2273.00, 
2274.00, 
2275.00, 
2276.00, 
2277.00, 
2278.00, 
2279.00, 
2280.00, 
2281.00, 
2282.00, 
2283.00, 
2284.00, 
2285.00, 
2286.00, 
2287.00, 
2288.00, 
2289.00, 
2290.00, 
2291.00, 
2292.00, 
2293.00, 
2294.00, 
2295.00, 
2296.00, 
2297.00, 
2298.00, 
2299.00, 
2300.00, 
2301.00, 
2302.00, 
2303.00, 
2304.00, 
2305.00, 
2306.00, 
2307.00, 
2308.00, 
2309.00, 
2310.00, 
2311.00, 
2312.00, 
2313.00, 
2314.00, 
2315.00, 
2316.00, 
2317.00, 
2318.00, 
2319.00, 
2320.00, 
2321.00, 
2322.00, 
2323.00, 
2324.00, 
2325.00, 
2326.00, 
2327.00, 
2328.00, 
2329.00, 
2330.00, 
2331.00, 
2332.00, 
2333.00, 
2334.00, 
2335.00, 
2336.00, 
2337.00, 
2338.00, 
2339.00, 
2340.00, 
2341.00, 
2342.00, 
2343.00, 
2344.00, 
2345.00, 
2346.00, 
2347.00, 
2348.00, 
2349.00, 
2350.00, 
2351.00, 
2352.00, 
2353.00, 
2354.00, 
2355.00, 
2356.00, 
2357.00, 
2358.00, 
2359.00, 
2360.00, 
2361.00, 
2362.00, 
2363.00, 
2364.00, 
2365.00, 
2366.00, 
2367.00, 
2368.00, 
2369.00, 
2370.00, 
2371.00, 
2372.00, 
2373.00, 
2374.00, 
2375.00, 
2376.00, 
2377.00, 
2378.00, 
2379.00, 
2380.00, 
2381.00, 
2382.00, 
2383.00, 
2384.00, 
2385.00, 
2386.00, 
2387.00, 
2388.00, 
2389.00, 
2390.00, 
2391.00, 
2392.00, 
2393.00, 
2394.00, 
2395.00, 
2396.00, 
2397.00, 
2398.00, 
2399.00, 
2400.00, 
2401.00, 
2402.00, 
2403.00, 
2404.00, 
2405.00, 
2406.00, 
2407.00, 
2408.00, 
2409.00, 
2410.00, 
2411.00, 
2412.00, 
2413.00, 
2414.00, 
2415.00, 
2416.00, 
2417.00, 
2418.00, 
2419.00, 
2420.00, 
2421.00, 
2422.00, 
2423.00, 
2424.00, 
2425.00, 
2426.00, 
2427.00, 
2428.00, 
2429.00, 
2430.00, 
2431.00, 
2432.00, 
2433.00, 
2434.00, 
2435.00, 
2436.00, 
2437.00, 
2438.00, 
2439.00, 
2440.00, 
2441.00, 
2442.00, 
2443.00, 
2444.00, 
2445.00, 
2446.00, 
2447.00, 
2448.00, 
2449.00, 
2450.00, 
2451.00, 
2452.00, 
2453.00, 
2454.00, 
2455.00, 
2456.00, 
2457.00, 
2458.00, 
2459.00, 
2460.00, 
2461.00, 
2462.00, 
2463.00, 
2464.00, 
2465.00, 
2466.00, 
2467.00, 
2468.00, 
2469.00, 
2470.00, 
2471.00, 
2472.00, 
2473.00, 
2474.00, 
2475.00, 
2476.00, 
2477.00, 
2478.00, 
2479.00, 
2480.00, 
2481.00, 
2482.00, 
2483.00, 
2484.00, 
2485.00, 
2486.00, 
2487.00, 
2488.00, 
2489.00, 
2490.00, 
2491.00, 
2492.00, 
2493.00, 
2494.00, 
2495.00, 
2496.00, 
2497.00, 
2498.00, 
2499.00, 
2500.00, 
2501.00, 
2502.00, 
2503.00, 
2504.00, 
2505.00, 
2506.00, 
2507.00, 
2508.00, 
2509.00, 
2510.00, 
2511.00, 
2512.00, 
2513.00, 
2514.00, 
2515.00, 
2516.00, 
2517.00, 
2518.00, 
2519.00, 
2520.00, 
2521.00, 
2522.00, 
2523.00, 
2524.00, 
2525.00, 
2526.00, 
2527.00, 
2528.00, 
2529.00, 
2530.00, 
2531.00, 
2532.00, 
2533.00, 
2534.00, 
2535.00, 
2536.00, 
2537.00, 
2538.00, 
2539.00, 
2540.00, 
2541.00, 
2542.00, 
2543.00, 
2544.00, 
2545.00, 
2546.00, 
2547.00, 
2548.00, 
2549.00, 
2550.00, 
2551.00, 
2552.00, 
2553.00, 
2554.00, 
2555.00, 
2556.00, 
2557.00, 
2558.00, 
2559.00, 
2560.00, 
2561.00, 
2562.00, 
2563.00, 
2564.00, 
2565.00, 
2566.00, 
2567.00, 
2568.00, 
2569.00, 
2570.00, 
2571.00, 
2572.00, 
2573.00, 
2574.00, 
2575.00, 
2576.00, 
2577.00, 
2578.00, 
2579.00, 
2580.00, 
2581.00, 
2582.00, 
2583.00, 
2584.00, 
2585.00, 
2586.00, 
2587.00, 
2588.00, 
2589.00, 
2590.00, 
2591.00, 
2592.00, 
2593.00, 
2594.00, 
2595.00, 
2596.00, 
2597.00, 
2598.00, 
2599.00, 
2600.00, 
