"1cP2 - RawData"
"Wavelength nm.","T%"
200.00,0.001
201.00,0.002
202.00,0.001
203.00,0.003
204.00,0.001
205.00,0.002
206.00,0.002
207.00,0.004
208.00,0.002
209.00,0.001
210.00,0.001
211.00,-0.000
212.00,0.003
213.00,-0.001
214.00,0.002
215.00,0.002
216.00,0.001
217.00,-0.002
218.00,-0.002
219.00,0.004
220.00,-0.000
221.00,0.003
222.00,0.000
223.00,-0.002
224.00,0.002
225.00,0.002
226.00,-0.001
227.00,0.000
228.00,0.001
229.00,-0.000
230.00,-0.000
231.00,-0.000
232.00,0.001
233.00,0.000
234.00,0.003
235.00,-0.000
236.00,0.001
237.00,0.001
238.00,-0.000
239.00,0.000
240.00,0.000
241.00,0.001
242.00,0.001
243.00,0.001
244.00,0.000
245.00,0.001
246.00,0.002
247.00,0.002
248.00,0.001
249.00,-0.000
250.00,0.001
251.00,0.001
252.00,0.003
253.00,-0.002
254.00,-0.000
255.00,0.002
256.00,0.002
257.00,0.003
258.00,-0.001
259.00,-0.000
260.00,0.000
261.00,0.001
262.00,-0.001
263.00,-0.001
264.00,0.001
265.00,0.002
266.00,0.002
267.00,0.001
268.00,0.002
269.00,0.002
270.00,-0.001
271.00,0.000
272.00,0.002
273.00,-0.000
274.00,0.000
275.00,0.002
276.00,0.000
277.00,0.000
278.00,-0.000
279.00,0.001
280.00,0.001
281.00,0.001
282.00,0.000
283.00,-0.000
284.00,-0.002
285.00,0.002
286.00,0.002
287.00,0.002
288.00,-0.002
289.00,0.000
290.00,-0.000
291.00,0.001
292.00,-0.000
293.00,-0.000
294.00,0.000
295.00,0.001
296.00,0.002
297.00,0.001
298.00,0.001
299.00,-0.001
300.00,0.002
301.00,0.000
302.00,0.000
303.00,0.001
304.00,0.001
305.00,0.004
306.00,0.003
307.00,0.007
308.00,0.011
309.00,0.021
310.00,0.030
311.00,0.050
312.00,0.078
313.00,0.115
314.00,0.169
315.00,0.250
316.00,0.359
317.00,0.515
318.00,0.704
319.00,0.947
320.00,1.266
321.00,1.651
322.00,2.105
323.00,2.648
324.00,3.279
325.00,3.962
326.00,4.686
327.00,5.606
328.00,6.576
329.00,7.590
330.00,8.713
331.00,9.860
332.00,11.095
333.00,12.423
334.00,13.723
335.00,15.093
336.00,16.549
337.00,17.757
338.00,19.283
339.00,20.434
340.00,22.106
341.00,23.430
342.00,24.764
343.00,25.908
344.00,27.173
345.00,28.472
346.00,29.571
347.00,30.726
348.00,31.774
349.00,32.760
350.00,33.732
351.00,34.602
352.00,35.383
353.00,36.169
354.00,36.910
355.00,37.667
356.00,38.384
357.00,38.987
358.00,39.594
359.00,40.195
360.00,40.806
361.00,41.281
362.00,41.812
363.00,42.208
364.00,42.444
365.00,42.778
366.00,43.178
367.00,43.455
368.00,43.686
369.00,43.860
370.00,44.112
371.00,44.202
372.00,44.211
373.00,44.309
374.00,44.405
375.00,44.388
376.00,44.190
377.00,44.267
378.00,44.194
379.00,44.109
380.00,44.121
381.00,44.278
382.00,44.351
383.00,44.520
384.00,44.776
385.00,44.912
386.00,45.064
387.00,45.431
388.00,45.675
389.00,45.806
390.00,46.046
391.00,46.203
392.00,46.337
393.00,46.449
394.00,46.597
395.00,46.803
396.00,46.793
397.00,46.934
398.00,47.014
399.00,47.018
400.00,47.136
401.00,47.238
402.00,47.320
403.00,47.280
404.00,47.295
405.00,47.318
406.00,47.315
407.00,47.242
408.00,47.314
409.00,47.266
410.00,47.166
411.00,47.178
412.00,47.099
413.00,47.075
414.00,47.029
415.00,47.018
416.00,47.116
417.00,46.981
418.00,46.991
419.00,47.151
420.00,47.168
421.00,47.227
422.00,47.200
423.00,47.239
424.00,47.316
425.00,47.301
426.00,47.296
427.00,47.337
428.00,47.320
429.00,47.345
430.00,47.376
431.00,47.450
432.00,47.406
433.00,47.487
434.00,47.500
435.00,47.520
436.00,47.521
437.00,47.551
438.00,47.607
439.00,47.605
440.00,47.674
441.00,47.678
442.00,47.718
443.00,47.719
444.00,47.794
445.00,47.824
446.00,47.858
447.00,47.893
448.00,47.978
449.00,48.052
450.00,48.109
451.00,48.152
452.00,48.178
453.00,48.285
454.00,48.242
455.00,48.255
456.00,48.351
457.00,48.408
458.00,48.438
459.00,48.480
460.00,48.597
461.00,48.659
462.00,48.654
463.00,48.759
464.00,48.841
465.00,48.862
466.00,48.979
467.00,49.042
468.00,48.948
469.00,48.920
470.00,48.950
471.00,48.985
472.00,49.024
473.00,49.005
474.00,49.056
475.00,49.114
476.00,49.097
477.00,49.110
478.00,49.178
479.00,49.301
480.00,49.354
481.00,49.367
482.00,49.446
483.00,49.522
484.00,49.630
485.00,49.695
486.00,49.778
487.00,49.828
488.00,49.800
489.00,49.865
490.00,49.976
491.00,49.975
492.00,50.034
493.00,50.095
494.00,50.228
495.00,50.164
496.00,50.164
497.00,50.236
498.00,50.254
499.00,50.335
500.00,50.415
501.00,50.402
502.00,50.501
503.00,50.506
504.00,50.469
505.00,50.463
506.00,50.512
507.00,50.506
508.00,50.611
509.00,50.722
510.00,50.748
511.00,50.788
512.00,50.923
513.00,50.967
514.00,51.001
515.00,51.101
516.00,51.066
517.00,51.026
518.00,51.170
519.00,51.118
520.00,50.987
521.00,51.135
522.00,51.241
523.00,51.195
524.00,51.206
525.00,51.315
526.00,51.357
527.00,51.261
528.00,51.282
529.00,51.377
530.00,51.514
531.00,51.602
532.00,51.572
533.00,51.633
534.00,51.658
535.00,51.718
536.00,51.753
537.00,51.774
538.00,51.783
539.00,51.753
540.00,51.813
541.00,51.754
542.00,51.764
543.00,51.820
544.00,51.882
545.00,51.830
546.00,51.812
547.00,51.967
548.00,51.929
549.00,51.840
550.00,52.014
551.00,52.065
552.00,52.147
553.00,52.099
554.00,52.124
555.00,52.130
556.00,52.168
557.00,52.100
558.00,52.165
559.00,52.155
560.00,52.112
561.00,52.271
562.00,52.376
563.00,52.197
564.00,52.237
565.00,52.374
566.00,52.189
567.00,52.273
568.00,52.255
569.00,52.339
570.00,52.304
571.00,52.328
572.00,52.291
573.00,52.235
574.00,52.249
575.00,52.241
576.00,52.172
577.00,52.214
578.00,52.336
579.00,52.343
580.00,52.302
581.00,52.490
582.00,52.500
583.00,52.420
584.00,52.517
585.00,52.516
586.00,52.574
587.00,52.640
588.00,52.641
589.00,52.502
590.00,52.629
591.00,52.642
592.00,52.486
593.00,52.505
594.00,52.567
595.00,52.717
596.00,52.759
597.00,52.740
598.00,52.812
599.00,52.730
600.00,52.688
601.00,52.712
602.00,52.682
603.00,52.629
604.00,52.649
605.00,52.683
606.00,52.775
607.00,52.607
608.00,52.619
609.00,52.697
610.00,52.861
611.00,52.645
612.00,52.625
613.00,52.693
614.00,52.625
615.00,52.641
616.00,52.763
617.00,52.557
618.00,52.633
619.00,52.634
620.00,52.615
621.00,52.654
622.00,52.667
623.00,52.680
624.00,52.684
625.00,52.665
626.00,52.610
627.00,52.658
628.00,52.623
629.00,52.609
630.00,52.655
631.00,52.653
632.00,52.644
633.00,52.660
634.00,52.712
635.00,52.730
636.00,52.721
637.00,52.677
638.00,52.655
639.00,52.720
640.00,52.714
641.00,52.648
642.00,52.634
643.00,52.618
644.00,52.600
645.00,52.545
646.00,52.739
647.00,52.700
648.00,52.667
649.00,52.558
650.00,52.415
651.00,52.656
652.00,52.648
653.00,52.513
654.00,52.502
655.00,52.680
656.00,52.832
657.00,52.564
658.00,52.493
659.00,52.539
660.00,52.570
661.00,52.424
662.00,52.496
663.00,52.516
664.00,52.720
665.00,52.744
666.00,52.656
667.00,52.651
668.00,52.432
669.00,52.616
670.00,52.818
671.00,52.642
672.00,52.671
673.00,52.594
674.00,52.550
675.00,52.514
676.00,52.639
677.00,52.751
678.00,52.455
679.00,52.594
680.00,52.645
681.00,52.684
682.00,52.615
683.00,52.483
684.00,52.592
685.00,52.641
686.00,52.409
687.00,52.437
688.00,52.436
689.00,52.208
690.00,52.371
691.00,52.587
692.00,52.410
693.00,52.308
694.00,52.385
695.00,52.476
696.00,52.367
697.00,52.199
698.00,52.163
699.00,52.300
700.00,52.386
701.00,52.154
702.00,52.271
703.00,52.433
704.00,52.253
705.00,52.100
706.00,52.208
707.00,52.157
708.00,51.927
709.00,52.225
710.00,52.535
711.00,51.909
712.00,51.989
713.00,52.045
714.00,51.991
715.00,52.062
716.00,51.877
717.00,51.986
718.00,52.093
719.00,51.913
720.00,51.773
721.00,56.837
722.00,56.714
723.00,56.553
724.00,56.568
725.00,56.702
726.00,56.428
727.00,56.426
728.00,56.267
729.00,56.275
730.00,56.215
731.00,56.224
732.00,56.154
733.00,56.119
734.00,56.070
735.00,56.033
736.00,55.890
737.00,55.852
738.00,55.852
739.00,55.855
740.00,55.708
741.00,55.731
742.00,55.700
743.00,55.553
744.00,55.601
745.00,55.512
746.00,55.431
747.00,55.309
748.00,55.300
749.00,55.243
750.00,55.169
751.00,54.996
752.00,54.993
753.00,55.016
754.00,54.842
755.00,54.843
756.00,54.837
757.00,54.752
758.00,54.859
759.00,54.657
760.00,54.645
761.00,54.586
762.00,54.563
763.00,54.575
764.00,54.409
765.00,54.477
766.00,54.414
767.00,54.414
768.00,54.312
769.00,54.328
770.00,54.328
771.00,54.246
772.00,54.232
773.00,54.087
774.00,54.098
775.00,54.049
776.00,54.102
777.00,54.050
778.00,53.986
779.00,53.933
780.00,53.877
781.00,53.838
782.00,53.836
783.00,53.769
784.00,53.814
785.00,53.642
786.00,53.771
787.00,53.651
788.00,53.566
789.00,53.513
790.00,53.429
791.00,53.543
792.00,53.264
793.00,53.313
794.00,53.302
795.00,53.288
796.00,53.254
797.00,53.092
798.00,53.238
799.00,53.041
800.00,53.050
801.00,52.980
802.00,52.976
803.00,52.897
804.00,52.862
805.00,52.891
806.00,52.820
807.00,52.757
808.00,52.744
809.00,52.692
810.00,52.675
811.00,52.605
812.00,52.698
813.00,52.494
814.00,52.518
815.00,52.608
816.00,52.471
817.00,52.390
818.00,52.368
819.00,52.251
820.00,52.326
821.00,52.265
822.00,52.270
823.00,52.151
824.00,52.212
825.00,52.179
826.00,52.094
827.00,52.193
828.00,52.063
829.00,52.077
830.00,52.071
831.00,54.352
832.00,54.290
833.00,54.268
834.00,54.244
835.00,54.164
836.00,54.195
837.00,54.094
838.00,54.131
839.00,54.092
840.00,54.015
841.00,54.021
842.00,53.930
843.00,53.956
844.00,53.915
845.00,53.845
846.00,53.855
847.00,53.813
848.00,53.792
849.00,53.746
850.00,53.690
851.00,53.615
852.00,53.649
853.00,53.583
854.00,53.555
855.00,53.556
856.00,53.424
857.00,53.391
858.00,53.371
859.00,53.357
860.00,53.294
861.00,53.301
862.00,53.251
863.00,53.235
864.00,53.169
865.00,53.212
866.00,53.149
867.00,53.165
868.00,53.147
869.00,53.057
870.00,53.278
871.00,53.073
872.00,53.062
873.00,53.051
874.00,53.027
875.00,52.966
876.00,52.992
877.00,52.944
878.00,52.946
879.00,52.893
880.00,52.875
881.00,52.854
882.00,52.857
883.00,52.817
884.00,52.775
885.00,52.746
886.00,52.725
887.00,52.718
888.00,52.698
889.00,52.671
890.00,52.634
891.00,52.585
892.00,52.605
893.00,52.554
894.00,52.549
895.00,52.508
896.00,52.511
897.00,52.471
898.00,52.429
899.00,52.449
900.00,52.424
901.00,52.418
902.00,52.378
903.00,52.353
904.00,52.342
905.00,52.303
906.00,52.313
907.00,52.265
908.00,52.230
909.00,52.221
910.00,52.177
911.00,52.156
912.00,52.170
913.00,52.134
914.00,52.126
915.00,52.088
916.00,52.055
917.00,52.022
918.00,52.022
919.00,51.965
920.00,51.917
921.00,51.955
922.00,51.950
923.00,51.885
924.00,51.826
925.00,51.954
926.00,51.850
927.00,51.840
928.00,51.804
929.00,51.798
930.00,51.756
931.00,51.727
932.00,51.687
933.00,51.696
934.00,51.650
935.00,51.651
936.00,51.616
937.00,51.599
938.00,51.581
939.00,51.578
940.00,51.539
941.00,51.535
942.00,51.498
943.00,51.486
944.00,51.454
945.00,51.448
946.00,51.437
947.00,51.370
948.00,51.355
949.00,51.340
950.00,51.317
951.00,51.312
952.00,51.288
953.00,51.233
954.00,51.205
955.00,51.197
956.00,51.156
957.00,51.127
958.00,51.128
959.00,51.079
960.00,51.067
961.00,51.047
962.00,51.061
963.00,51.008
964.00,50.982
965.00,50.992
966.00,50.972
967.00,50.950
968.00,50.935
969.00,50.951
970.00,50.935
971.00,50.952
972.00,50.910
973.00,50.957
974.00,50.967
975.00,50.931
976.00,50.949
977.00,50.937
978.00,50.963
979.00,50.935
980.00,50.948
981.00,50.928
982.00,50.910
983.00,50.914
984.00,50.905
985.00,50.898
986.00,50.922
987.00,50.890
988.00,50.862
989.00,50.834
990.00,50.839
991.00,50.819
992.00,50.831
993.00,50.791
994.00,50.774
995.00,50.777
996.00,50.780
997.00,50.733
998.00,50.715
999.00,50.744
1000.00,50.702
1001.00,50.714
1002.00,50.705
1003.00,50.710
1004.00,50.670
1005.00,50.634
1006.00,50.657
1007.00,50.638
1008.00,50.616
1009.00,50.598
1010.00,50.598
1011.00,50.565
1012.00,50.551
1013.00,50.538
1014.00,50.505
1015.00,50.524
1016.00,50.472
1017.00,50.482
1018.00,50.452
1019.00,50.429
1020.00,50.446
1021.00,50.432
1022.00,50.413
1023.00,50.383
1024.00,50.374
1025.00,50.355
1026.00,50.348
1027.00,50.307
1028.00,50.319
1029.00,50.302
1030.00,50.261
1031.00,50.279
1032.00,50.278
1033.00,50.229
1034.00,50.215
1035.00,50.178
1036.00,50.150
1037.00,50.141
1038.00,50.108
1039.00,50.091
1040.00,50.090
1041.00,50.046
1042.00,50.044
1043.00,50.019
1044.00,50.045
1045.00,50.044
1046.00,50.054
1047.00,50.082
1048.00,50.075
1049.00,50.067
1050.00,50.079
1051.00,50.104
1052.00,50.099
1053.00,50.109
1054.00,50.106
1055.00,50.121
1056.00,50.138
1057.00,50.141
1058.00,50.128
1059.00,50.134
1060.00,50.120
1061.00,50.118
1062.00,50.093
1063.00,50.092
1064.00,50.093
1065.00,50.083
1066.00,50.062
1067.00,50.065
1068.00,50.087
1069.00,50.056
1070.00,50.033
1071.00,50.003
1072.00,50.031
1073.00,50.024
1074.00,50.003
1075.00,49.995
1076.00,50.007
1077.00,49.988
1078.00,49.979
1079.00,49.970
1080.00,49.976
1081.00,49.974
1082.00,49.965
1083.00,49.953
1084.00,49.950
1085.00,49.939
1086.00,49.930
1087.00,49.929
1088.00,49.898
1089.00,49.895
1090.00,49.896
1091.00,49.897
1092.00,49.894
1093.00,49.851
1094.00,49.851
1095.00,49.838
1096.00,49.819
1097.00,49.830
1098.00,49.828
1099.00,49.825
1100.00,49.818
1101.00,49.799
1102.00,49.790
1103.00,49.791
1104.00,49.770
1105.00,49.765
1106.00,49.754
1107.00,49.735
1108.00,49.759
1109.00,49.722
1110.00,49.718
1111.00,49.726
1112.00,49.716
1113.00,49.715
1114.00,49.702
1115.00,49.699
1116.00,49.693
1117.00,49.682
1118.00,49.669
1119.00,49.665
1120.00,49.679
1121.00,49.658
1122.00,49.649
1123.00,49.642
1124.00,49.622
1125.00,49.613
1126.00,49.613
1127.00,49.626
1128.00,49.611
1129.00,49.576
1130.00,49.575
1131.00,49.580
1132.00,49.577
1133.00,49.569
1134.00,49.549
1135.00,49.535
1136.00,49.558
1137.00,49.556
1138.00,49.565
1139.00,49.583
1140.00,49.563
1141.00,49.555
1142.00,49.570
1143.00,49.557
1144.00,49.524
1145.00,49.519
1146.00,49.534
1147.00,49.518
1148.00,49.512
1149.00,49.531
1150.00,49.539
1151.00,49.522
1152.00,49.523
1153.00,49.528
1154.00,49.500
1155.00,49.514
1156.00,49.502
1157.00,49.504
1158.00,49.502
1159.00,49.498
1160.00,49.498
1161.00,49.507
1162.00,49.501
1163.00,49.501
1164.00,49.506
1165.00,49.493
1166.00,49.501
1167.00,49.503
1168.00,49.513
1169.00,49.518
1170.00,49.496
1171.00,49.489
1172.00,49.485
1173.00,49.471
1174.00,49.484
1175.00,49.468
1176.00,49.465
1177.00,49.457
1178.00,49.456
1179.00,49.468
1180.00,49.476
1181.00,49.484
1182.00,49.495
1183.00,49.525
1184.00,49.492
1185.00,49.508
1186.00,49.491
1187.00,49.476
1188.00,49.477
1189.00,49.480
1190.00,49.473
1191.00,49.482
1192.00,49.484
1193.00,49.492
1194.00,49.493
1195.00,49.465
1196.00,49.505
1197.00,49.512
1198.00,49.483
1199.00,49.482
1200.00,49.483
1201.00,49.487
1202.00,49.480
1203.00,49.474
1204.00,49.476
1205.00,49.499
1206.00,49.473
1207.00,49.491
1208.00,49.460
1209.00,49.466
1210.00,49.478
1211.00,49.472
1212.00,49.479
1213.00,49.456
1214.00,49.473
1215.00,49.460
1216.00,49.482
1217.00,49.475
1218.00,49.477
1219.00,49.491
1220.00,49.470
1221.00,49.505
1222.00,49.492
1223.00,49.512
1224.00,49.499
1225.00,49.491
1226.00,49.488
1227.00,49.514
1228.00,49.516
1229.00,49.505
1230.00,49.566
1231.00,49.539
1232.00,49.575
1233.00,49.566
1234.00,49.559
1235.00,49.564
1236.00,49.550
1237.00,49.567
1238.00,49.576
1239.00,49.574
1240.00,49.559
1241.00,49.576
1242.00,49.577
1243.00,49.593
1244.00,49.559
1245.00,49.589
1246.00,49.602
1247.00,49.593
1248.00,49.606
1249.00,49.642
1250.00,49.624
1251.00,49.630
1252.00,49.639
1253.00,49.610
1254.00,49.657
1255.00,49.642
1256.00,49.613
1257.00,49.596
1258.00,49.654
1259.00,49.659
1260.00,49.688
1261.00,49.677
1262.00,49.683
1263.00,49.677
1264.00,49.670
1265.00,49.697
1266.00,49.692
1267.00,49.691
1268.00,49.707
1269.00,49.692
1270.00,49.715
1271.00,49.710
1272.00,49.711
1273.00,49.738
1274.00,49.739
1275.00,49.751
1276.00,49.764
1277.00,49.743
1278.00,49.761
1279.00,49.762
1280.00,49.754
1281.00,49.772
1282.00,49.802
1283.00,49.786
1284.00,49.788
1285.00,49.790
1286.00,49.790
1287.00,49.793
1288.00,49.766
1289.00,49.803
1290.00,49.861
1291.00,49.833
1292.00,49.829
1293.00,49.851
1294.00,49.849
1295.00,49.880
1296.00,49.882
1297.00,49.884
1298.00,49.924
1299.00,49.895
1300.00,49.907
1301.00,49.900
1302.00,49.913
1303.00,49.934
1304.00,49.900
1305.00,49.925
1306.00,49.940
1307.00,49.952
1308.00,49.958
1309.00,49.964
1310.00,49.965
1311.00,49.952
1312.00,49.983
1313.00,49.988
1314.00,50.017
1315.00,50.018
1316.00,49.996
1317.00,50.032
1318.00,50.029
1319.00,50.022
1320.00,50.048
1321.00,50.213
1322.00,50.208
1323.00,50.193
1324.00,50.185
1325.00,50.188
1326.00,50.213
1327.00,50.185
1328.00,50.199
1329.00,50.196
1330.00,50.199
1331.00,50.199
1332.00,50.195
1333.00,50.227
1334.00,50.272
1335.00,50.266
1336.00,50.296
1337.00,50.337
1338.00,50.400
1339.00,50.448
1340.00,50.505
1341.00,50.564
1342.00,50.626
1343.00,50.674
1344.00,50.714
1345.00,50.784
1346.00,50.797
1347.00,50.848
1348.00,50.859
1349.00,50.822
1350.00,50.890
1351.00,50.943
1352.00,50.920
1353.00,50.902
1354.00,50.915
1355.00,50.912
1356.00,51.049
1357.00,50.996
1358.00,50.965
1359.00,51.021
1360.00,50.984
1361.00,50.977
1362.00,50.843
1363.00,51.101
1364.00,51.212
1365.00,51.020
1366.00,51.024
1367.00,51.055
1368.00,50.875
1369.00,50.983
1370.00,50.996
1371.00,50.956
1372.00,51.007
1373.00,51.030
1374.00,51.026
1375.00,51.012
1376.00,50.980
1377.00,50.969
1378.00,50.948
1379.00,51.024
1380.00,51.066
1381.00,51.080
1382.00,51.115
1383.00,51.036
1384.00,51.059
1385.00,50.917
1386.00,51.004
1387.00,51.000
1388.00,50.969
1389.00,50.949
1390.00,51.007
1391.00,50.981
1392.00,50.992
1393.00,50.974
1394.00,51.027
1395.00,50.941
1396.00,51.082
1397.00,50.862
1398.00,50.976
1399.00,51.125
1400.00,51.019
1401.00,50.944
1402.00,51.068
1403.00,51.057
1404.00,50.972
1405.00,51.079
1406.00,51.047
1407.00,51.074
1408.00,51.051
1409.00,51.078
1410.00,51.093
1411.00,51.052
1412.00,51.121
1413.00,51.043
1414.00,51.117
1415.00,51.114
1416.00,51.116
1417.00,51.153
1418.00,51.124
1419.00,51.145
1420.00,51.174
1421.00,51.228
1422.00,51.198
1423.00,51.227
1424.00,51.250
1425.00,51.268
1426.00,51.270
1427.00,51.303
1428.00,51.311
1429.00,51.313
1430.00,51.305
1431.00,51.350
1432.00,51.367
1433.00,51.374
1434.00,51.384
1435.00,51.474
1436.00,51.436
1437.00,51.431
1438.00,51.464
1439.00,51.498
1440.00,51.483
1441.00,51.502
1442.00,51.527
1443.00,51.523
1444.00,51.577
1445.00,51.615
1446.00,51.626
1447.00,51.665
1448.00,51.687
1449.00,51.682
1450.00,51.696
1451.00,51.705
1452.00,51.733
1453.00,51.729
1454.00,51.748
1455.00,51.781
1456.00,51.785
1457.00,51.793
1458.00,51.836
1459.00,51.835
1460.00,51.871
1461.00,51.890
1462.00,51.901
1463.00,51.899
1464.00,51.909
1465.00,51.939
1466.00,51.935
1467.00,51.971
1468.00,52.036
1469.00,51.996
1470.00,52.016
1471.00,52.049
1472.00,52.063
1473.00,52.061
1474.00,52.081
1475.00,52.088
1476.00,52.098
1477.00,52.120
1478.00,52.149
1479.00,52.180
1480.00,52.168
1481.00,52.172
1482.00,52.211
1483.00,52.228
1484.00,52.239
1485.00,52.241
1486.00,52.243
1487.00,52.268
1488.00,52.283
1489.00,52.281
1490.00,52.299
1491.00,52.310
1492.00,52.324
1493.00,52.318
1494.00,52.365
1495.00,52.343
1496.00,52.376
1497.00,52.374
1498.00,52.397
1499.00,52.409
1500.00,52.425
1501.00, 
1502.00, 
1503.00, 
1504.00, 
1505.00, 
1506.00, 
1507.00, 
1508.00, 
1509.00, 
1510.00, 
1511.00, 
1512.00, 
1513.00, 
1514.00, 
1515.00, 
1516.00, 
1517.00, 
1518.00, 
1519.00, 
1520.00, 
1521.00, 
1522.00, 
1523.00, 
1524.00, 
1525.00, 
1526.00, 
1527.00, 
1528.00, 
1529.00, 
1530.00, 
1531.00, 
1532.00, 
1533.00, 
1534.00, 
1535.00, 
1536.00, 
1537.00, 
1538.00, 
1539.00, 
1540.00, 
1541.00, 
1542.00, 
1543.00, 
1544.00, 
1545.00, 
1546.00, 
1547.00, 
1548.00, 
1549.00, 
1550.00, 
1551.00, 
1552.00, 
1553.00, 
1554.00, 
1555.00, 
1556.00, 
1557.00, 
1558.00, 
1559.00, 
1560.00, 
1561.00, 
1562.00, 
1563.00, 
1564.00, 
1565.00, 
1566.00, 
1567.00, 
1568.00, 
1569.00, 
1570.00, 
1571.00, 
1572.00, 
1573.00, 
1574.00, 
1575.00, 
1576.00, 
1577.00, 
1578.00, 
1579.00, 
1580.00, 
1581.00, 
1582.00, 
1583.00, 
1584.00, 
1585.00, 
1586.00, 
1587.00, 
1588.00, 
1589.00, 
1590.00, 
1591.00, 
1592.00, 
1593.00, 
1594.00, 
1595.00, 
1596.00, 
1597.00, 
1598.00, 
1599.00, 
1600.00, 
1601.00, 
1602.00, 
1603.00, 
1604.00, 
1605.00, 
1606.00, 
1607.00, 
1608.00, 
1609.00, 
1610.00, 
1611.00, 
1612.00, 
1613.00, 
1614.00, 
1615.00, 
1616.00, 
1617.00, 
1618.00, 
1619.00, 
1620.00, 
1621.00, 
1622.00, 
1623.00, 
1624.00, 
1625.00, 
1626.00, 
1627.00, 
1628.00, 
1629.00, 
1630.00, 
1631.00, 
1632.00, 
1633.00, 
1634.00, 
1635.00, 
1636.00, 
1637.00, 
1638.00, 
1639.00, 
1640.00, 
1641.00, 
1642.00, 
1643.00, 
1644.00, 
1645.00, 
1646.00, 
1647.00, 
1648.00, 
1649.00, 
1650.00, 
1651.00, 
1652.00, 
1653.00, 
1654.00, 
1655.00, 
1656.00, 
1657.00, 
1658.00, 
1659.00, 
1660.00, 
1661.00, 
1662.00, 
1663.00, 
1664.00, 
1665.00, 
1666.00, 
1667.00, 
1668.00, 
1669.00, 
1670.00, 
1671.00, 
1672.00, 
1673.00, 
1674.00, 
1675.00, 
1676.00, 
1677.00, 
1678.00, 
1679.00, 
1680.00, 
1681.00, 
1682.00, 
1683.00, 
1684.00, 
1685.00, 
1686.00, 
1687.00, 
1688.00, 
1689.00, 
1690.00, 
1691.00, 
1692.00, 
1693.00, 
1694.00, 
1695.00, 
1696.00, 
1697.00, 
1698.00, 
1699.00, 
1700.00, 
1701.00, 
1702.00, 
1703.00, 
1704.00, 
1705.00, 
1706.00, 
1707.00, 
1708.00, 
1709.00, 
1710.00, 
1711.00, 
1712.00, 
1713.00, 
1714.00, 
1715.00, 
1716.00, 
1717.00, 
1718.00, 
1719.00, 
1720.00, 
1721.00, 
1722.00, 
1723.00, 
1724.00, 
1725.00, 
1726.00, 
1727.00, 
1728.00, 
1729.00, 
1730.00, 
1731.00, 
1732.00, 
1733.00, 
1734.00, 
1735.00, 
1736.00, 
1737.00, 
1738.00, 
1739.00, 
1740.00, 
1741.00, 
1742.00, 
1743.00, 
1744.00, 
1745.00, 
1746.00, 
1747.00, 
1748.00, 
1749.00, 
1750.00, 
1751.00, 
1752.00, 
1753.00, 
1754.00, 
1755.00, 
1756.00, 
1757.00, 
1758.00, 
1759.00, 
1760.00, 
1761.00, 
1762.00, 
1763.00, 
1764.00, 
1765.00, 
1766.00, 
1767.00, 
1768.00, 
1769.00, 
1770.00, 
1771.00, 
1772.00, 
1773.00, 
1774.00, 
1775.00, 
1776.00, 
1777.00, 
1778.00, 
1779.00, 
1780.00, 
1781.00, 
1782.00, 
1783.00, 
1784.00, 
1785.00, 
1786.00, 
1787.00, 
1788.00, 
1789.00, 
1790.00, 
1791.00, 
1792.00, 
1793.00, 
1794.00, 
1795.00, 
1796.00, 
1797.00, 
1798.00, 
1799.00, 
1800.00, 
1801.00, 
1802.00, 
1803.00, 
1804.00, 
1805.00, 
1806.00, 
1807.00, 
1808.00, 
1809.00, 
1810.00, 
1811.00, 
1812.00, 
1813.00, 
1814.00, 
1815.00, 
1816.00, 
1817.00, 
1818.00, 
1819.00, 
1820.00, 
1821.00, 
1822.00, 
1823.00, 
1824.00, 
1825.00, 
1826.00, 
1827.00, 
1828.00, 
1829.00, 
1830.00, 
1831.00, 
1832.00, 
1833.00, 
1834.00, 
1835.00, 
1836.00, 
1837.00, 
1838.00, 
1839.00, 
1840.00, 
1841.00, 
1842.00, 
1843.00, 
1844.00, 
1845.00, 
1846.00, 
1847.00, 
1848.00, 
1849.00, 
1850.00, 
1851.00, 
1852.00, 
1853.00, 
1854.00, 
1855.00, 
1856.00, 
1857.00, 
1858.00, 
1859.00, 
1860.00, 
1861.00, 
1862.00, 
1863.00, 
1864.00, 
1865.00, 
1866.00, 
1867.00, 
1868.00, 
1869.00, 
1870.00, 
1871.00, 
1872.00, 
1873.00, 
1874.00, 
1875.00, 
1876.00, 
1877.00, 
1878.00, 
1879.00, 
1880.00, 
1881.00, 
1882.00, 
1883.00, 
1884.00, 
1885.00, 
1886.00, 
1887.00, 
1888.00, 
1889.00, 
1890.00, 
1891.00, 
1892.00, 
1893.00, 
1894.00, 
1895.00, 
1896.00, 
1897.00, 
1898.00, 
1899.00, 
1900.00, 
1901.00, 
1902.00, 
1903.00, 
1904.00, 
1905.00, 
1906.00, 
1907.00, 
1908.00, 
1909.00, 
1910.00, 
1911.00, 
1912.00, 
1913.00, 
1914.00, 
1915.00, 
1916.00, 
1917.00, 
1918.00, 
1919.00, 
1920.00, 
1921.00, 
1922.00, 
1923.00, 
1924.00, 
1925.00, 
1926.00, 
1927.00, 
1928.00, 
1929.00, 
1930.00, 
1931.00, 
1932.00, 
1933.00, 
1934.00, 
1935.00, 
1936.00, 
1937.00, 
1938.00, 
1939.00, 
1940.00, 
1941.00, 
1942.00, 
1943.00, 
1944.00, 
1945.00, 
1946.00, 
1947.00, 
1948.00, 
1949.00, 
1950.00, 
1951.00, 
1952.00, 
1953.00, 
1954.00, 
1955.00, 
1956.00, 
1957.00, 
1958.00, 
1959.00, 
1960.00, 
1961.00, 
1962.00, 
1963.00, 
1964.00, 
1965.00, 
1966.00, 
1967.00, 
1968.00, 
1969.00, 
1970.00, 
1971.00, 
1972.00, 
1973.00, 
1974.00, 
1975.00, 
1976.00, 
1977.00, 
1978.00, 
1979.00, 
1980.00, 
1981.00, 
1982.00, 
1983.00, 
1984.00, 
1985.00, 
1986.00, 
1987.00, 
1988.00, 
1989.00, 
1990.00, 
1991.00, 
1992.00, 
1993.00, 
1994.00, 
1995.00, 
1996.00, 
1997.00, 
1998.00, 
1999.00, 
2000.00, 
2001.00, 
2002.00, 
2003.00, 
2004.00, 
2005.00, 
2006.00, 
2007.00, 
2008.00, 
2009.00, 
2010.00, 
2011.00, 
2012.00, 
2013.00, 
2014.00, 
2015.00, 
2016.00, 
2017.00, 
2018.00, 
2019.00, 
2020.00, 
2021.00, 
2022.00, 
2023.00, 
2024.00, 
2025.00, 
2026.00, 
2027.00, 
2028.00, 
2029.00, 
2030.00, 
2031.00, 
2032.00, 
2033.00, 
2034.00, 
2035.00, 
2036.00, 
2037.00, 
2038.00, 
2039.00, 
2040.00, 
2041.00, 
2042.00, 
2043.00, 
2044.00, 
2045.00, 
2046.00, 
2047.00, 
2048.00, 
2049.00, 
2050.00, 
2051.00, 
2052.00, 
2053.00, 
2054.00, 
2055.00, 
2056.00, 
2057.00, 
2058.00, 
2059.00, 
2060.00, 
2061.00, 
2062.00, 
2063.00, 
2064.00, 
2065.00, 
2066.00, 
2067.00, 
2068.00, 
2069.00, 
2070.00, 
2071.00, 
2072.00, 
2073.00, 
2074.00, 
2075.00, 
2076.00, 
2077.00, 
2078.00, 
2079.00, 
2080.00, 
2081.00, 
2082.00, 
2083.00, 
2084.00, 
2085.00, 
2086.00, 
2087.00, 
2088.00, 
2089.00, 
2090.00, 
2091.00, 
2092.00, 
2093.00, 
2094.00, 
2095.00, 
2096.00, 
2097.00, 
2098.00, 
2099.00, 
2100.00, 
2101.00, 
2102.00, 
2103.00, 
2104.00, 
2105.00, 
2106.00, 
2107.00, 
2108.00, 
2109.00, 
2110.00, 
2111.00, 
2112.00, 
2113.00, 
2114.00, 
2115.00, 
2116.00, 
2117.00, 
2118.00, 
2119.00, 
2120.00, 
2121.00, 
2122.00, 
2123.00, 
2124.00, 
2125.00, 
2126.00, 
2127.00, 
2128.00, 
2129.00, 
2130.00, 
2131.00, 
2132.00, 
2133.00, 
2134.00, 
2135.00, 
2136.00, 
2137.00, 
2138.00, 
2139.00, 
2140.00, 
2141.00, 
2142.00, 
2143.00, 
2144.00, 
2145.00, 
2146.00, 
2147.00, 
2148.00, 
2149.00, 
2150.00, 
2151.00, 
2152.00, 
2153.00, 
2154.00, 
2155.00, 
2156.00, 
2157.00, 
2158.00, 
2159.00, 
2160.00, 
2161.00, 
2162.00, 
2163.00, 
2164.00, 
2165.00, 
2166.00, 
2167.00, 
2168.00, 
2169.00, 
2170.00, 
2171.00, 
2172.00, 
2173.00, 
2174.00, 
2175.00, 
2176.00, 
2177.00, 
2178.00, 
2179.00, 
2180.00, 
2181.00, 
2182.00, 
2183.00, 
2184.00, 
2185.00, 
2186.00, 
2187.00, 
2188.00, 
2189.00, 
2190.00, 
2191.00, 
2192.00, 
2193.00, 
2194.00, 
2195.00, 
2196.00, 
2197.00, 
2198.00, 
2199.00, 
2200.00, 
2201.00, 
2202.00, 
2203.00, 
2204.00, 
2205.00, 
2206.00, 
2207.00, 
2208.00, 
2209.00, 
2210.00, 
2211.00, 
2212.00, 
2213.00, 
2214.00, 
2215.00, 
2216.00, 
2217.00, 
2218.00, 
2219.00, 
2220.00, 
2221.00, 
2222.00, 
2223.00, 
2224.00, 
2225.00, 
2226.00, 
2227.00, 
2228.00, 
2229.00, 
2230.00, 
2231.00, 
2232.00, 
2233.00, 
2234.00, 
2235.00, 
2236.00, 
2237.00, 
2238.00, 
2239.00, 
2240.00, 
2241.00, 
2242.00, 
2243.00, 
2244.00, 
2245.00, 
2246.00, 
2247.00, 
2248.00, 
2249.00, 
2250.00, 
2251.00, 
2252.00, 
2253.00, 
2254.00, 
2255.00, 
2256.00, 
2257.00, 
2258.00, 
2259.00, 
2260.00, 
2261.00, 
2262.00, 
2263.00, 
2264.00, 
2265.00, 
2266.00, 
2267.00, 
2268.00, 
2269.00, 
2270.00, 
2271.00, 
2272.00, 
2273.00, 
2274.00, 
2275.00, 
2276.00, 
2277.00, 
2278.00, 
2279.00, 
2280.00, 
2281.00, 
2282.00, 
2283.00, 
2284.00, 
2285.00, 
2286.00, 
2287.00, 
2288.00, 
2289.00, 
2290.00, 
2291.00, 
2292.00, 
2293.00, 
2294.00, 
2295.00, 
2296.00, 
2297.00, 
2298.00, 
2299.00, 
2300.00, 
2301.00, 
2302.00, 
2303.00, 
2304.00, 
2305.00, 
2306.00, 
2307.00, 
2308.00, 
2309.00, 
2310.00, 
2311.00, 
2312.00, 
2313.00, 
2314.00, 
2315.00, 
2316.00, 
2317.00, 
2318.00, 
2319.00, 
2320.00, 
2321.00, 
2322.00, 
2323.00, 
2324.00, 
2325.00, 
2326.00, 
2327.00, 
2328.00, 
2329.00, 
2330.00, 
2331.00, 
2332.00, 
2333.00, 
2334.00, 
2335.00, 
2336.00, 
2337.00, 
2338.00, 
2339.00, 
2340.00, 
2341.00, 
2342.00, 
2343.00, 
2344.00, 
2345.00, 
2346.00, 
2347.00, 
2348.00, 
2349.00, 
2350.00, 
2351.00, 
2352.00, 
2353.00, 
2354.00, 
2355.00, 
2356.00, 
2357.00, 
2358.00, 
2359.00, 
2360.00, 
2361.00, 
2362.00, 
2363.00, 
2364.00, 
2365.00, 
2366.00, 
2367.00, 
2368.00, 
2369.00, 
2370.00, 
2371.00, 
2372.00, 
2373.00, 
2374.00, 
2375.00, 
2376.00, 
2377.00, 
2378.00, 
2379.00, 
2380.00, 
2381.00, 
2382.00, 
2383.00, 
2384.00, 
2385.00, 
2386.00, 
2387.00, 
2388.00, 
2389.00, 
2390.00, 
2391.00, 
2392.00, 
2393.00, 
2394.00, 
2395.00, 
2396.00, 
2397.00, 
2398.00, 
2399.00, 
2400.00, 
2401.00, 
2402.00, 
2403.00, 
2404.00, 
2405.00, 
2406.00, 
2407.00, 
2408.00, 
2409.00, 
2410.00, 
2411.00, 
2412.00, 
2413.00, 
2414.00, 
2415.00, 
2416.00, 
2417.00, 
2418.00, 
2419.00, 
2420.00, 
2421.00, 
2422.00, 
2423.00, 
2424.00, 
2425.00, 
2426.00, 
2427.00, 
2428.00, 
2429.00, 
2430.00, 
2431.00, 
2432.00, 
2433.00, 
2434.00, 
2435.00, 
2436.00, 
2437.00, 
2438.00, 
2439.00, 
2440.00, 
2441.00, 
2442.00, 
2443.00, 
2444.00, 
2445.00, 
2446.00, 
2447.00, 
2448.00, 
2449.00, 
2450.00, 
2451.00, 
2452.00, 
2453.00, 
2454.00, 
2455.00, 
2456.00, 
2457.00, 
2458.00, 
2459.00, 
2460.00, 
2461.00, 
2462.00, 
2463.00, 
2464.00, 
2465.00, 
2466.00, 
2467.00, 
2468.00, 
2469.00, 
2470.00, 
2471.00, 
2472.00, 
2473.00, 
2474.00, 
2475.00, 
2476.00, 
2477.00, 
2478.00, 
2479.00, 
2480.00, 
2481.00, 
2482.00, 
2483.00, 
2484.00, 
2485.00, 
2486.00, 
2487.00, 
2488.00, 
2489.00, 
2490.00, 
2491.00, 
2492.00, 
2493.00, 
2494.00, 
2495.00, 
2496.00, 
2497.00, 
2498.00, 
2499.00, 
2500.00, 
2501.00, 
2502.00, 
2503.00, 
2504.00, 
2505.00, 
2506.00, 
2507.00, 
2508.00, 
2509.00, 
2510.00, 
2511.00, 
2512.00, 
2513.00, 
2514.00, 
2515.00, 
2516.00, 
2517.00, 
2518.00, 
2519.00, 
2520.00, 
2521.00, 
2522.00, 
2523.00, 
2524.00, 
2525.00, 
2526.00, 
2527.00, 
2528.00, 
2529.00, 
2530.00, 
2531.00, 
2532.00, 
2533.00, 
2534.00, 
2535.00, 
2536.00, 
2537.00, 
2538.00, 
2539.00, 
2540.00, 
2541.00, 
2542.00, 
2543.00, 
2544.00, 
2545.00, 
2546.00, 
2547.00, 
2548.00, 
2549.00, 
2550.00, 
2551.00, 
2552.00, 
2553.00, 
2554.00, 
2555.00, 
2556.00, 
2557.00, 
2558.00, 
2559.00, 
2560.00, 
2561.00, 
2562.00, 
2563.00, 
2564.00, 
2565.00, 
2566.00, 
2567.00, 
2568.00, 
2569.00, 
2570.00, 
2571.00, 
2572.00, 
2573.00, 
2574.00, 
2575.00, 
2576.00, 
2577.00, 
2578.00, 
2579.00, 
2580.00, 
2581.00, 
2582.00, 
2583.00, 
2584.00, 
2585.00, 
2586.00, 
2587.00, 
2588.00, 
2589.00, 
2590.00, 
2591.00, 
2592.00, 
2593.00, 
2594.00, 
2595.00, 
2596.00, 
2597.00, 
2598.00, 
2599.00, 
2600.00, 
