"2bP2 - RawData"
"Wavelength nm.","T%"
200.00,-0.001
201.00,-0.001
202.00,0.005
203.00,0.004
204.00,0.003
205.00,0.002
206.00,0.001
207.00,-0.000
208.00,0.001
209.00,0.003
210.00,-0.002
211.00,0.001
212.00,0.002
213.00,0.001
214.00,0.002
215.00,0.001
216.00,0.002
217.00,0.001
218.00,0.003
219.00,-0.001
220.00,0.003
221.00,-0.001
222.00,-0.000
223.00,-0.001
224.00,0.002
225.00,-0.002
226.00,0.002
227.00,0.002
228.00,0.000
229.00,-0.001
230.00,0.001
231.00,0.003
232.00,0.001
233.00,0.002
234.00,0.001
235.00,0.001
236.00,0.002
237.00,0.000
238.00,-0.000
239.00,0.000
240.00,0.002
241.00,-0.001
242.00,0.001
243.00,0.000
244.00,0.000
245.00,0.001
246.00,0.000
247.00,0.001
248.00,-0.001
249.00,0.001
250.00,0.002
251.00,0.001
252.00,0.001
253.00,-0.001
254.00,0.001
255.00,0.000
256.00,-0.000
257.00,0.000
258.00,0.000
259.00,0.001
260.00,0.003
261.00,0.001
262.00,-0.000
263.00,0.001
264.00,0.001
265.00,-0.000
266.00,-0.001
267.00,-0.001
268.00,0.001
269.00,-0.001
270.00,0.000
271.00,-0.001
272.00,0.001
273.00,0.000
274.00,0.001
275.00,0.001
276.00,0.001
277.00,-0.000
278.00,0.000
279.00,-0.000
280.00,0.001
281.00,-0.000
282.00,-0.001
283.00,0.001
284.00,0.001
285.00,0.002
286.00,0.001
287.00,0.001
288.00,0.001
289.00,-0.000
290.00,0.001
291.00,-0.000
292.00,-0.000
293.00,0.001
294.00,-0.001
295.00,0.001
296.00,-0.001
297.00,0.000
298.00,0.000
299.00,0.002
300.00,0.004
301.00,0.002
302.00,0.006
303.00,0.012
304.00,0.016
305.00,0.025
306.00,0.039
307.00,0.055
308.00,0.090
309.00,0.131
310.00,0.174
311.00,0.241
312.00,0.336
313.00,0.451
314.00,0.583
315.00,0.748
316.00,0.951
317.00,1.201
318.00,1.478
319.00,1.781
320.00,2.159
321.00,2.582
322.00,3.041
323.00,3.563
324.00,4.108
325.00,4.661
326.00,5.245
327.00,5.908
328.00,6.558
329.00,7.242
330.00,7.966
331.00,8.654
332.00,9.402
333.00,10.166
334.00,10.869
335.00,11.638
336.00,12.375
337.00,13.108
338.00,13.838
339.00,14.471
340.00,15.204
341.00,15.845
342.00,16.467
343.00,17.027
344.00,17.605
345.00,18.179
346.00,18.675
347.00,19.182
348.00,19.670
349.00,20.089
350.00,20.517
351.00,20.888
352.00,21.192
353.00,21.568
354.00,21.816
355.00,22.185
356.00,22.460
357.00,22.718
358.00,22.926
359.00,23.165
360.00,23.390
361.00,23.565
362.00,23.782
363.00,23.934
364.00,24.004
365.00,24.140
366.00,24.248
367.00,24.374
368.00,24.388
369.00,24.440
370.00,24.504
371.00,24.533
372.00,24.515
373.00,24.554
374.00,24.558
375.00,24.573
376.00,24.519
377.00,24.493
378.00,24.426
379.00,24.360
380.00,24.356
381.00,24.371
382.00,24.332
383.00,24.340
384.00,24.398
385.00,24.397
386.00,24.395
387.00,24.502
388.00,24.543
389.00,24.523
390.00,24.584
391.00,24.627
392.00,24.630
393.00,24.607
394.00,24.671
395.00,24.698
396.00,24.699
397.00,24.668
398.00,24.691
399.00,24.692
400.00,24.670
401.00,24.725
402.00,24.726
403.00,24.671
404.00,24.691
405.00,24.674
406.00,24.692
407.00,24.626
408.00,24.614
409.00,24.600
410.00,24.553
411.00,24.528
412.00,24.509
413.00,24.517
414.00,24.498
415.00,24.525
416.00,24.575
417.00,24.525
418.00,24.546
419.00,24.604
420.00,24.668
421.00,24.713
422.00,24.686
423.00,24.753
424.00,24.803
425.00,24.830
426.00,24.847
427.00,24.882
428.00,24.942
429.00,24.971
430.00,25.024
431.00,25.119
432.00,25.107
433.00,25.183
434.00,25.272
435.00,25.310
436.00,25.391
437.00,25.433
438.00,25.511
439.00,25.591
440.00,25.655
441.00,25.731
442.00,25.827
443.00,25.893
444.00,26.026
445.00,26.066
446.00,26.174
447.00,26.284
448.00,26.399
449.00,26.454
450.00,26.566
451.00,26.654
452.00,26.741
453.00,26.920
454.00,26.992
455.00,27.071
456.00,27.209
457.00,27.320
458.00,27.441
459.00,27.537
460.00,27.677
461.00,27.823
462.00,27.923
463.00,28.016
464.00,28.147
465.00,28.257
466.00,28.412
467.00,28.552
468.00,28.672
469.00,28.729
470.00,28.799
471.00,28.929
472.00,29.108
473.00,29.143
474.00,29.315
475.00,29.425
476.00,29.515
477.00,29.642
478.00,29.789
479.00,29.955
480.00,30.110
481.00,30.248
482.00,30.344
483.00,30.500
484.00,30.660
485.00,30.794
486.00,30.984
487.00,31.105
488.00,31.212
489.00,31.390
490.00,31.546
491.00,31.641
492.00,31.758
493.00,31.933
494.00,32.084
495.00,32.154
496.00,32.244
497.00,32.372
498.00,32.502
499.00,32.602
500.00,32.826
501.00,32.903
502.00,33.069
503.00,33.119
504.00,33.247
505.00,33.366
506.00,33.485
507.00,33.587
508.00,33.706
509.00,33.861
510.00,33.995
511.00,34.070
512.00,34.210
513.00,34.340
514.00,34.411
515.00,34.585
516.00,34.688
517.00,34.736
518.00,34.913
519.00,34.973
520.00,35.019
521.00,35.127
522.00,35.208
523.00,35.269
524.00,35.362
525.00,35.476
526.00,35.549
527.00,35.590
528.00,35.659
529.00,35.829
530.00,36.036
531.00,36.108
532.00,36.159
533.00,36.291
534.00,36.335
535.00,36.392
536.00,36.494
537.00,36.564
538.00,36.662
539.00,36.722
540.00,36.783
541.00,36.810
542.00,36.893
543.00,36.980
544.00,37.018
545.00,37.097
546.00,37.120
547.00,37.241
548.00,37.303
549.00,37.319
550.00,37.436
551.00,37.556
552.00,37.566
553.00,37.681
554.00,37.715
555.00,37.639
556.00,37.740
557.00,37.882
558.00,37.900
559.00,37.960
560.00,38.029
561.00,38.096
562.00,38.161
563.00,38.169
564.00,38.213
565.00,38.243
566.00,38.300
567.00,38.314
568.00,38.339
569.00,38.461
570.00,38.460
571.00,38.507
572.00,38.499
573.00,38.510
574.00,38.544
575.00,38.577
576.00,38.616
577.00,38.644
578.00,38.795
579.00,38.791
580.00,38.829
581.00,39.005
582.00,39.036
583.00,39.023
584.00,39.112
585.00,39.182
586.00,39.254
587.00,39.324
588.00,39.316
589.00,39.289
590.00,39.439
591.00,39.480
592.00,39.415
593.00,39.459
594.00,39.565
595.00,39.693
596.00,39.724
597.00,39.743
598.00,39.818
599.00,39.839
600.00,39.889
601.00,39.921
602.00,39.905
603.00,39.920
604.00,40.003
605.00,40.080
606.00,40.141
607.00,40.099
608.00,40.140
609.00,40.231
610.00,40.378
611.00,40.368
612.00,40.263
613.00,40.344
614.00,40.326
615.00,40.394
616.00,40.593
617.00,40.514
618.00,40.576
619.00,40.614
620.00,40.661
621.00,40.763
622.00,40.747
623.00,40.812
624.00,40.925
625.00,40.948
626.00,41.031
627.00,41.081
628.00,41.068
629.00,41.037
630.00,41.192
631.00,41.411
632.00,41.392
633.00,41.512
634.00,41.512
635.00,41.677
636.00,41.710
637.00,41.690
638.00,41.740
639.00,41.880
640.00,41.892
641.00,41.972
642.00,41.995
643.00,41.989
644.00,42.028
645.00,42.228
646.00,42.437
647.00,42.405
648.00,42.427
649.00,42.449
650.00,42.444
651.00,42.726
652.00,42.717
653.00,42.747
654.00,42.826
655.00,43.014
656.00,43.271
657.00,42.817
658.00,43.136
659.00,43.367
660.00,43.366
661.00,43.283
662.00,43.517
663.00,43.575
664.00,43.779
665.00,43.955
666.00,43.782
667.00,43.907
668.00,44.054
669.00,44.236
670.00,44.447
671.00,44.332
672.00,44.405
673.00,44.544
674.00,44.536
675.00,44.597
676.00,44.803
677.00,44.930
678.00,44.821
679.00,44.993
680.00,45.094
681.00,45.257
682.00,45.267
683.00,45.264
684.00,45.328
685.00,45.463
686.00,45.486
687.00,45.632
688.00,45.716
689.00,45.638
690.00,45.823
691.00,46.133
692.00,46.000
693.00,45.974
694.00,46.169
695.00,46.416
696.00,46.412
697.00,46.280
698.00,46.381
699.00,46.544
700.00,46.595
701.00,46.601
702.00,46.710
703.00,46.958
704.00,46.959
705.00,46.919
706.00,47.069
707.00,47.054
708.00,47.000
709.00,47.355
710.00,47.816
711.00,47.170
712.00,47.371
713.00,47.567
714.00,47.418
715.00,47.462
716.00,47.572
717.00,47.624
718.00,47.849
719.00,47.829
720.00,47.678
721.00,52.474
722.00,52.450
723.00,52.462
724.00,52.524
725.00,52.609
726.00,52.516
727.00,52.585
728.00,52.539
729.00,52.595
730.00,52.610
731.00,52.719
732.00,52.687
733.00,52.749
734.00,52.806
735.00,52.779
736.00,52.758
737.00,52.823
738.00,52.908
739.00,52.971
740.00,52.905
741.00,52.960
742.00,52.913
743.00,52.907
744.00,52.929
745.00,52.995
746.00,53.003
747.00,52.963
748.00,52.969
749.00,52.949
750.00,52.912
751.00,52.949
752.00,52.958
753.00,53.004
754.00,52.977
755.00,52.951
756.00,53.020
757.00,53.006
758.00,53.083
759.00,52.983
760.00,53.011
761.00,53.051
762.00,53.074
763.00,53.078
764.00,53.094
765.00,53.034
766.00,53.118
767.00,53.128
768.00,53.113
769.00,53.120
770.00,53.140
771.00,53.164
772.00,53.233
773.00,53.173
774.00,53.210
775.00,53.167
776.00,53.243
777.00,53.168
778.00,53.202
779.00,53.226
780.00,53.155
781.00,53.138
782.00,53.175
783.00,53.159
784.00,53.218
785.00,53.131
786.00,53.198
787.00,53.182
788.00,53.190
789.00,53.102
790.00,53.107
791.00,53.210
792.00,53.041
793.00,53.148
794.00,53.040
795.00,53.141
796.00,53.036
797.00,52.976
798.00,53.116
799.00,53.018
800.00,53.012
801.00,53.016
802.00,53.051
803.00,52.942
804.00,52.934
805.00,52.968
806.00,52.939
807.00,52.942
808.00,52.872
809.00,52.897
810.00,52.835
811.00,52.867
812.00,52.884
813.00,52.819
814.00,52.889
815.00,52.862
816.00,52.856
817.00,52.822
818.00,52.705
819.00,52.768
820.00,52.724
821.00,52.781
822.00,52.699
823.00,52.662
824.00,52.732
825.00,52.729
826.00,52.652
827.00,52.644
828.00,52.792
829.00,52.674
830.00,52.724
831.00,55.017
832.00,55.003
833.00,54.969
834.00,54.969
835.00,54.932
836.00,54.964
837.00,54.905
838.00,54.904
839.00,54.864
840.00,54.826
841.00,54.864
842.00,54.843
843.00,54.828
844.00,54.793
845.00,54.763
846.00,54.775
847.00,54.741
848.00,54.704
849.00,54.653
850.00,54.637
851.00,54.599
852.00,54.593
853.00,54.532
854.00,54.555
855.00,54.505
856.00,54.527
857.00,54.437
858.00,54.432
859.00,54.424
860.00,54.401
861.00,54.390
862.00,54.336
863.00,54.350
864.00,54.310
865.00,54.328
866.00,54.281
867.00,54.299
868.00,54.274
869.00,54.271
870.00,54.264
871.00,54.266
872.00,54.244
873.00,54.272
874.00,54.234
875.00,54.136
876.00,54.235
877.00,54.194
878.00,54.195
879.00,54.165
880.00,54.160
881.00,54.135
882.00,54.146
883.00,54.116
884.00,54.093
885.00,54.066
886.00,54.061
887.00,54.024
888.00,54.010
889.00,54.001
890.00,53.964
891.00,53.928
892.00,53.961
893.00,53.916
894.00,53.913
895.00,53.886
896.00,53.872
897.00,53.846
898.00,53.818
899.00,53.831
900.00,53.817
901.00,53.795
902.00,53.783
903.00,53.747
904.00,53.736
905.00,53.725
906.00,53.743
907.00,53.710
908.00,53.656
909.00,53.660
910.00,53.625
911.00,53.598
912.00,53.636
913.00,53.579
914.00,53.555
915.00,53.538
916.00,53.522
917.00,53.478
918.00,53.501
919.00,53.444
920.00,53.401
921.00,53.406
922.00,53.403
923.00,53.380
924.00,53.380
925.00,53.361
926.00,53.390
927.00,53.364
928.00,53.310
929.00,53.302
930.00,53.283
931.00,53.280
932.00,53.242
933.00,53.245
934.00,53.304
935.00,53.193
936.00,53.154
937.00,53.136
938.00,53.129
939.00,53.106
940.00,53.111
941.00,53.100
942.00,53.056
943.00,53.054
944.00,53.006
945.00,53.018
946.00,53.008
947.00,52.971
948.00,52.961
949.00,52.929
950.00,52.893
951.00,52.904
952.00,52.876
953.00,52.828
954.00,52.827
955.00,52.777
956.00,52.767
957.00,52.723
958.00,52.723
959.00,52.704
960.00,52.675
961.00,52.670
962.00,52.680
963.00,52.624
964.00,52.634
965.00,52.618
966.00,52.586
967.00,52.639
968.00,52.588
969.00,52.600
970.00,52.582
971.00,52.604
972.00,52.567
973.00,52.600
974.00,52.604
975.00,52.572
976.00,52.589
977.00,52.575
978.00,52.615
979.00,52.581
980.00,52.594
981.00,52.548
982.00,52.549
983.00,52.566
984.00,52.565
985.00,52.584
986.00,52.523
987.00,52.548
988.00,52.514
989.00,52.514
990.00,52.507
991.00,52.476
992.00,52.521
993.00,52.476
994.00,52.466
995.00,52.462
996.00,52.456
997.00,52.438
998.00,52.412
999.00,52.420
1000.00,52.373
1001.00,52.378
1002.00,52.345
1003.00,52.357
1004.00,52.326
1005.00,52.299
1006.00,52.335
1007.00,52.301
1008.00,52.286
1009.00,52.270
1010.00,52.270
1011.00,52.261
1012.00,52.235
1013.00,52.244
1014.00,52.199
1015.00,52.220
1016.00,52.162
1017.00,52.172
1018.00,52.142
1019.00,52.112
1020.00,52.129
1021.00,52.102
1022.00,52.099
1023.00,52.062
1024.00,52.054
1025.00,52.054
1026.00,52.037
1027.00,52.008
1028.00,52.058
1029.00,51.994
1030.00,51.958
1031.00,51.981
1032.00,51.916
1033.00,51.919
1034.00,51.905
1035.00,51.855
1036.00,51.834
1037.00,51.836
1038.00,51.809
1039.00,51.784
1040.00,51.784
1041.00,51.751
1042.00,51.769
1043.00,51.709
1044.00,51.737
1045.00,51.721
1046.00,51.692
1047.00,51.714
1048.00,51.743
1049.00,51.743
1050.00,51.753
1051.00,51.774
1052.00,51.778
1053.00,51.788
1054.00,51.789
1055.00,51.826
1056.00,51.847
1057.00,51.820
1058.00,51.837
1059.00,51.797
1060.00,51.794
1061.00,51.784
1062.00,51.771
1063.00,51.768
1064.00,51.763
1065.00,51.754
1066.00,51.728
1067.00,51.726
1068.00,51.739
1069.00,51.711
1070.00,51.700
1071.00,51.679
1072.00,51.718
1073.00,51.693
1074.00,51.683
1075.00,51.685
1076.00,51.682
1077.00,51.653
1078.00,51.649
1079.00,51.632
1080.00,51.637
1081.00,51.618
1082.00,51.610
1083.00,51.615
1084.00,51.604
1085.00,51.602
1086.00,51.606
1087.00,51.589
1088.00,51.587
1089.00,51.578
1090.00,51.560
1091.00,51.561
1092.00,51.554
1093.00,51.516
1094.00,51.520
1095.00,51.515
1096.00,51.497
1097.00,51.495
1098.00,51.476
1099.00,51.473
1100.00,51.461
1101.00,51.434
1102.00,51.436
1103.00,51.444
1104.00,51.446
1105.00,51.405
1106.00,51.394
1107.00,51.385
1108.00,51.404
1109.00,51.375
1110.00,51.358
1111.00,51.359
1112.00,51.331
1113.00,51.335
1114.00,51.334
1115.00,51.331
1116.00,51.341
1117.00,51.316
1118.00,51.307
1119.00,51.317
1120.00,51.302
1121.00,51.293
1122.00,51.276
1123.00,51.261
1124.00,51.275
1125.00,51.257
1126.00,51.250
1127.00,51.268
1128.00,51.249
1129.00,51.225
1130.00,51.233
1131.00,51.222
1132.00,51.215
1133.00,51.226
1134.00,51.181
1135.00,51.182
1136.00,51.195
1137.00,51.187
1138.00,51.191
1139.00,51.199
1140.00,51.189
1141.00,51.182
1142.00,51.201
1143.00,51.195
1144.00,51.160
1145.00,51.150
1146.00,51.162
1147.00,51.147
1148.00,51.129
1149.00,51.148
1150.00,51.149
1151.00,51.144
1152.00,51.131
1153.00,51.119
1154.00,51.113
1155.00,51.120
1156.00,51.101
1157.00,51.108
1158.00,51.103
1159.00,51.087
1160.00,51.087
1161.00,51.100
1162.00,51.090
1163.00,51.102
1164.00,51.086
1165.00,51.081
1166.00,51.091
1167.00,51.067
1168.00,51.086
1169.00,51.083
1170.00,51.073
1171.00,51.065
1172.00,51.063
1173.00,51.054
1174.00,51.077
1175.00,51.059
1176.00,51.054
1177.00,51.034
1178.00,51.035
1179.00,51.058
1180.00,51.044
1181.00,51.042
1182.00,51.052
1183.00,51.040
1184.00,51.024
1185.00,51.051
1186.00,51.036
1187.00,51.038
1188.00,51.034
1189.00,51.023
1190.00,51.023
1191.00,51.025
1192.00,51.024
1193.00,51.041
1194.00,51.040
1195.00,51.008
1196.00,51.052
1197.00,51.046
1198.00,51.025
1199.00,51.011
1200.00,51.011
1201.00,51.032
1202.00,51.015
1203.00,51.006
1204.00,51.010
1205.00,51.028
1206.00,51.000
1207.00,51.028
1208.00,51.000
1209.00,51.006
1210.00,51.002
1211.00,50.989
1212.00,51.012
1213.00,50.978
1214.00,50.999
1215.00,50.985
1216.00,51.007
1217.00,51.004
1218.00,51.004
1219.00,51.007
1220.00,50.997
1221.00,51.024
1222.00,50.986
1223.00,51.026
1224.00,51.013
1225.00,50.997
1226.00,51.025
1227.00,50.992
1228.00,51.000
1229.00,51.014
1230.00,51.040
1231.00,51.038
1232.00,51.053
1233.00,51.033
1234.00,51.044
1235.00,51.039
1236.00,51.029
1237.00,51.036
1238.00,51.055
1239.00,51.036
1240.00,51.028
1241.00,51.041
1242.00,51.034
1243.00,51.052
1244.00,50.997
1245.00,51.045
1246.00,51.066
1247.00,51.031
1248.00,51.046
1249.00,51.058
1250.00,51.058
1251.00,51.069
1252.00,51.061
1253.00,51.050
1254.00,51.082
1255.00,51.070
1256.00,51.107
1257.00,51.103
1258.00,51.071
1259.00,51.078
1260.00,51.109
1261.00,51.104
1262.00,51.101
1263.00,51.089
1264.00,51.098
1265.00,51.113
1266.00,51.103
1267.00,51.121
1268.00,51.126
1269.00,51.109
1270.00,51.145
1271.00,51.143
1272.00,51.135
1273.00,51.161
1274.00,51.158
1275.00,51.156
1276.00,51.154
1277.00,51.137
1278.00,51.166
1279.00,51.162
1280.00,51.162
1281.00,51.197
1282.00,51.208
1283.00,51.199
1284.00,51.205
1285.00,51.190
1286.00,51.195
1287.00,51.198
1288.00,51.191
1289.00,51.196
1290.00,51.229
1291.00,51.206
1292.00,51.217
1293.00,51.206
1294.00,51.209
1295.00,51.235
1296.00,51.226
1297.00,51.243
1298.00,51.267
1299.00,51.230
1300.00,51.254
1301.00,51.243
1302.00,51.252
1303.00,51.269
1304.00,51.234
1305.00,51.261
1306.00,51.283
1307.00,51.265
1308.00,51.289
1309.00,51.292
1310.00,51.280
1311.00,51.279
1312.00,51.296
1313.00,51.311
1314.00,51.336
1315.00,51.336
1316.00,51.317
1317.00,51.351
1318.00,51.339
1319.00,51.328
1320.00,51.354
1321.00,51.508
1322.00,51.511
1323.00,51.493
1324.00,51.467
1325.00,51.476
1326.00,51.498
1327.00,51.476
1328.00,51.482
1329.00,51.473
1330.00,51.496
1331.00,51.501
1332.00,51.486
1333.00,51.502
1334.00,51.527
1335.00,51.533
1336.00,51.555
1337.00,51.584
1338.00,51.634
1339.00,51.694
1340.00,51.746
1341.00,51.805
1342.00,51.879
1343.00,51.913
1344.00,51.969
1345.00,52.030
1346.00,52.056
1347.00,52.097
1348.00,52.105
1349.00,52.120
1350.00,52.138
1351.00,52.167
1352.00,52.154
1353.00,52.230
1354.00,52.152
1355.00,52.137
1356.00,52.242
1357.00,52.196
1358.00,52.211
1359.00,52.221
1360.00,52.219
1361.00,52.148
1362.00,52.095
1363.00,52.280
1364.00,52.321
1365.00,52.232
1366.00,52.280
1367.00,52.223
1368.00,52.126
1369.00,52.209
1370.00,52.159
1371.00,52.140
1372.00,52.175
1373.00,52.207
1374.00,52.173
1375.00,52.197
1376.00,52.167
1377.00,52.155
1378.00,52.316
1379.00,52.198
1380.00,52.163
1381.00,52.197
1382.00,52.243
1383.00,52.192
1384.00,52.150
1385.00,52.059
1386.00,52.195
1387.00,52.129
1388.00,52.105
1389.00,52.043
1390.00,52.234
1391.00,52.152
1392.00,52.142
1393.00,52.195
1394.00,52.177
1395.00,52.142
1396.00,52.104
1397.00,52.082
1398.00,52.179
1399.00,52.214
1400.00,52.170
1401.00,52.116
1402.00,52.218
1403.00,52.141
1404.00,52.127
1405.00,52.226
1406.00,52.170
1407.00,52.199
1408.00,52.221
1409.00,52.169
1410.00,52.206
1411.00,52.189
1412.00,52.245
1413.00,52.202
1414.00,52.212
1415.00,52.238
1416.00,52.289
1417.00,52.416
1418.00,52.317
1419.00,52.243
1420.00,52.261
1421.00,52.291
1422.00,52.304
1423.00,52.298
1424.00,52.377
1425.00,52.351
1426.00,52.360
1427.00,52.380
1428.00,52.400
1429.00,52.408
1430.00,52.399
1431.00,52.429
1432.00,52.455
1433.00,52.451
1434.00,52.452
1435.00,52.527
1436.00,52.519
1437.00,52.492
1438.00,52.536
1439.00,52.558
1440.00,52.549
1441.00,52.553
1442.00,52.555
1443.00,52.612
1444.00,52.659
1445.00,52.602
1446.00,52.607
1447.00,52.645
1448.00,52.670
1449.00,52.700
1450.00,52.701
1451.00,52.746
1452.00,52.740
1453.00,52.738
1454.00,52.758
1455.00,52.783
1456.00,52.773
1457.00,52.798
1458.00,52.821
1459.00,52.824
1460.00,52.852
1461.00,52.867
1462.00,52.876
1463.00,52.891
1464.00,52.900
1465.00,52.920
1466.00,52.926
1467.00,52.946
1468.00,53.040
1469.00,52.979
1470.00,52.977
1471.00,53.016
1472.00,53.005
1473.00,53.018
1474.00,53.055
1475.00,53.044
1476.00,53.069
1477.00,53.070
1478.00,53.067
1479.00,53.109
1480.00,53.089
1481.00,53.093
1482.00,53.143
1483.00,53.145
1484.00,53.172
1485.00,53.168
1486.00,53.148
1487.00,53.200
1488.00,53.232
1489.00,53.216
1490.00,53.237
1491.00,53.241
1492.00,53.257
1493.00,53.258
1494.00,53.285
1495.00,53.272
1496.00,53.290
1497.00,53.282
1498.00,53.296
1499.00,53.304
1500.00,53.304
1501.00, 
1502.00, 
1503.00, 
1504.00, 
1505.00, 
1506.00, 
1507.00, 
1508.00, 
1509.00, 
1510.00, 
1511.00, 
1512.00, 
1513.00, 
1514.00, 
1515.00, 
1516.00, 
1517.00, 
1518.00, 
1519.00, 
1520.00, 
1521.00, 
1522.00, 
1523.00, 
1524.00, 
1525.00, 
1526.00, 
1527.00, 
1528.00, 
1529.00, 
1530.00, 
1531.00, 
1532.00, 
1533.00, 
1534.00, 
1535.00, 
1536.00, 
1537.00, 
1538.00, 
1539.00, 
1540.00, 
1541.00, 
1542.00, 
1543.00, 
1544.00, 
1545.00, 
1546.00, 
1547.00, 
1548.00, 
1549.00, 
1550.00, 
1551.00, 
1552.00, 
1553.00, 
1554.00, 
1555.00, 
1556.00, 
1557.00, 
1558.00, 
1559.00, 
1560.00, 
1561.00, 
1562.00, 
1563.00, 
1564.00, 
1565.00, 
1566.00, 
1567.00, 
1568.00, 
1569.00, 
1570.00, 
1571.00, 
1572.00, 
1573.00, 
1574.00, 
1575.00, 
1576.00, 
1577.00, 
1578.00, 
1579.00, 
1580.00, 
1581.00, 
1582.00, 
1583.00, 
1584.00, 
1585.00, 
1586.00, 
1587.00, 
1588.00, 
1589.00, 
1590.00, 
1591.00, 
1592.00, 
1593.00, 
1594.00, 
1595.00, 
1596.00, 
1597.00, 
1598.00, 
1599.00, 
1600.00, 
1601.00, 
1602.00, 
1603.00, 
1604.00, 
1605.00, 
1606.00, 
1607.00, 
1608.00, 
1609.00, 
1610.00, 
1611.00, 
1612.00, 
1613.00, 
1614.00, 
1615.00, 
1616.00, 
1617.00, 
1618.00, 
1619.00, 
1620.00, 
1621.00, 
1622.00, 
1623.00, 
1624.00, 
1625.00, 
1626.00, 
1627.00, 
1628.00, 
1629.00, 
1630.00, 
1631.00, 
1632.00, 
1633.00, 
1634.00, 
1635.00, 
1636.00, 
1637.00, 
1638.00, 
1639.00, 
1640.00, 
1641.00, 
1642.00, 
1643.00, 
1644.00, 
1645.00, 
1646.00, 
1647.00, 
1648.00, 
1649.00, 
1650.00, 
1651.00, 
1652.00, 
1653.00, 
1654.00, 
1655.00, 
1656.00, 
1657.00, 
1658.00, 
1659.00, 
1660.00, 
1661.00, 
1662.00, 
1663.00, 
1664.00, 
1665.00, 
1666.00, 
1667.00, 
1668.00, 
1669.00, 
1670.00, 
1671.00, 
1672.00, 
1673.00, 
1674.00, 
1675.00, 
1676.00, 
1677.00, 
1678.00, 
1679.00, 
1680.00, 
1681.00, 
1682.00, 
1683.00, 
1684.00, 
1685.00, 
1686.00, 
1687.00, 
1688.00, 
1689.00, 
1690.00, 
1691.00, 
1692.00, 
1693.00, 
1694.00, 
1695.00, 
1696.00, 
1697.00, 
1698.00, 
1699.00, 
1700.00, 
1701.00, 
1702.00, 
1703.00, 
1704.00, 
1705.00, 
1706.00, 
1707.00, 
1708.00, 
1709.00, 
1710.00, 
1711.00, 
1712.00, 
1713.00, 
1714.00, 
1715.00, 
1716.00, 
1717.00, 
1718.00, 
1719.00, 
1720.00, 
1721.00, 
1722.00, 
1723.00, 
1724.00, 
1725.00, 
1726.00, 
1727.00, 
1728.00, 
1729.00, 
1730.00, 
1731.00, 
1732.00, 
1733.00, 
1734.00, 
1735.00, 
1736.00, 
1737.00, 
1738.00, 
1739.00, 
1740.00, 
1741.00, 
1742.00, 
1743.00, 
1744.00, 
1745.00, 
1746.00, 
1747.00, 
1748.00, 
1749.00, 
1750.00, 
1751.00, 
1752.00, 
1753.00, 
1754.00, 
1755.00, 
1756.00, 
1757.00, 
1758.00, 
1759.00, 
1760.00, 
1761.00, 
1762.00, 
1763.00, 
1764.00, 
1765.00, 
1766.00, 
1767.00, 
1768.00, 
1769.00, 
1770.00, 
1771.00, 
1772.00, 
1773.00, 
1774.00, 
1775.00, 
1776.00, 
1777.00, 
1778.00, 
1779.00, 
1780.00, 
1781.00, 
1782.00, 
1783.00, 
1784.00, 
1785.00, 
1786.00, 
1787.00, 
1788.00, 
1789.00, 
1790.00, 
1791.00, 
1792.00, 
1793.00, 
1794.00, 
1795.00, 
1796.00, 
1797.00, 
1798.00, 
1799.00, 
1800.00, 
1801.00, 
1802.00, 
1803.00, 
1804.00, 
1805.00, 
1806.00, 
1807.00, 
1808.00, 
1809.00, 
1810.00, 
1811.00, 
1812.00, 
1813.00, 
1814.00, 
1815.00, 
1816.00, 
1817.00, 
1818.00, 
1819.00, 
1820.00, 
1821.00, 
1822.00, 
1823.00, 
1824.00, 
1825.00, 
1826.00, 
1827.00, 
1828.00, 
1829.00, 
1830.00, 
1831.00, 
1832.00, 
1833.00, 
1834.00, 
1835.00, 
1836.00, 
1837.00, 
1838.00, 
1839.00, 
1840.00, 
1841.00, 
1842.00, 
1843.00, 
1844.00, 
1845.00, 
1846.00, 
1847.00, 
1848.00, 
1849.00, 
1850.00, 
1851.00, 
1852.00, 
1853.00, 
1854.00, 
1855.00, 
1856.00, 
1857.00, 
1858.00, 
1859.00, 
1860.00, 
1861.00, 
1862.00, 
1863.00, 
1864.00, 
1865.00, 
1866.00, 
1867.00, 
1868.00, 
1869.00, 
1870.00, 
1871.00, 
1872.00, 
1873.00, 
1874.00, 
1875.00, 
1876.00, 
1877.00, 
1878.00, 
1879.00, 
1880.00, 
1881.00, 
1882.00, 
1883.00, 
1884.00, 
1885.00, 
1886.00, 
1887.00, 
1888.00, 
1889.00, 
1890.00, 
1891.00, 
1892.00, 
1893.00, 
1894.00, 
1895.00, 
1896.00, 
1897.00, 
1898.00, 
1899.00, 
1900.00, 
1901.00, 
1902.00, 
1903.00, 
1904.00, 
1905.00, 
1906.00, 
1907.00, 
1908.00, 
1909.00, 
1910.00, 
1911.00, 
1912.00, 
1913.00, 
1914.00, 
1915.00, 
1916.00, 
1917.00, 
1918.00, 
1919.00, 
1920.00, 
1921.00, 
1922.00, 
1923.00, 
1924.00, 
1925.00, 
1926.00, 
1927.00, 
1928.00, 
1929.00, 
1930.00, 
1931.00, 
1932.00, 
1933.00, 
1934.00, 
1935.00, 
1936.00, 
1937.00, 
1938.00, 
1939.00, 
1940.00, 
1941.00, 
1942.00, 
1943.00, 
1944.00, 
1945.00, 
1946.00, 
1947.00, 
1948.00, 
1949.00, 
1950.00, 
1951.00, 
1952.00, 
1953.00, 
1954.00, 
1955.00, 
1956.00, 
1957.00, 
1958.00, 
1959.00, 
1960.00, 
1961.00, 
1962.00, 
1963.00, 
1964.00, 
1965.00, 
1966.00, 
1967.00, 
1968.00, 
1969.00, 
1970.00, 
1971.00, 
1972.00, 
1973.00, 
1974.00, 
1975.00, 
1976.00, 
1977.00, 
1978.00, 
1979.00, 
1980.00, 
1981.00, 
1982.00, 
1983.00, 
1984.00, 
1985.00, 
1986.00, 
1987.00, 
1988.00, 
1989.00, 
1990.00, 
1991.00, 
1992.00, 
1993.00, 
1994.00, 
1995.00, 
1996.00, 
1997.00, 
1998.00, 
1999.00, 
2000.00, 
2001.00, 
2002.00, 
2003.00, 
2004.00, 
2005.00, 
2006.00, 
2007.00, 
2008.00, 
2009.00, 
2010.00, 
2011.00, 
2012.00, 
2013.00, 
2014.00, 
2015.00, 
2016.00, 
2017.00, 
2018.00, 
2019.00, 
2020.00, 
2021.00, 
2022.00, 
2023.00, 
2024.00, 
2025.00, 
2026.00, 
2027.00, 
2028.00, 
2029.00, 
2030.00, 
2031.00, 
2032.00, 
2033.00, 
2034.00, 
2035.00, 
2036.00, 
2037.00, 
2038.00, 
2039.00, 
2040.00, 
2041.00, 
2042.00, 
2043.00, 
2044.00, 
2045.00, 
2046.00, 
2047.00, 
2048.00, 
2049.00, 
2050.00, 
2051.00, 
2052.00, 
2053.00, 
2054.00, 
2055.00, 
2056.00, 
2057.00, 
2058.00, 
2059.00, 
2060.00, 
2061.00, 
2062.00, 
2063.00, 
2064.00, 
2065.00, 
2066.00, 
2067.00, 
2068.00, 
2069.00, 
2070.00, 
2071.00, 
2072.00, 
2073.00, 
2074.00, 
2075.00, 
2076.00, 
2077.00, 
2078.00, 
2079.00, 
2080.00, 
2081.00, 
2082.00, 
2083.00, 
2084.00, 
2085.00, 
2086.00, 
2087.00, 
2088.00, 
2089.00, 
2090.00, 
2091.00, 
2092.00, 
2093.00, 
2094.00, 
2095.00, 
2096.00, 
2097.00, 
2098.00, 
2099.00, 
2100.00, 
2101.00, 
2102.00, 
2103.00, 
2104.00, 
2105.00, 
2106.00, 
2107.00, 
2108.00, 
2109.00, 
2110.00, 
2111.00, 
2112.00, 
2113.00, 
2114.00, 
2115.00, 
2116.00, 
2117.00, 
2118.00, 
2119.00, 
2120.00, 
2121.00, 
2122.00, 
2123.00, 
2124.00, 
2125.00, 
2126.00, 
2127.00, 
2128.00, 
2129.00, 
2130.00, 
2131.00, 
2132.00, 
2133.00, 
2134.00, 
2135.00, 
2136.00, 
2137.00, 
2138.00, 
2139.00, 
2140.00, 
2141.00, 
2142.00, 
2143.00, 
2144.00, 
2145.00, 
2146.00, 
2147.00, 
2148.00, 
2149.00, 
2150.00, 
2151.00, 
2152.00, 
2153.00, 
2154.00, 
2155.00, 
2156.00, 
2157.00, 
2158.00, 
2159.00, 
2160.00, 
2161.00, 
2162.00, 
2163.00, 
2164.00, 
2165.00, 
2166.00, 
2167.00, 
2168.00, 
2169.00, 
2170.00, 
2171.00, 
2172.00, 
2173.00, 
2174.00, 
2175.00, 
2176.00, 
2177.00, 
2178.00, 
2179.00, 
2180.00, 
2181.00, 
2182.00, 
2183.00, 
2184.00, 
2185.00, 
2186.00, 
2187.00, 
2188.00, 
2189.00, 
2190.00, 
2191.00, 
2192.00, 
2193.00, 
2194.00, 
2195.00, 
2196.00, 
2197.00, 
2198.00, 
2199.00, 
2200.00, 
2201.00, 
2202.00, 
2203.00, 
2204.00, 
2205.00, 
2206.00, 
2207.00, 
2208.00, 
2209.00, 
2210.00, 
2211.00, 
2212.00, 
2213.00, 
2214.00, 
2215.00, 
2216.00, 
2217.00, 
2218.00, 
2219.00, 
2220.00, 
2221.00, 
2222.00, 
2223.00, 
2224.00, 
2225.00, 
2226.00, 
2227.00, 
2228.00, 
2229.00, 
2230.00, 
2231.00, 
2232.00, 
2233.00, 
2234.00, 
2235.00, 
2236.00, 
2237.00, 
2238.00, 
2239.00, 
2240.00, 
2241.00, 
2242.00, 
2243.00, 
2244.00, 
2245.00, 
2246.00, 
2247.00, 
2248.00, 
2249.00, 
2250.00, 
2251.00, 
2252.00, 
2253.00, 
2254.00, 
2255.00, 
2256.00, 
2257.00, 
2258.00, 
2259.00, 
2260.00, 
2261.00, 
2262.00, 
2263.00, 
2264.00, 
2265.00, 
2266.00, 
2267.00, 
2268.00, 
2269.00, 
2270.00, 
2271.00, 
2272.00, 
2273.00, 
2274.00, 
2275.00, 
2276.00, 
2277.00, 
2278.00, 
2279.00, 
2280.00, 
2281.00, 
2282.00, 
2283.00, 
2284.00, 
2285.00, 
2286.00, 
2287.00, 
2288.00, 
2289.00, 
2290.00, 
2291.00, 
2292.00, 
2293.00, 
2294.00, 
2295.00, 
2296.00, 
2297.00, 
2298.00, 
2299.00, 
2300.00, 
2301.00, 
2302.00, 
2303.00, 
2304.00, 
2305.00, 
2306.00, 
2307.00, 
2308.00, 
2309.00, 
2310.00, 
2311.00, 
2312.00, 
2313.00, 
2314.00, 
2315.00, 
2316.00, 
2317.00, 
2318.00, 
2319.00, 
2320.00, 
2321.00, 
2322.00, 
2323.00, 
2324.00, 
2325.00, 
2326.00, 
2327.00, 
2328.00, 
2329.00, 
2330.00, 
2331.00, 
2332.00, 
2333.00, 
2334.00, 
2335.00, 
2336.00, 
2337.00, 
2338.00, 
2339.00, 
2340.00, 
2341.00, 
2342.00, 
2343.00, 
2344.00, 
2345.00, 
2346.00, 
2347.00, 
2348.00, 
2349.00, 
2350.00, 
2351.00, 
2352.00, 
2353.00, 
2354.00, 
2355.00, 
2356.00, 
2357.00, 
2358.00, 
2359.00, 
2360.00, 
2361.00, 
2362.00, 
2363.00, 
2364.00, 
2365.00, 
2366.00, 
2367.00, 
2368.00, 
2369.00, 
2370.00, 
2371.00, 
2372.00, 
2373.00, 
2374.00, 
2375.00, 
2376.00, 
2377.00, 
2378.00, 
2379.00, 
2380.00, 
2381.00, 
2382.00, 
2383.00, 
2384.00, 
2385.00, 
2386.00, 
2387.00, 
2388.00, 
2389.00, 
2390.00, 
2391.00, 
2392.00, 
2393.00, 
2394.00, 
2395.00, 
2396.00, 
2397.00, 
2398.00, 
2399.00, 
2400.00, 
2401.00, 
2402.00, 
2403.00, 
2404.00, 
2405.00, 
2406.00, 
2407.00, 
2408.00, 
2409.00, 
2410.00, 
2411.00, 
2412.00, 
2413.00, 
2414.00, 
2415.00, 
2416.00, 
2417.00, 
2418.00, 
2419.00, 
2420.00, 
2421.00, 
2422.00, 
2423.00, 
2424.00, 
2425.00, 
2426.00, 
2427.00, 
2428.00, 
2429.00, 
2430.00, 
2431.00, 
2432.00, 
2433.00, 
2434.00, 
2435.00, 
2436.00, 
2437.00, 
2438.00, 
2439.00, 
2440.00, 
2441.00, 
2442.00, 
2443.00, 
2444.00, 
2445.00, 
2446.00, 
2447.00, 
2448.00, 
2449.00, 
2450.00, 
2451.00, 
2452.00, 
2453.00, 
2454.00, 
2455.00, 
2456.00, 
2457.00, 
2458.00, 
2459.00, 
2460.00, 
2461.00, 
2462.00, 
2463.00, 
2464.00, 
2465.00, 
2466.00, 
2467.00, 
2468.00, 
2469.00, 
2470.00, 
2471.00, 
2472.00, 
2473.00, 
2474.00, 
2475.00, 
2476.00, 
2477.00, 
2478.00, 
2479.00, 
2480.00, 
2481.00, 
2482.00, 
2483.00, 
2484.00, 
2485.00, 
2486.00, 
2487.00, 
2488.00, 
2489.00, 
2490.00, 
2491.00, 
2492.00, 
2493.00, 
2494.00, 
2495.00, 
2496.00, 
2497.00, 
2498.00, 
2499.00, 
2500.00, 
2501.00, 
2502.00, 
2503.00, 
2504.00, 
2505.00, 
2506.00, 
2507.00, 
2508.00, 
2509.00, 
2510.00, 
2511.00, 
2512.00, 
2513.00, 
2514.00, 
2515.00, 
2516.00, 
2517.00, 
2518.00, 
2519.00, 
2520.00, 
2521.00, 
2522.00, 
2523.00, 
2524.00, 
2525.00, 
2526.00, 
2527.00, 
2528.00, 
2529.00, 
2530.00, 
2531.00, 
2532.00, 
2533.00, 
2534.00, 
2535.00, 
2536.00, 
2537.00, 
2538.00, 
2539.00, 
2540.00, 
2541.00, 
2542.00, 
2543.00, 
2544.00, 
2545.00, 
2546.00, 
2547.00, 
2548.00, 
2549.00, 
2550.00, 
2551.00, 
2552.00, 
2553.00, 
2554.00, 
2555.00, 
2556.00, 
2557.00, 
2558.00, 
2559.00, 
2560.00, 
2561.00, 
2562.00, 
2563.00, 
2564.00, 
2565.00, 
2566.00, 
2567.00, 
2568.00, 
2569.00, 
2570.00, 
2571.00, 
2572.00, 
2573.00, 
2574.00, 
2575.00, 
2576.00, 
2577.00, 
2578.00, 
2579.00, 
2580.00, 
2581.00, 
2582.00, 
2583.00, 
2584.00, 
2585.00, 
2586.00, 
2587.00, 
2588.00, 
2589.00, 
2590.00, 
2591.00, 
2592.00, 
2593.00, 
2594.00, 
2595.00, 
2596.00, 
2597.00, 
2598.00, 
2599.00, 
2600.00, 
