"2cP1 - RawData"
"Wavelength nm.","T%"
200.00,0.002
201.00,-0.001
202.00,0.003
203.00,0.002
204.00,0.002
205.00,0.002
206.00,0.003
207.00,0.005
208.00,0.003
209.00,0.000
210.00,0.002
211.00,0.001
212.00,0.003
213.00,0.001
214.00,0.002
215.00,0.003
216.00,0.002
217.00,0.001
218.00,0.002
219.00,0.003
220.00,0.000
221.00,0.003
222.00,-0.002
223.00,-0.001
224.00,-0.001
225.00,-0.002
226.00,0.003
227.00,0.002
228.00,0.001
229.00,0.002
230.00,0.001
231.00,0.000
232.00,0.001
233.00,0.001
234.00,0.003
235.00,-0.001
236.00,-0.001
237.00,-0.001
238.00,-0.000
239.00,0.000
240.00,0.000
241.00,-0.001
242.00,0.000
243.00,0.001
244.00,-0.000
245.00,0.001
246.00,0.002
247.00,0.003
248.00,-0.001
249.00,0.000
250.00,0.000
251.00,0.000
252.00,-0.001
253.00,-0.001
254.00,-0.001
255.00,0.001
256.00,0.001
257.00,-0.000
258.00,-0.000
259.00,0.001
260.00,0.001
261.00,0.000
262.00,0.001
263.00,0.001
264.00,0.001
265.00,-0.001
266.00,-0.000
267.00,0.001
268.00,0.002
269.00,-0.000
270.00,0.000
271.00,0.000
272.00,0.001
273.00,0.001
274.00,0.000
275.00,0.001
276.00,-0.000
277.00,0.002
278.00,0.001
279.00,0.002
280.00,0.002
281.00,-0.001
282.00,0.000
283.00,-0.001
284.00,-0.001
285.00,0.002
286.00,-0.001
287.00,0.001
288.00,0.000
289.00,0.001
290.00,-0.001
291.00,0.001
292.00,-0.000
293.00,0.000
294.00,0.001
295.00,0.000
296.00,0.000
297.00,0.001
298.00,0.000
299.00,0.002
300.00,0.003
301.00,0.004
302.00,0.005
303.00,0.007
304.00,0.013
305.00,0.020
306.00,0.031
307.00,0.048
308.00,0.077
309.00,0.120
310.00,0.169
311.00,0.221
312.00,0.306
313.00,0.418
314.00,0.550
315.00,0.714
316.00,0.903
317.00,1.145
318.00,1.401
319.00,1.744
320.00,2.136
321.00,2.554
322.00,3.008
323.00,3.560
324.00,4.134
325.00,4.713
326.00,5.314
327.00,5.996
328.00,6.725
329.00,7.430
330.00,8.177
331.00,8.950
332.00,9.752
333.00,10.592
334.00,11.338
335.00,12.175
336.00,12.954
337.00,13.804
338.00,14.609
339.00,15.328
340.00,16.100
341.00,16.798
342.00,17.486
343.00,18.153
344.00,18.813
345.00,19.420
346.00,19.979
347.00,20.616
348.00,21.141
349.00,21.622
350.00,22.102
351.00,22.561
352.00,22.951
353.00,23.355
354.00,23.727
355.00,24.034
356.00,24.378
357.00,24.768
358.00,24.981
359.00,25.230
360.00,25.539
361.00,25.742
362.00,25.984
363.00,26.196
364.00,26.387
365.00,26.535
366.00,26.707
367.00,26.833
368.00,26.932
369.00,27.022
370.00,27.101
371.00,27.136
372.00,27.193
373.00,27.152
374.00,27.186
375.00,27.211
376.00,27.240
377.00,27.179
378.00,27.124
379.00,27.151
380.00,27.114
381.00,27.151
382.00,27.134
383.00,27.180
384.00,27.256
385.00,27.285
386.00,27.362
387.00,27.413
388.00,27.477
389.00,27.569
390.00,27.581
391.00,27.666
392.00,27.671
393.00,27.754
394.00,27.780
395.00,27.757
396.00,27.803
397.00,27.812
398.00,27.883
399.00,27.873
400.00,27.850
401.00,27.944
402.00,27.940
403.00,27.947
404.00,27.934
405.00,27.927
406.00,27.930
407.00,27.895
408.00,27.885
409.00,27.844
410.00,27.827
411.00,27.804
412.00,27.807
413.00,27.772
414.00,27.784
415.00,27.793
416.00,27.804
417.00,27.811
418.00,27.846
419.00,27.851
420.00,27.893
421.00,28.008
422.00,28.015
423.00,28.058
424.00,28.106
425.00,28.120
426.00,28.183
427.00,28.202
428.00,28.183
429.00,28.181
430.00,28.286
431.00,28.357
432.00,28.400
433.00,28.460
434.00,28.494
435.00,28.542
436.00,28.616
437.00,28.688
438.00,28.743
439.00,28.793
440.00,28.901
441.00,28.940
442.00,28.996
443.00,29.105
444.00,29.109
445.00,29.259
446.00,29.340
447.00,29.451
448.00,29.519
449.00,29.596
450.00,29.725
451.00,29.807
452.00,29.905
453.00,30.013
454.00,30.066
455.00,30.178
456.00,30.269
457.00,30.383
458.00,30.495
459.00,30.588
460.00,30.712
461.00,30.807
462.00,30.909
463.00,31.017
464.00,31.124
465.00,31.240
466.00,31.350
467.00,31.518
468.00,31.525
469.00,31.644
470.00,31.719
471.00,31.832
472.00,31.925
473.00,32.038
474.00,32.075
475.00,32.216
476.00,32.312
477.00,32.436
478.00,32.528
479.00,32.674
480.00,32.818
481.00,32.958
482.00,33.035
483.00,33.156
484.00,33.306
485.00,33.495
486.00,33.586
487.00,33.745
488.00,33.849
489.00,33.915
490.00,34.080
491.00,34.206
492.00,34.304
493.00,34.481
494.00,34.587
495.00,34.626
496.00,34.734
497.00,34.838
498.00,34.845
499.00,35.043
500.00,35.122
501.00,35.324
502.00,35.464
503.00,35.538
504.00,35.669
505.00,35.741
506.00,35.853
507.00,35.957
508.00,36.072
509.00,36.184
510.00,36.262
511.00,36.392
512.00,36.532
513.00,36.597
514.00,36.741
515.00,36.859
516.00,36.928
517.00,37.036
518.00,37.149
519.00,37.222
520.00,37.284
521.00,37.303
522.00,37.455
523.00,37.536
524.00,37.526
525.00,37.592
526.00,37.592
527.00,37.776
528.00,37.806
529.00,37.972
530.00,38.045
531.00,38.237
532.00,38.270
533.00,38.393
534.00,38.485
535.00,38.545
536.00,38.625
537.00,38.680
538.00,38.776
539.00,38.854
540.00,38.849
541.00,38.916
542.00,38.982
543.00,39.082
544.00,39.109
545.00,39.196
546.00,39.246
547.00,39.342
548.00,39.373
549.00,39.486
550.00,39.578
551.00,39.607
552.00,39.716
553.00,39.782
554.00,39.834
555.00,39.873
556.00,39.907
557.00,40.007
558.00,40.033
559.00,40.073
560.00,40.148
561.00,40.162
562.00,40.223
563.00,40.249
564.00,40.299
565.00,40.364
566.00,40.355
567.00,40.425
568.00,40.416
569.00,40.486
570.00,40.456
571.00,40.558
572.00,40.613
573.00,40.610
574.00,40.680
575.00,40.680
576.00,40.684
577.00,40.790
578.00,40.879
579.00,40.840
580.00,40.932
581.00,41.108
582.00,41.129
583.00,41.168
584.00,41.193
585.00,41.255
586.00,41.403
587.00,41.403
588.00,41.489
589.00,41.426
590.00,41.501
591.00,41.577
592.00,41.534
593.00,41.624
594.00,41.670
595.00,41.699
596.00,41.780
597.00,41.843
598.00,41.934
599.00,42.002
600.00,42.049
601.00,42.097
602.00,42.092
603.00,42.108
604.00,42.130
605.00,42.173
606.00,42.276
607.00,42.266
608.00,42.319
609.00,42.347
610.00,42.395
611.00,42.429
612.00,42.464
613.00,42.454
614.00,42.457
615.00,42.536
616.00,42.691
617.00,42.644
618.00,42.707
619.00,42.706
620.00,42.691
621.00,42.822
622.00,42.857
623.00,42.875
624.00,42.963
625.00,43.029
626.00,43.007
627.00,43.119
628.00,43.135
629.00,43.159
630.00,43.212
631.00,43.223
632.00,43.275
633.00,43.391
634.00,43.442
635.00,43.582
636.00,43.659
637.00,43.662
638.00,43.708
639.00,43.769
640.00,43.786
641.00,43.834
642.00,43.894
643.00,43.951
644.00,43.939
645.00,44.020
646.00,44.131
647.00,44.111
648.00,44.212
649.00,44.286
650.00,44.213
651.00,44.358
652.00,44.434
653.00,44.533
654.00,44.498
655.00,44.565
656.00,44.684
657.00,44.220
658.00,44.851
659.00,44.957
660.00,44.933
661.00,44.895
662.00,45.146
663.00,45.139
664.00,45.217
665.00,45.250
666.00,45.351
667.00,45.491
668.00,45.419
669.00,45.507
670.00,45.663
671.00,45.672
672.00,45.649
673.00,45.866
674.00,45.886
675.00,45.811
676.00,45.970
677.00,46.053
678.00,46.055
679.00,46.122
680.00,46.268
681.00,46.232
682.00,46.388
683.00,46.485
684.00,46.455
685.00,46.590
686.00,46.637
687.00,46.743
688.00,46.745
689.00,46.608
690.00,46.839
691.00,46.951
692.00,46.945
693.00,46.954
694.00,47.037
695.00,47.151
696.00,47.133
697.00,47.123
698.00,47.247
699.00,47.234
700.00,47.396
701.00,47.392
702.00,47.507
703.00,47.641
704.00,47.558
705.00,47.590
706.00,47.673
707.00,47.787
708.00,47.642
709.00,47.886
710.00,48.093
711.00,47.795
712.00,47.941
713.00,48.040
714.00,47.945
715.00,48.091
716.00,48.045
717.00,48.122
718.00,48.220
719.00,48.264
720.00,48.241
721.00,52.712
722.00,52.533
723.00,52.508
724.00,52.554
725.00,52.570
726.00,52.488
727.00,52.529
728.00,52.443
729.00,52.491
730.00,52.526
731.00,52.499
732.00,52.536
733.00,52.594
734.00,52.621
735.00,52.494
736.00,52.566
737.00,52.590
738.00,52.651
739.00,52.610
740.00,52.570
741.00,52.590
742.00,52.656
743.00,52.609
744.00,52.544
745.00,52.601
746.00,52.517
747.00,52.543
748.00,52.511
749.00,52.473
750.00,52.553
751.00,52.455
752.00,52.423
753.00,52.436
754.00,52.394
755.00,52.469
756.00,52.429
757.00,52.394
758.00,52.425
759.00,52.353
760.00,52.389
761.00,52.399
762.00,52.423
763.00,52.425
764.00,52.415
765.00,52.431
766.00,52.389
767.00,52.411
768.00,52.427
769.00,52.412
770.00,52.379
771.00,52.386
772.00,52.455
773.00,52.316
774.00,52.340
775.00,52.305
776.00,52.455
777.00,52.325
778.00,52.351
779.00,52.408
780.00,52.329
781.00,52.366
782.00,52.317
783.00,52.283
784.00,52.365
785.00,52.284
786.00,52.336
787.00,52.261
788.00,52.243
789.00,52.195
790.00,52.192
791.00,52.154
792.00,52.102
793.00,52.140
794.00,52.075
795.00,52.149
796.00,52.052
797.00,52.056
798.00,52.060
799.00,52.019
800.00,51.998
801.00,51.980
802.00,51.968
803.00,51.953
804.00,51.893
805.00,51.919
806.00,51.878
807.00,51.888
808.00,51.857
809.00,51.786
810.00,51.807
811.00,51.763
812.00,51.816
813.00,51.732
814.00,51.745
815.00,51.782
816.00,51.754
817.00,51.687
818.00,51.662
819.00,51.526
820.00,51.623
821.00,51.577
822.00,51.610
823.00,51.546
824.00,51.619
825.00,51.477
826.00,51.488
827.00,51.560
828.00,51.537
829.00,51.515
830.00,51.356
831.00,54.034
832.00,53.968
833.00,53.909
834.00,53.932
835.00,53.861
836.00,53.901
837.00,53.825
838.00,53.822
839.00,53.803
840.00,53.743
841.00,53.783
842.00,53.725
843.00,53.719
844.00,53.711
845.00,53.660
846.00,53.682
847.00,53.632
848.00,53.777
849.00,53.575
850.00,53.511
851.00,53.446
852.00,53.446
853.00,53.408
854.00,53.415
855.00,53.315
856.00,53.356
857.00,53.290
858.00,53.296
859.00,53.255
860.00,53.249
861.00,53.231
862.00,53.188
863.00,53.169
864.00,53.134
865.00,53.168
866.00,53.118
867.00,53.112
868.00,53.109
869.00,53.109
870.00,53.073
871.00,53.070
872.00,53.064
873.00,53.056
874.00,53.031
875.00,53.013
876.00,52.996
877.00,52.966
878.00,52.953
879.00,52.936
880.00,52.947
881.00,52.909
882.00,52.901
883.00,52.886
884.00,52.847
885.00,52.812
886.00,52.783
887.00,52.799
888.00,52.770
889.00,52.735
890.00,52.721
891.00,52.676
892.00,52.704
893.00,52.675
894.00,52.659
895.00,52.608
896.00,52.600
897.00,52.569
898.00,52.560
899.00,52.564
900.00,52.537
901.00,52.537
902.00,52.502
903.00,52.478
904.00,52.466
905.00,52.446
906.00,52.437
907.00,52.418
908.00,52.376
909.00,52.373
910.00,52.334
911.00,52.303
912.00,52.360
913.00,52.288
914.00,52.256
915.00,52.255
916.00,52.238
917.00,52.172
918.00,52.183
919.00,52.143
920.00,52.111
921.00,52.103
922.00,52.108
923.00,52.081
924.00,52.085
925.00,52.042
926.00,52.054
927.00,52.020
928.00,51.992
929.00,51.974
930.00,51.941
931.00,51.945
932.00,51.900
933.00,51.899
934.00,51.875
935.00,51.870
936.00,51.852
937.00,51.819
938.00,51.809
939.00,51.784
940.00,51.762
941.00,51.763
942.00,51.713
943.00,51.714
944.00,51.665
945.00,51.678
946.00,51.674
947.00,51.602
948.00,51.582
949.00,51.669
950.00,51.555
951.00,51.538
952.00,51.508
953.00,51.484
954.00,51.479
955.00,51.438
956.00,51.424
957.00,51.384
958.00,51.382
959.00,51.345
960.00,51.329
961.00,51.302
962.00,51.336
963.00,51.286
964.00,51.282
965.00,51.255
966.00,51.262
967.00,51.240
968.00,51.230
969.00,51.234
970.00,51.217
971.00,51.237
972.00,51.187
973.00,51.220
974.00,51.244
975.00,51.213
976.00,51.228
977.00,51.222
978.00,51.251
979.00,51.209
980.00,51.227
981.00,51.212
982.00,51.211
983.00,51.192
984.00,51.196
985.00,51.203
986.00,51.158
987.00,51.177
988.00,51.165
989.00,51.146
990.00,51.130
991.00,51.111
992.00,51.133
993.00,51.080
994.00,51.070
995.00,51.075
996.00,51.075
997.00,51.050
998.00,51.020
999.00,51.040
1000.00,50.978
1001.00,51.008
1002.00,50.975
1003.00,50.976
1004.00,50.955
1005.00,50.919
1006.00,50.940
1007.00,50.925
1008.00,50.919
1009.00,50.918
1010.00,50.900
1011.00,50.884
1012.00,50.855
1013.00,50.864
1014.00,50.803
1015.00,50.835
1016.00,50.774
1017.00,50.786
1018.00,50.764
1019.00,50.729
1020.00,50.721
1021.00,50.717
1022.00,50.708
1023.00,50.657
1024.00,50.653
1025.00,50.648
1026.00,50.649
1027.00,50.615
1028.00,50.610
1029.00,50.599
1030.00,50.569
1031.00,50.575
1032.00,50.539
1033.00,50.534
1034.00,50.508
1035.00,50.469
1036.00,50.454
1037.00,50.446
1038.00,50.419
1039.00,50.394
1040.00,50.402
1041.00,50.354
1042.00,50.354
1043.00,50.331
1044.00,50.349
1045.00,50.340
1046.00,50.326
1047.00,50.323
1048.00,50.347
1049.00,50.340
1050.00,50.363
1051.00,50.384
1052.00,50.388
1053.00,50.399
1054.00,50.394
1055.00,50.426
1056.00,50.422
1057.00,50.421
1058.00,50.410
1059.00,50.402
1060.00,50.394
1061.00,50.393
1062.00,50.371
1063.00,50.384
1064.00,50.367
1065.00,50.375
1066.00,50.353
1067.00,50.357
1068.00,50.355
1069.00,50.345
1070.00,50.319
1071.00,50.286
1072.00,50.304
1073.00,50.280
1074.00,50.276
1075.00,50.259
1076.00,50.253
1077.00,50.229
1078.00,50.232
1079.00,50.216
1080.00,50.225
1081.00,50.213
1082.00,50.202
1083.00,50.200
1084.00,50.213
1085.00,50.175
1086.00,50.179
1087.00,50.171
1088.00,50.156
1089.00,50.138
1090.00,50.135
1091.00,50.125
1092.00,50.121
1093.00,50.082
1094.00,50.088
1095.00,50.077
1096.00,50.064
1097.00,50.060
1098.00,50.066
1099.00,50.058
1100.00,50.042
1101.00,50.012
1102.00,50.016
1103.00,50.000
1104.00,49.990
1105.00,49.977
1106.00,49.976
1107.00,49.951
1108.00,49.953
1109.00,49.940
1110.00,49.936
1111.00,49.946
1112.00,49.924
1113.00,49.898
1114.00,49.911
1115.00,49.908
1116.00,49.917
1117.00,49.885
1118.00,49.880
1119.00,49.874
1120.00,49.877
1121.00,49.861
1122.00,49.858
1123.00,49.836
1124.00,49.831
1125.00,49.826
1126.00,49.827
1127.00,49.819
1128.00,49.818
1129.00,49.780
1130.00,49.786
1131.00,49.793
1132.00,49.777
1133.00,49.768
1134.00,49.742
1135.00,49.745
1136.00,49.753
1137.00,49.742
1138.00,49.748
1139.00,49.752
1140.00,49.739
1141.00,49.721
1142.00,49.758
1143.00,49.737
1144.00,49.718
1145.00,49.702
1146.00,49.714
1147.00,49.689
1148.00,49.668
1149.00,49.678
1150.00,49.692
1151.00,49.679
1152.00,49.670
1153.00,49.668
1154.00,49.658
1155.00,49.665
1156.00,49.642
1157.00,49.646
1158.00,49.651
1159.00,49.640
1160.00,49.646
1161.00,49.655
1162.00,49.642
1163.00,49.635
1164.00,49.633
1165.00,49.629
1166.00,49.620
1167.00,49.620
1168.00,49.616
1169.00,49.620
1170.00,49.620
1171.00,49.597
1172.00,49.612
1173.00,49.600
1174.00,49.609
1175.00,49.609
1176.00,49.606
1177.00,49.613
1178.00,49.583
1179.00,49.595
1180.00,49.586
1181.00,49.592
1182.00,49.598
1183.00,49.592
1184.00,49.575
1185.00,49.603
1186.00,49.588
1187.00,49.589
1188.00,49.582
1189.00,49.580
1190.00,49.567
1191.00,49.575
1192.00,49.566
1193.00,49.568
1194.00,49.575
1195.00,49.538
1196.00,49.574
1197.00,49.576
1198.00,49.577
1199.00,49.569
1200.00,49.560
1201.00,49.565
1202.00,49.554
1203.00,49.547
1204.00,49.537
1205.00,49.564
1206.00,49.535
1207.00,49.562
1208.00,49.541
1209.00,49.534
1210.00,49.542
1211.00,49.530
1212.00,49.542
1213.00,49.516
1214.00,49.532
1215.00,49.524
1216.00,49.537
1217.00,49.533
1218.00,49.537
1219.00,49.547
1220.00,49.532
1221.00,49.540
1222.00,49.519
1223.00,49.547
1224.00,49.533
1225.00,49.516
1226.00,49.535
1227.00,49.528
1228.00,49.535
1229.00,49.552
1230.00,49.587
1231.00,49.567
1232.00,49.580
1233.00,49.576
1234.00,49.575
1235.00,49.568
1236.00,49.561
1237.00,49.573
1238.00,49.585
1239.00,49.571
1240.00,49.573
1241.00,49.580
1242.00,49.588
1243.00,49.606
1244.00,49.565
1245.00,49.587
1246.00,49.595
1247.00,49.585
1248.00,49.587
1249.00,49.594
1250.00,49.589
1251.00,49.589
1252.00,49.601
1253.00,49.585
1254.00,49.628
1255.00,49.614
1256.00,49.592
1257.00,49.578
1258.00,49.622
1259.00,49.616
1260.00,49.642
1261.00,49.629
1262.00,49.633
1263.00,49.627
1264.00,49.636
1265.00,49.633
1266.00,49.629
1267.00,49.621
1268.00,49.656
1269.00,49.635
1270.00,49.656
1271.00,49.659
1272.00,49.663
1273.00,49.677
1274.00,49.675
1275.00,49.673
1276.00,49.681
1277.00,49.665
1278.00,49.682
1279.00,49.681
1280.00,49.680
1281.00,49.686
1282.00,49.703
1283.00,49.701
1284.00,49.700
1285.00,49.694
1286.00,49.705
1287.00,49.708
1288.00,49.711
1289.00,49.707
1290.00,49.728
1291.00,49.718
1292.00,49.725
1293.00,49.728
1294.00,49.736
1295.00,49.751
1296.00,49.750
1297.00,49.757
1298.00,49.773
1299.00,49.760
1300.00,49.759
1301.00,49.777
1302.00,49.767
1303.00,49.803
1304.00,49.784
1305.00,49.788
1306.00,49.804
1307.00,49.809
1308.00,49.817
1309.00,49.803
1310.00,49.807
1311.00,49.811
1312.00,49.816
1313.00,49.812
1314.00,49.832
1315.00,49.842
1316.00,49.839
1317.00,49.859
1318.00,49.849
1319.00,49.839
1320.00,49.872
1321.00,50.033
1322.00,50.047
1323.00,50.023
1324.00,50.009
1325.00,50.005
1326.00,50.032
1327.00,50.026
1328.00,50.026
1329.00,50.020
1330.00,50.033
1331.00,50.032
1332.00,50.031
1333.00,50.036
1334.00,50.070
1335.00,50.077
1336.00,50.098
1337.00,50.133
1338.00,50.186
1339.00,50.239
1340.00,50.301
1341.00,50.354
1342.00,50.427
1343.00,50.473
1344.00,50.527
1345.00,50.560
1346.00,50.611
1347.00,50.638
1348.00,50.659
1349.00,50.684
1350.00,50.685
1351.00,50.715
1352.00,50.678
1353.00,50.709
1354.00,50.713
1355.00,50.697
1356.00,50.757
1357.00,50.722
1358.00,50.709
1359.00,50.640
1360.00,50.750
1361.00,50.677
1362.00,50.684
1363.00,50.838
1364.00,50.841
1365.00,50.758
1366.00,50.835
1367.00,50.753
1368.00,50.693
1369.00,50.721
1370.00,50.709
1371.00,50.688
1372.00,50.720
1373.00,50.714
1374.00,50.722
1375.00,50.702
1376.00,50.717
1377.00,50.720
1378.00,50.704
1379.00,50.713
1380.00,50.687
1381.00,50.704
1382.00,50.725
1383.00,50.703
1384.00,50.705
1385.00,50.645
1386.00,50.713
1387.00,50.680
1388.00,50.567
1389.00,50.483
1390.00,50.727
1391.00,50.672
1392.00,50.687
1393.00,50.716
1394.00,50.683
1395.00,50.739
1396.00,50.645
1397.00,50.605
1398.00,50.698
1399.00,50.699
1400.00,50.668
1401.00,50.656
1402.00,50.708
1403.00,50.689
1404.00,50.651
1405.00,50.750
1406.00,50.698
1407.00,50.763
1408.00,50.722
1409.00,50.721
1410.00,50.742
1411.00,50.754
1412.00,50.776
1413.00,50.722
1414.00,50.760
1415.00,50.785
1416.00,50.787
1417.00,50.793
1418.00,50.780
1419.00,50.776
1420.00,50.831
1421.00,50.868
1422.00,50.853
1423.00,50.837
1424.00,50.875
1425.00,50.859
1426.00,50.904
1427.00,50.902
1428.00,50.920
1429.00,50.926
1430.00,50.947
1431.00,50.955
1432.00,50.974
1433.00,51.001
1434.00,50.997
1435.00,51.058
1436.00,51.030
1437.00,51.029
1438.00,51.053
1439.00,51.093
1440.00,51.085
1441.00,51.093
1442.00,51.105
1443.00,51.139
1444.00,51.137
1445.00,51.145
1446.00,51.144
1447.00,51.193
1448.00,51.206
1449.00,51.232
1450.00,51.224
1451.00,51.268
1452.00,51.250
1453.00,51.275
1454.00,51.280
1455.00,51.304
1456.00,51.317
1457.00,51.316
1458.00,51.334
1459.00,51.355
1460.00,51.352
1461.00,51.388
1462.00,51.387
1463.00,51.400
1464.00,51.421
1465.00,51.434
1466.00,51.428
1467.00,51.459
1468.00,51.507
1469.00,51.488
1470.00,51.493
1471.00,51.524
1472.00,51.539
1473.00,51.541
1474.00,51.562
1475.00,51.571
1476.00,51.576
1477.00,51.595
1478.00,51.598
1479.00,51.614
1480.00,51.615
1481.00,51.615
1482.00,51.663
1483.00,51.661
1484.00,51.671
1485.00,51.693
1486.00,51.673
1487.00,51.715
1488.00,51.714
1489.00,51.722
1490.00,51.735
1491.00,51.749
1492.00,51.771
1493.00,51.769
1494.00,51.787
1495.00,51.786
1496.00,51.790
1497.00,51.801
1498.00,51.797
1499.00,51.822
1500.00,51.837
1501.00, 
1502.00, 
1503.00, 
1504.00, 
1505.00, 
1506.00, 
1507.00, 
1508.00, 
1509.00, 
1510.00, 
1511.00, 
1512.00, 
1513.00, 
1514.00, 
1515.00, 
1516.00, 
1517.00, 
1518.00, 
1519.00, 
1520.00, 
1521.00, 
1522.00, 
1523.00, 
1524.00, 
1525.00, 
1526.00, 
1527.00, 
1528.00, 
1529.00, 
1530.00, 
1531.00, 
1532.00, 
1533.00, 
1534.00, 
1535.00, 
1536.00, 
1537.00, 
1538.00, 
1539.00, 
1540.00, 
1541.00, 
1542.00, 
1543.00, 
1544.00, 
1545.00, 
1546.00, 
1547.00, 
1548.00, 
1549.00, 
1550.00, 
1551.00, 
1552.00, 
1553.00, 
1554.00, 
1555.00, 
1556.00, 
1557.00, 
1558.00, 
1559.00, 
1560.00, 
1561.00, 
1562.00, 
1563.00, 
1564.00, 
1565.00, 
1566.00, 
1567.00, 
1568.00, 
1569.00, 
1570.00, 
1571.00, 
1572.00, 
1573.00, 
1574.00, 
1575.00, 
1576.00, 
1577.00, 
1578.00, 
1579.00, 
1580.00, 
1581.00, 
1582.00, 
1583.00, 
1584.00, 
1585.00, 
1586.00, 
1587.00, 
1588.00, 
1589.00, 
1590.00, 
1591.00, 
1592.00, 
1593.00, 
1594.00, 
1595.00, 
1596.00, 
1597.00, 
1598.00, 
1599.00, 
1600.00, 
1601.00, 
1602.00, 
1603.00, 
1604.00, 
1605.00, 
1606.00, 
1607.00, 
1608.00, 
1609.00, 
1610.00, 
1611.00, 
1612.00, 
1613.00, 
1614.00, 
1615.00, 
1616.00, 
1617.00, 
1618.00, 
1619.00, 
1620.00, 
1621.00, 
1622.00, 
1623.00, 
1624.00, 
1625.00, 
1626.00, 
1627.00, 
1628.00, 
1629.00, 
1630.00, 
1631.00, 
1632.00, 
1633.00, 
1634.00, 
1635.00, 
1636.00, 
1637.00, 
1638.00, 
1639.00, 
1640.00, 
1641.00, 
1642.00, 
1643.00, 
1644.00, 
1645.00, 
1646.00, 
1647.00, 
1648.00, 
1649.00, 
1650.00, 
1651.00, 
1652.00, 
1653.00, 
1654.00, 
1655.00, 
1656.00, 
1657.00, 
1658.00, 
1659.00, 
1660.00, 
1661.00, 
1662.00, 
1663.00, 
1664.00, 
1665.00, 
1666.00, 
1667.00, 
1668.00, 
1669.00, 
1670.00, 
1671.00, 
1672.00, 
1673.00, 
1674.00, 
1675.00, 
1676.00, 
1677.00, 
1678.00, 
1679.00, 
1680.00, 
1681.00, 
1682.00, 
1683.00, 
1684.00, 
1685.00, 
1686.00, 
1687.00, 
1688.00, 
1689.00, 
1690.00, 
1691.00, 
1692.00, 
1693.00, 
1694.00, 
1695.00, 
1696.00, 
1697.00, 
1698.00, 
1699.00, 
1700.00, 
1701.00, 
1702.00, 
1703.00, 
1704.00, 
1705.00, 
1706.00, 
1707.00, 
1708.00, 
1709.00, 
1710.00, 
1711.00, 
1712.00, 
1713.00, 
1714.00, 
1715.00, 
1716.00, 
1717.00, 
1718.00, 
1719.00, 
1720.00, 
1721.00, 
1722.00, 
1723.00, 
1724.00, 
1725.00, 
1726.00, 
1727.00, 
1728.00, 
1729.00, 
1730.00, 
1731.00, 
1732.00, 
1733.00, 
1734.00, 
1735.00, 
1736.00, 
1737.00, 
1738.00, 
1739.00, 
1740.00, 
1741.00, 
1742.00, 
1743.00, 
1744.00, 
1745.00, 
1746.00, 
1747.00, 
1748.00, 
1749.00, 
1750.00, 
1751.00, 
1752.00, 
1753.00, 
1754.00, 
1755.00, 
1756.00, 
1757.00, 
1758.00, 
1759.00, 
1760.00, 
1761.00, 
1762.00, 
1763.00, 
1764.00, 
1765.00, 
1766.00, 
1767.00, 
1768.00, 
1769.00, 
1770.00, 
1771.00, 
1772.00, 
1773.00, 
1774.00, 
1775.00, 
1776.00, 
1777.00, 
1778.00, 
1779.00, 
1780.00, 
1781.00, 
1782.00, 
1783.00, 
1784.00, 
1785.00, 
1786.00, 
1787.00, 
1788.00, 
1789.00, 
1790.00, 
1791.00, 
1792.00, 
1793.00, 
1794.00, 
1795.00, 
1796.00, 
1797.00, 
1798.00, 
1799.00, 
1800.00, 
1801.00, 
1802.00, 
1803.00, 
1804.00, 
1805.00, 
1806.00, 
1807.00, 
1808.00, 
1809.00, 
1810.00, 
1811.00, 
1812.00, 
1813.00, 
1814.00, 
1815.00, 
1816.00, 
1817.00, 
1818.00, 
1819.00, 
1820.00, 
1821.00, 
1822.00, 
1823.00, 
1824.00, 
1825.00, 
1826.00, 
1827.00, 
1828.00, 
1829.00, 
1830.00, 
1831.00, 
1832.00, 
1833.00, 
1834.00, 
1835.00, 
1836.00, 
1837.00, 
1838.00, 
1839.00, 
1840.00, 
1841.00, 
1842.00, 
1843.00, 
1844.00, 
1845.00, 
1846.00, 
1847.00, 
1848.00, 
1849.00, 
1850.00, 
1851.00, 
1852.00, 
1853.00, 
1854.00, 
1855.00, 
1856.00, 
1857.00, 
1858.00, 
1859.00, 
1860.00, 
1861.00, 
1862.00, 
1863.00, 
1864.00, 
1865.00, 
1866.00, 
1867.00, 
1868.00, 
1869.00, 
1870.00, 
1871.00, 
1872.00, 
1873.00, 
1874.00, 
1875.00, 
1876.00, 
1877.00, 
1878.00, 
1879.00, 
1880.00, 
1881.00, 
1882.00, 
1883.00, 
1884.00, 
1885.00, 
1886.00, 
1887.00, 
1888.00, 
1889.00, 
1890.00, 
1891.00, 
1892.00, 
1893.00, 
1894.00, 
1895.00, 
1896.00, 
1897.00, 
1898.00, 
1899.00, 
1900.00, 
1901.00, 
1902.00, 
1903.00, 
1904.00, 
1905.00, 
1906.00, 
1907.00, 
1908.00, 
1909.00, 
1910.00, 
1911.00, 
1912.00, 
1913.00, 
1914.00, 
1915.00, 
1916.00, 
1917.00, 
1918.00, 
1919.00, 
1920.00, 
1921.00, 
1922.00, 
1923.00, 
1924.00, 
1925.00, 
1926.00, 
1927.00, 
1928.00, 
1929.00, 
1930.00, 
1931.00, 
1932.00, 
1933.00, 
1934.00, 
1935.00, 
1936.00, 
1937.00, 
1938.00, 
1939.00, 
1940.00, 
1941.00, 
1942.00, 
1943.00, 
1944.00, 
1945.00, 
1946.00, 
1947.00, 
1948.00, 
1949.00, 
1950.00, 
1951.00, 
1952.00, 
1953.00, 
1954.00, 
1955.00, 
1956.00, 
1957.00, 
1958.00, 
1959.00, 
1960.00, 
1961.00, 
1962.00, 
1963.00, 
1964.00, 
1965.00, 
1966.00, 
1967.00, 
1968.00, 
1969.00, 
1970.00, 
1971.00, 
1972.00, 
1973.00, 
1974.00, 
1975.00, 
1976.00, 
1977.00, 
1978.00, 
1979.00, 
1980.00, 
1981.00, 
1982.00, 
1983.00, 
1984.00, 
1985.00, 
1986.00, 
1987.00, 
1988.00, 
1989.00, 
1990.00, 
1991.00, 
1992.00, 
1993.00, 
1994.00, 
1995.00, 
1996.00, 
1997.00, 
1998.00, 
1999.00, 
2000.00, 
2001.00, 
2002.00, 
2003.00, 
2004.00, 
2005.00, 
2006.00, 
2007.00, 
2008.00, 
2009.00, 
2010.00, 
2011.00, 
2012.00, 
2013.00, 
2014.00, 
2015.00, 
2016.00, 
2017.00, 
2018.00, 
2019.00, 
2020.00, 
2021.00, 
2022.00, 
2023.00, 
2024.00, 
2025.00, 
2026.00, 
2027.00, 
2028.00, 
2029.00, 
2030.00, 
2031.00, 
2032.00, 
2033.00, 
2034.00, 
2035.00, 
2036.00, 
2037.00, 
2038.00, 
2039.00, 
2040.00, 
2041.00, 
2042.00, 
2043.00, 
2044.00, 
2045.00, 
2046.00, 
2047.00, 
2048.00, 
2049.00, 
2050.00, 
2051.00, 
2052.00, 
2053.00, 
2054.00, 
2055.00, 
2056.00, 
2057.00, 
2058.00, 
2059.00, 
2060.00, 
2061.00, 
2062.00, 
2063.00, 
2064.00, 
2065.00, 
2066.00, 
2067.00, 
2068.00, 
2069.00, 
2070.00, 
2071.00, 
2072.00, 
2073.00, 
2074.00, 
2075.00, 
2076.00, 
2077.00, 
2078.00, 
2079.00, 
2080.00, 
2081.00, 
2082.00, 
2083.00, 
2084.00, 
2085.00, 
2086.00, 
2087.00, 
2088.00, 
2089.00, 
2090.00, 
2091.00, 
2092.00, 
2093.00, 
2094.00, 
2095.00, 
2096.00, 
2097.00, 
2098.00, 
2099.00, 
2100.00, 
2101.00, 
2102.00, 
2103.00, 
2104.00, 
2105.00, 
2106.00, 
2107.00, 
2108.00, 
2109.00, 
2110.00, 
2111.00, 
2112.00, 
2113.00, 
2114.00, 
2115.00, 
2116.00, 
2117.00, 
2118.00, 
2119.00, 
2120.00, 
2121.00, 
2122.00, 
2123.00, 
2124.00, 
2125.00, 
2126.00, 
2127.00, 
2128.00, 
2129.00, 
2130.00, 
2131.00, 
2132.00, 
2133.00, 
2134.00, 
2135.00, 
2136.00, 
2137.00, 
2138.00, 
2139.00, 
2140.00, 
2141.00, 
2142.00, 
2143.00, 
2144.00, 
2145.00, 
2146.00, 
2147.00, 
2148.00, 
2149.00, 
2150.00, 
2151.00, 
2152.00, 
2153.00, 
2154.00, 
2155.00, 
2156.00, 
2157.00, 
2158.00, 
2159.00, 
2160.00, 
2161.00, 
2162.00, 
2163.00, 
2164.00, 
2165.00, 
2166.00, 
2167.00, 
2168.00, 
2169.00, 
2170.00, 
2171.00, 
2172.00, 
2173.00, 
2174.00, 
2175.00, 
2176.00, 
2177.00, 
2178.00, 
2179.00, 
2180.00, 
2181.00, 
2182.00, 
2183.00, 
2184.00, 
2185.00, 
2186.00, 
2187.00, 
2188.00, 
2189.00, 
2190.00, 
2191.00, 
2192.00, 
2193.00, 
2194.00, 
2195.00, 
2196.00, 
2197.00, 
2198.00, 
2199.00, 
2200.00, 
2201.00, 
2202.00, 
2203.00, 
2204.00, 
2205.00, 
2206.00, 
2207.00, 
2208.00, 
2209.00, 
2210.00, 
2211.00, 
2212.00, 
2213.00, 
2214.00, 
2215.00, 
2216.00, 
2217.00, 
2218.00, 
2219.00, 
2220.00, 
2221.00, 
2222.00, 
2223.00, 
2224.00, 
2225.00, 
2226.00, 
2227.00, 
2228.00, 
2229.00, 
2230.00, 
2231.00, 
2232.00, 
2233.00, 
2234.00, 
2235.00, 
2236.00, 
2237.00, 
2238.00, 
2239.00, 
2240.00, 
2241.00, 
2242.00, 
2243.00, 
2244.00, 
2245.00, 
2246.00, 
2247.00, 
2248.00, 
2249.00, 
2250.00, 
2251.00, 
2252.00, 
2253.00, 
2254.00, 
2255.00, 
2256.00, 
2257.00, 
2258.00, 
2259.00, 
2260.00, 
2261.00, 
2262.00, 
2263.00, 
2264.00, 
2265.00, 
2266.00, 
2267.00, 
2268.00, 
2269.00, 
2270.00, 
2271.00, 
2272.00, 
2273.00, 
2274.00, 
2275.00, 
2276.00, 
2277.00, 
2278.00, 
2279.00, 
2280.00, 
2281.00, 
2282.00, 
2283.00, 
2284.00, 
2285.00, 
2286.00, 
2287.00, 
2288.00, 
2289.00, 
2290.00, 
2291.00, 
2292.00, 
2293.00, 
2294.00, 
2295.00, 
2296.00, 
2297.00, 
2298.00, 
2299.00, 
2300.00, 
2301.00, 
2302.00, 
2303.00, 
2304.00, 
2305.00, 
2306.00, 
2307.00, 
2308.00, 
2309.00, 
2310.00, 
2311.00, 
2312.00, 
2313.00, 
2314.00, 
2315.00, 
2316.00, 
2317.00, 
2318.00, 
2319.00, 
2320.00, 
2321.00, 
2322.00, 
2323.00, 
2324.00, 
2325.00, 
2326.00, 
2327.00, 
2328.00, 
2329.00, 
2330.00, 
2331.00, 
2332.00, 
2333.00, 
2334.00, 
2335.00, 
2336.00, 
2337.00, 
2338.00, 
2339.00, 
2340.00, 
2341.00, 
2342.00, 
2343.00, 
2344.00, 
2345.00, 
2346.00, 
2347.00, 
2348.00, 
2349.00, 
2350.00, 
2351.00, 
2352.00, 
2353.00, 
2354.00, 
2355.00, 
2356.00, 
2357.00, 
2358.00, 
2359.00, 
2360.00, 
2361.00, 
2362.00, 
2363.00, 
2364.00, 
2365.00, 
2366.00, 
2367.00, 
2368.00, 
2369.00, 
2370.00, 
2371.00, 
2372.00, 
2373.00, 
2374.00, 
2375.00, 
2376.00, 
2377.00, 
2378.00, 
2379.00, 
2380.00, 
2381.00, 
2382.00, 
2383.00, 
2384.00, 
2385.00, 
2386.00, 
2387.00, 
2388.00, 
2389.00, 
2390.00, 
2391.00, 
2392.00, 
2393.00, 
2394.00, 
2395.00, 
2396.00, 
2397.00, 
2398.00, 
2399.00, 
2400.00, 
2401.00, 
2402.00, 
2403.00, 
2404.00, 
2405.00, 
2406.00, 
2407.00, 
2408.00, 
2409.00, 
2410.00, 
2411.00, 
2412.00, 
2413.00, 
2414.00, 
2415.00, 
2416.00, 
2417.00, 
2418.00, 
2419.00, 
2420.00, 
2421.00, 
2422.00, 
2423.00, 
2424.00, 
2425.00, 
2426.00, 
2427.00, 
2428.00, 
2429.00, 
2430.00, 
2431.00, 
2432.00, 
2433.00, 
2434.00, 
2435.00, 
2436.00, 
2437.00, 
2438.00, 
2439.00, 
2440.00, 
2441.00, 
2442.00, 
2443.00, 
2444.00, 
2445.00, 
2446.00, 
2447.00, 
2448.00, 
2449.00, 
2450.00, 
2451.00, 
2452.00, 
2453.00, 
2454.00, 
2455.00, 
2456.00, 
2457.00, 
2458.00, 
2459.00, 
2460.00, 
2461.00, 
2462.00, 
2463.00, 
2464.00, 
2465.00, 
2466.00, 
2467.00, 
2468.00, 
2469.00, 
2470.00, 
2471.00, 
2472.00, 
2473.00, 
2474.00, 
2475.00, 
2476.00, 
2477.00, 
2478.00, 
2479.00, 
2480.00, 
2481.00, 
2482.00, 
2483.00, 
2484.00, 
2485.00, 
2486.00, 
2487.00, 
2488.00, 
2489.00, 
2490.00, 
2491.00, 
2492.00, 
2493.00, 
2494.00, 
2495.00, 
2496.00, 
2497.00, 
2498.00, 
2499.00, 
2500.00, 
2501.00, 
2502.00, 
2503.00, 
2504.00, 
2505.00, 
2506.00, 
2507.00, 
2508.00, 
2509.00, 
2510.00, 
2511.00, 
2512.00, 
2513.00, 
2514.00, 
2515.00, 
2516.00, 
2517.00, 
2518.00, 
2519.00, 
2520.00, 
2521.00, 
2522.00, 
2523.00, 
2524.00, 
2525.00, 
2526.00, 
2527.00, 
2528.00, 
2529.00, 
2530.00, 
2531.00, 
2532.00, 
2533.00, 
2534.00, 
2535.00, 
2536.00, 
2537.00, 
2538.00, 
2539.00, 
2540.00, 
2541.00, 
2542.00, 
2543.00, 
2544.00, 
2545.00, 
2546.00, 
2547.00, 
2548.00, 
2549.00, 
2550.00, 
2551.00, 
2552.00, 
2553.00, 
2554.00, 
2555.00, 
2556.00, 
2557.00, 
2558.00, 
2559.00, 
2560.00, 
2561.00, 
2562.00, 
2563.00, 
2564.00, 
2565.00, 
2566.00, 
2567.00, 
2568.00, 
2569.00, 
2570.00, 
2571.00, 
2572.00, 
2573.00, 
2574.00, 
2575.00, 
2576.00, 
2577.00, 
2578.00, 
2579.00, 
2580.00, 
2581.00, 
2582.00, 
2583.00, 
2584.00, 
2585.00, 
2586.00, 
2587.00, 
2588.00, 
2589.00, 
2590.00, 
2591.00, 
2592.00, 
2593.00, 
2594.00, 
2595.00, 
2596.00, 
2597.00, 
2598.00, 
2599.00, 
2600.00, 
