"2cP2 - RawData"
"Wavelength nm.","T%"
200.00,-0.001
201.00,0.001
202.00,-0.000
203.00,0.003
204.00,0.000
205.00,0.002
206.00,0.002
207.00,0.000
208.00,0.002
209.00,0.002
210.00,0.002
211.00,0.002
212.00,0.002
213.00,0.001
214.00,0.000
215.00,0.002
216.00,0.001
217.00,0.003
218.00,0.003
219.00,0.003
220.00,0.003
221.00,0.002
222.00,0.001
223.00,0.001
224.00,0.001
225.00,0.002
226.00,0.001
227.00,-0.000
228.00,0.000
229.00,0.002
230.00,0.001
231.00,0.001
232.00,-0.001
233.00,0.001
234.00,0.000
235.00,0.001
236.00,0.002
237.00,0.001
238.00,0.001
239.00,-0.001
240.00,-0.001
241.00,0.001
242.00,0.000
243.00,0.001
244.00,0.001
245.00,0.001
246.00,0.002
247.00,0.001
248.00,0.001
249.00,0.001
250.00,0.000
251.00,0.001
252.00,0.000
253.00,-0.000
254.00,0.000
255.00,0.001
256.00,0.002
257.00,-0.002
258.00,-0.001
259.00,-0.000
260.00,-0.001
261.00,0.001
262.00,0.001
263.00,0.001
264.00,-0.001
265.00,-0.002
266.00,0.000
267.00,0.000
268.00,0.000
269.00,-0.000
270.00,0.000
271.00,-0.000
272.00,-0.000
273.00,-0.000
274.00,-0.000
275.00,-0.001
276.00,0.000
277.00,-0.000
278.00,-0.001
279.00,0.000
280.00,0.000
281.00,0.001
282.00,0.001
283.00,0.002
284.00,0.001
285.00,0.001
286.00,-0.000
287.00,0.001
288.00,0.000
289.00,-0.000
290.00,0.002
291.00,0.001
292.00,-0.001
293.00,-0.000
294.00,0.001
295.00,0.000
296.00,0.001
297.00,0.000
298.00,0.002
299.00,0.004
300.00,0.005
301.00,0.007
302.00,0.011
303.00,0.016
304.00,0.023
305.00,0.037
306.00,0.054
307.00,0.084
308.00,0.132
309.00,0.204
310.00,0.287
311.00,0.385
312.00,0.524
313.00,0.719
314.00,0.927
315.00,1.205
316.00,1.544
317.00,1.947
318.00,2.411
319.00,2.952
320.00,3.579
321.00,4.306
322.00,5.094
323.00,6.000
324.00,6.920
325.00,7.903
326.00,8.897
327.00,10.029
328.00,11.183
329.00,12.402
330.00,13.696
331.00,14.932
332.00,16.281
333.00,17.476
334.00,18.887
335.00,20.268
336.00,21.547
337.00,22.884
338.00,24.241
339.00,25.386
340.00,26.676
341.00,27.818
342.00,29.017
343.00,29.890
344.00,31.119
345.00,32.171
346.00,33.155
347.00,34.110
348.00,34.994
349.00,35.799
350.00,36.594
351.00,37.322
352.00,38.041
353.00,38.638
354.00,39.289
355.00,39.932
356.00,40.425
357.00,41.025
358.00,41.442
359.00,41.969
360.00,42.456
361.00,42.801
362.00,43.339
363.00,43.726
364.00,43.964
365.00,44.276
366.00,44.558
367.00,44.815
368.00,44.985
369.00,45.211
370.00,45.403
371.00,45.451
372.00,45.630
373.00,45.690
374.00,45.757
375.00,45.808
376.00,45.813
377.00,45.855
378.00,45.858
379.00,45.862
380.00,45.822
381.00,45.986
382.00,45.914
383.00,46.164
384.00,46.389
385.00,46.528
386.00,46.605
387.00,46.824
388.00,47.002
389.00,47.117
390.00,47.250
391.00,47.470
392.00,47.458
393.00,47.540
394.00,47.757
395.00,47.827
396.00,47.883
397.00,47.989
398.00,48.063
399.00,48.074
400.00,48.113
401.00,48.249
402.00,48.304
403.00,48.307
404.00,48.393
405.00,48.384
406.00,48.408
407.00,48.359
408.00,48.382
409.00,48.341
410.00,48.267
411.00,48.243
412.00,48.228
413.00,48.175
414.00,48.175
415.00,48.191
416.00,48.266
417.00,48.210
418.00,48.191
419.00,48.296
420.00,48.386
421.00,48.439
422.00,48.417
423.00,48.450
424.00,48.607
425.00,48.559
426.00,48.480
427.00,48.563
428.00,48.484
429.00,48.612
430.00,48.595
431.00,48.690
432.00,48.664
433.00,48.698
434.00,48.720
435.00,48.743
436.00,48.800
437.00,48.755
438.00,48.866
439.00,48.895
440.00,48.910
441.00,48.896
442.00,48.902
443.00,49.029
444.00,49.063
445.00,49.082
446.00,49.128
447.00,49.124
448.00,49.195
449.00,49.229
450.00,49.328
451.00,49.321
452.00,49.393
453.00,49.486
454.00,49.500
455.00,49.477
456.00,49.536
457.00,49.551
458.00,49.591
459.00,49.640
460.00,49.732
461.00,49.756
462.00,49.729
463.00,49.826
464.00,49.968
465.00,49.899
466.00,49.894
467.00,50.146
468.00,49.919
469.00,49.992
470.00,50.000
471.00,49.980
472.00,50.007
473.00,50.035
474.00,50.101
475.00,50.083
476.00,50.020
477.00,50.074
478.00,50.147
479.00,50.233
480.00,50.256
481.00,50.351
482.00,50.391
483.00,50.438
484.00,50.601
485.00,50.591
486.00,50.549
487.00,50.658
488.00,50.619
489.00,50.814
490.00,50.838
491.00,50.903
492.00,50.882
493.00,50.977
494.00,51.084
495.00,51.062
496.00,51.046
497.00,51.074
498.00,51.165
499.00,51.200
500.00,51.275
501.00,51.247
502.00,51.350
503.00,51.330
504.00,51.242
505.00,51.281
506.00,51.320
507.00,51.314
508.00,51.429
509.00,51.462
510.00,51.558
511.00,51.606
512.00,51.665
513.00,51.628
514.00,51.677
515.00,51.703
516.00,51.819
517.00,51.745
518.00,51.876
519.00,51.812
520.00,51.753
521.00,51.806
522.00,51.819
523.00,51.812
524.00,51.790
525.00,51.912
526.00,51.890
527.00,51.861
528.00,51.867
529.00,51.947
530.00,52.137
531.00,52.199
532.00,52.118
533.00,52.231
534.00,52.277
535.00,52.253
536.00,52.294
537.00,52.332
538.00,52.344
539.00,52.291
540.00,52.291
541.00,52.292
542.00,52.305
543.00,52.367
544.00,52.370
545.00,52.427
546.00,52.373
547.00,52.488
548.00,52.522
549.00,52.488
550.00,52.602
551.00,52.611
552.00,52.643
553.00,52.645
554.00,52.590
555.00,52.573
556.00,52.604
557.00,52.685
558.00,52.642
559.00,52.733
560.00,52.733
561.00,52.793
562.00,52.756
563.00,52.751
564.00,52.754
565.00,52.765
566.00,52.716
567.00,52.739
568.00,52.754
569.00,52.795
570.00,52.755
571.00,52.793
572.00,52.775
573.00,52.649
574.00,52.726
575.00,52.680
576.00,52.664
577.00,52.700
578.00,52.829
579.00,52.856
580.00,52.863
581.00,53.053
582.00,53.046
583.00,52.986
584.00,53.084
585.00,53.123
586.00,53.129
587.00,53.203
588.00,53.129
589.00,52.956
590.00,53.152
591.00,53.211
592.00,53.080
593.00,53.128
594.00,53.208
595.00,53.256
596.00,53.278
597.00,53.232
598.00,53.336
599.00,53.335
600.00,53.325
601.00,53.311
602.00,53.257
603.00,53.175
604.00,53.148
605.00,53.140
606.00,53.311
607.00,53.168
608.00,53.138
609.00,53.244
610.00,53.367
611.00,53.260
612.00,53.286
613.00,53.169
614.00,53.024
615.00,53.190
616.00,53.463
617.00,53.200
618.00,53.169
619.00,53.194
620.00,53.112
621.00,53.213
622.00,53.292
623.00,53.240
624.00,53.254
625.00,53.221
626.00,53.215
627.00,53.243
628.00,53.172
629.00,53.190
630.00,53.167
631.00,53.238
632.00,53.207
633.00,53.204
634.00,53.281
635.00,53.297
636.00,53.317
637.00,53.293
638.00,53.197
639.00,53.289
640.00,53.248
641.00,53.189
642.00,53.242
643.00,53.174
644.00,53.185
645.00,53.173
646.00,53.236
647.00,53.231
648.00,53.187
649.00,53.108
650.00,52.977
651.00,53.165
652.00,53.245
653.00,53.011
654.00,52.985
655.00,53.226
656.00,53.328
657.00,53.334
658.00,52.678
659.00,53.232
660.00,53.078
661.00,52.940
662.00,53.070
663.00,53.073
664.00,53.206
665.00,53.271
666.00,53.215
667.00,53.168
668.00,53.036
669.00,53.229
670.00,53.342
671.00,53.121
672.00,53.156
673.00,53.115
674.00,53.073
675.00,53.052
676.00,53.153
677.00,53.219
678.00,52.950
679.00,53.019
680.00,53.036
681.00,53.139
682.00,53.024
683.00,52.996
684.00,52.965
685.00,52.937
686.00,52.852
687.00,52.925
688.00,52.955
689.00,52.756
690.00,52.894
691.00,53.112
692.00,52.840
693.00,52.685
694.00,52.818
695.00,52.942
696.00,52.956
697.00,52.688
698.00,52.640
699.00,52.735
700.00,52.684
701.00,52.618
702.00,52.689
703.00,52.775
704.00,52.670
705.00,52.514
706.00,52.527
707.00,52.480
708.00,52.324
709.00,52.664
710.00,52.946
711.00,52.374
712.00,52.336
713.00,52.464
714.00,52.489
715.00,52.427
716.00,52.248
717.00,52.433
718.00,52.527
719.00,52.284
720.00,52.352
721.00,57.016
722.00,56.801
723.00,56.819
724.00,56.706
725.00,56.716
726.00,56.573
727.00,56.580
728.00,56.413
729.00,56.413
730.00,56.402
731.00,56.407
732.00,56.314
733.00,56.254
734.00,56.236
735.00,56.096
736.00,56.103
737.00,56.065
738.00,56.021
739.00,56.061
740.00,55.883
741.00,55.899
742.00,55.814
743.00,55.718
744.00,55.670
745.00,55.609
746.00,55.563
747.00,55.498
748.00,55.407
749.00,55.322
750.00,55.367
751.00,55.241
752.00,55.152
753.00,55.174
754.00,55.061
755.00,55.025
756.00,55.045
757.00,54.885
758.00,54.956
759.00,54.766
760.00,54.774
761.00,54.775
762.00,54.771
763.00,54.698
764.00,54.663
765.00,54.658
766.00,54.593
767.00,54.547
768.00,54.500
769.00,54.461
770.00,54.466
771.00,54.418
772.00,54.457
773.00,54.314
774.00,54.290
775.00,54.278
776.00,54.301
777.00,54.224
778.00,54.175
779.00,54.197
780.00,54.088
781.00,54.056
782.00,53.985
783.00,53.999
784.00,53.945
785.00,53.833
786.00,53.939
787.00,53.872
788.00,53.812
789.00,53.690
790.00,53.657
791.00,53.666
792.00,53.550
793.00,53.584
794.00,53.538
795.00,53.617
796.00,53.382
797.00,53.391
798.00,53.429
799.00,53.305
800.00,53.239
801.00,53.259
802.00,53.228
803.00,53.133
804.00,53.146
805.00,53.037
806.00,53.091
807.00,53.033
808.00,52.970
809.00,52.933
810.00,52.877
811.00,52.890
812.00,52.874
813.00,52.796
814.00,52.793
815.00,52.798
816.00,52.782
817.00,52.642
818.00,52.657
819.00,52.575
820.00,52.563
821.00,52.566
822.00,52.515
823.00,52.433
824.00,52.568
825.00,52.466
826.00,52.372
827.00,52.401
828.00,52.388
829.00,52.351
830.00,52.352
831.00,54.876
832.00,54.813
833.00,54.761
834.00,54.785
835.00,54.694
836.00,54.737
837.00,54.670
838.00,54.649
839.00,54.613
840.00,54.562
841.00,54.574
842.00,54.531
843.00,54.506
844.00,54.463
845.00,54.404
846.00,54.386
847.00,54.363
848.00,54.324
849.00,54.257
850.00,54.220
851.00,54.176
852.00,54.159
853.00,54.091
854.00,54.086
855.00,53.996
856.00,54.003
857.00,53.921
858.00,53.916
859.00,53.873
860.00,53.872
861.00,53.815
862.00,53.788
863.00,53.787
864.00,53.736
865.00,53.749
866.00,53.672
867.00,53.710
868.00,53.679
869.00,53.661
870.00,53.630
871.00,53.642
872.00,53.607
873.00,53.599
874.00,53.584
875.00,53.520
876.00,53.552
877.00,53.500
878.00,53.501
879.00,53.449
880.00,53.448
881.00,53.405
882.00,53.416
883.00,53.395
884.00,53.342
885.00,53.303
886.00,53.281
887.00,53.264
888.00,53.248
889.00,53.219
890.00,53.183
891.00,53.138
892.00,53.156
893.00,53.119
894.00,53.117
895.00,53.070
896.00,53.057
897.00,53.023
898.00,52.991
899.00,53.003
900.00,52.975
901.00,52.965
902.00,52.940
903.00,52.802
904.00,52.869
905.00,52.860
906.00,52.848
907.00,52.831
908.00,52.809
909.00,52.784
910.00,52.743
911.00,52.717
912.00,52.743
913.00,52.663
914.00,52.646
915.00,52.643
916.00,52.618
917.00,52.575
918.00,52.561
919.00,52.520
920.00,52.486
921.00,52.465
922.00,52.454
923.00,52.447
924.00,52.450
925.00,52.403
926.00,52.397
927.00,52.381
928.00,52.352
929.00,52.346
930.00,52.319
931.00,52.303
932.00,52.205
933.00,52.332
934.00,52.217
935.00,52.201
936.00,52.169
937.00,52.139
938.00,52.134
939.00,52.112
940.00,52.104
941.00,52.086
942.00,52.051
943.00,52.049
944.00,51.991
945.00,52.019
946.00,51.985
947.00,51.925
948.00,51.962
949.00,51.900
950.00,51.873
951.00,51.847
952.00,51.817
953.00,51.786
954.00,51.771
955.00,51.725
956.00,51.714
957.00,51.679
958.00,51.691
959.00,51.648
960.00,51.633
961.00,51.623
962.00,51.618
963.00,51.570
964.00,51.557
965.00,51.547
966.00,51.531
967.00,51.533
968.00,51.507
969.00,51.514
970.00,51.508
971.00,51.512
972.00,51.466
973.00,51.537
974.00,51.524
975.00,51.497
976.00,51.499
977.00,51.481
978.00,51.542
979.00,51.607
980.00,51.516
981.00,51.512
982.00,51.504
983.00,51.481
984.00,51.477
985.00,51.475
986.00,51.420
987.00,51.425
988.00,51.418
989.00,51.416
990.00,51.392
991.00,51.389
992.00,51.410
993.00,51.343
994.00,51.369
995.00,51.361
996.00,51.349
997.00,51.304
998.00,51.298
999.00,51.323
1000.00,51.260
1001.00,51.263
1002.00,51.238
1003.00,51.243
1004.00,51.220
1005.00,51.189
1006.00,51.230
1007.00,51.196
1008.00,51.174
1009.00,51.185
1010.00,51.149
1011.00,51.138
1012.00,51.106
1013.00,51.111
1014.00,51.070
1015.00,51.083
1016.00,51.039
1017.00,51.047
1018.00,51.022
1019.00,50.985
1020.00,50.984
1021.00,50.974
1022.00,50.960
1023.00,50.911
1024.00,50.923
1025.00,50.926
1026.00,50.910
1027.00,50.878
1028.00,50.874
1029.00,50.861
1030.00,50.824
1031.00,50.838
1032.00,50.794
1033.00,50.795
1034.00,50.774
1035.00,50.730
1036.00,50.709
1037.00,50.706
1038.00,50.676
1039.00,50.659
1040.00,50.655
1041.00,50.599
1042.00,50.589
1043.00,50.564
1044.00,50.585
1045.00,50.579
1046.00,50.552
1047.00,50.568
1048.00,50.592
1049.00,50.611
1050.00,50.611
1051.00,50.638
1052.00,50.647
1053.00,50.640
1054.00,50.628
1055.00,50.700
1056.00,50.677
1057.00,50.685
1058.00,50.675
1059.00,50.665
1060.00,50.665
1061.00,50.659
1062.00,50.650
1063.00,50.637
1064.00,50.630
1065.00,50.639
1066.00,50.615
1067.00,50.624
1068.00,50.668
1069.00,50.645
1070.00,50.571
1071.00,50.552
1072.00,50.573
1073.00,50.553
1074.00,50.542
1075.00,50.526
1076.00,50.521
1077.00,50.509
1078.00,50.495
1079.00,50.490
1080.00,50.486
1081.00,50.477
1082.00,50.473
1083.00,50.470
1084.00,50.455
1085.00,50.456
1086.00,50.437
1087.00,50.430
1088.00,50.409
1089.00,50.400
1090.00,50.397
1091.00,50.395
1092.00,50.386
1093.00,50.366
1094.00,50.365
1095.00,50.352
1096.00,50.331
1097.00,50.324
1098.00,50.317
1099.00,50.317
1100.00,50.308
1101.00,50.326
1102.00,50.291
1103.00,50.284
1104.00,50.283
1105.00,50.277
1106.00,50.259
1107.00,50.236
1108.00,50.239
1109.00,50.224
1110.00,50.223
1111.00,50.225
1112.00,50.210
1113.00,50.198
1114.00,50.193
1115.00,50.205
1116.00,50.215
1117.00,50.158
1118.00,50.159
1119.00,50.146
1120.00,50.143
1121.00,50.146
1122.00,50.127
1123.00,50.109
1124.00,50.106
1125.00,50.102
1126.00,50.120
1127.00,50.120
1128.00,50.103
1129.00,50.077
1130.00,50.081
1131.00,50.064
1132.00,50.054
1133.00,50.054
1134.00,50.032
1135.00,50.034
1136.00,50.042
1137.00,50.044
1138.00,50.048
1139.00,50.051
1140.00,50.036
1141.00,50.025
1142.00,50.035
1143.00,50.012
1144.00,49.989
1145.00,49.987
1146.00,50.008
1147.00,49.982
1148.00,49.973
1149.00,49.985
1150.00,49.990
1151.00,49.983
1152.00,49.974
1153.00,49.981
1154.00,49.960
1155.00,49.960
1156.00,49.961
1157.00,49.959
1158.00,49.961
1159.00,49.952
1160.00,49.954
1161.00,49.954
1162.00,49.957
1163.00,49.929
1164.00,49.927
1165.00,49.920
1166.00,49.930
1167.00,49.941
1168.00,49.955
1169.00,49.951
1170.00,49.954
1171.00,49.926
1172.00,49.926
1173.00,49.912
1174.00,49.932
1175.00,49.916
1176.00,49.914
1177.00,49.921
1178.00,49.907
1179.00,49.921
1180.00,49.910
1181.00,49.922
1182.00,49.924
1183.00,49.903
1184.00,49.892
1185.00,49.909
1186.00,49.902
1187.00,49.896
1188.00,49.900
1189.00,49.901
1190.00,49.885
1191.00,49.885
1192.00,49.886
1193.00,49.896
1194.00,49.897
1195.00,49.854
1196.00,49.888
1197.00,49.894
1198.00,49.886
1199.00,49.881
1200.00,49.887
1201.00,49.909
1202.00,49.886
1203.00,49.891
1204.00,49.879
1205.00,49.889
1206.00,49.876
1207.00,49.892
1208.00,49.869
1209.00,49.864
1210.00,49.874
1211.00,49.877
1212.00,49.891
1213.00,49.863
1214.00,49.876
1215.00,49.892
1216.00,49.883
1217.00,49.880
1218.00,49.892
1219.00,49.872
1220.00,49.877
1221.00,49.883
1222.00,49.869
1223.00,49.911
1224.00,49.884
1225.00,49.875
1226.00,49.886
1227.00,49.871
1228.00,49.879
1229.00,49.886
1230.00,49.916
1231.00,49.909
1232.00,49.907
1233.00,49.922
1234.00,49.923
1235.00,49.919
1236.00,49.914
1237.00,49.930
1238.00,49.941
1239.00,49.925
1240.00,49.929
1241.00,49.918
1242.00,49.930
1243.00,49.955
1244.00,49.926
1245.00,49.953
1246.00,49.963
1247.00,49.949
1248.00,49.953
1249.00,49.960
1250.00,49.967
1251.00,49.965
1252.00,49.973
1253.00,49.958
1254.00,49.974
1255.00,49.975
1256.00,49.952
1257.00,49.932
1258.00,49.988
1259.00,49.985
1260.00,49.994
1261.00,49.997
1262.00,49.986
1263.00,49.980
1264.00,49.990
1265.00,49.993
1266.00,50.010
1267.00,50.006
1268.00,50.040
1269.00,50.041
1270.00,50.033
1271.00,50.031
1272.00,50.032
1273.00,50.044
1274.00,50.037
1275.00,50.038
1276.00,50.033
1277.00,50.040
1278.00,50.065
1279.00,50.054
1280.00,50.062
1281.00,50.082
1282.00,50.080
1283.00,50.085
1284.00,50.072
1285.00,50.068
1286.00,50.065
1287.00,50.079
1288.00,50.096
1289.00,50.079
1290.00,50.098
1291.00,50.101
1292.00,50.101
1293.00,50.102
1294.00,50.088
1295.00,50.155
1296.00,50.175
1297.00,50.168
1298.00,50.197
1299.00,50.156
1300.00,50.164
1301.00,50.164
1302.00,50.170
1303.00,50.199
1304.00,50.153
1305.00,50.167
1306.00,50.201
1307.00,50.178
1308.00,50.219
1309.00,50.209
1310.00,50.200
1311.00,50.206
1312.00,50.205
1313.00,50.211
1314.00,50.246
1315.00,50.258
1316.00,50.239
1317.00,50.271
1318.00,50.257
1319.00,50.250
1320.00,50.280
1321.00,50.420
1322.00,50.432
1323.00,50.419
1324.00,50.393
1325.00,50.414
1326.00,50.415
1327.00,50.433
1328.00,50.457
1329.00,50.422
1330.00,50.429
1331.00,50.428
1332.00,50.410
1333.00,50.437
1334.00,50.455
1335.00,50.477
1336.00,50.492
1337.00,50.522
1338.00,50.588
1339.00,50.653
1340.00,50.694
1341.00,50.758
1342.00,50.837
1343.00,50.910
1344.00,50.920
1345.00,50.983
1346.00,51.029
1347.00,51.051
1348.00,51.086
1349.00,51.097
1350.00,51.104
1351.00,51.120
1352.00,51.103
1353.00,51.113
1354.00,51.121
1355.00,51.085
1356.00,51.170
1357.00,51.125
1358.00,51.165
1359.00,51.195
1360.00,51.134
1361.00,51.115
1362.00,51.099
1363.00,51.278
1364.00,51.311
1365.00,51.182
1366.00,51.223
1367.00,51.169
1368.00,51.078
1369.00,51.152
1370.00,51.149
1371.00,51.069
1372.00,51.133
1373.00,51.132
1374.00,51.140
1375.00,51.128
1376.00,51.100
1377.00,51.130
1378.00,51.151
1379.00,51.154
1380.00,51.095
1381.00,51.117
1382.00,51.180
1383.00,51.142
1384.00,51.118
1385.00,51.057
1386.00,51.127
1387.00,51.125
1388.00,50.986
1389.00,50.945
1390.00,51.149
1391.00,51.098
1392.00,51.112
1393.00,51.091
1394.00,51.118
1395.00,51.181
1396.00,51.091
1397.00,50.988
1398.00,51.077
1399.00,51.174
1400.00,51.171
1401.00,51.081
1402.00,51.139
1403.00,51.149
1404.00,51.052
1405.00,51.171
1406.00,51.124
1407.00,51.180
1408.00,51.193
1409.00,51.131
1410.00,51.167
1411.00,51.180
1412.00,51.179
1413.00,51.148
1414.00,51.215
1415.00,51.223
1416.00,51.229
1417.00,51.253
1418.00,51.216
1419.00,51.230
1420.00,51.254
1421.00,51.298
1422.00,51.266
1423.00,51.285
1424.00,51.318
1425.00,51.315
1426.00,51.324
1427.00,51.343
1428.00,51.357
1429.00,51.337
1430.00,51.371
1431.00,51.380
1432.00,51.431
1433.00,51.428
1434.00,51.411
1435.00,51.516
1436.00,51.486
1437.00,51.472
1438.00,51.496
1439.00,51.524
1440.00,51.537
1441.00,51.529
1442.00,51.543
1443.00,51.563
1444.00,51.613
1445.00,51.602
1446.00,51.599
1447.00,51.650
1448.00,51.662
1449.00,51.688
1450.00,51.727
1451.00,51.671
1452.00,51.699
1453.00,51.700
1454.00,51.718
1455.00,51.732
1456.00,51.766
1457.00,51.758
1458.00,51.765
1459.00,51.803
1460.00,51.803
1461.00,51.844
1462.00,51.873
1463.00,51.847
1464.00,51.849
1465.00,51.880
1466.00,51.870
1467.00,51.903
1468.00,51.978
1469.00,51.929
1470.00,51.945
1471.00,51.983
1472.00,51.978
1473.00,51.986
1474.00,51.994
1475.00,52.005
1476.00,52.023
1477.00,52.028
1478.00,52.043
1479.00,52.067
1480.00,52.058
1481.00,52.080
1482.00,52.122
1483.00,52.095
1484.00,52.116
1485.00,52.133
1486.00,52.119
1487.00,52.148
1488.00,52.159
1489.00,52.165
1490.00,52.193
1491.00,52.200
1492.00,52.224
1493.00,52.216
1494.00,52.227
1495.00,52.232
1496.00,52.250
1497.00,52.254
1498.00,52.262
1499.00,52.277
1500.00,52.297
1501.00, 
1502.00, 
1503.00, 
1504.00, 
1505.00, 
1506.00, 
1507.00, 
1508.00, 
1509.00, 
1510.00, 
1511.00, 
1512.00, 
1513.00, 
1514.00, 
1515.00, 
1516.00, 
1517.00, 
1518.00, 
1519.00, 
1520.00, 
1521.00, 
1522.00, 
1523.00, 
1524.00, 
1525.00, 
1526.00, 
1527.00, 
1528.00, 
1529.00, 
1530.00, 
1531.00, 
1532.00, 
1533.00, 
1534.00, 
1535.00, 
1536.00, 
1537.00, 
1538.00, 
1539.00, 
1540.00, 
1541.00, 
1542.00, 
1543.00, 
1544.00, 
1545.00, 
1546.00, 
1547.00, 
1548.00, 
1549.00, 
1550.00, 
1551.00, 
1552.00, 
1553.00, 
1554.00, 
1555.00, 
1556.00, 
1557.00, 
1558.00, 
1559.00, 
1560.00, 
1561.00, 
1562.00, 
1563.00, 
1564.00, 
1565.00, 
1566.00, 
1567.00, 
1568.00, 
1569.00, 
1570.00, 
1571.00, 
1572.00, 
1573.00, 
1574.00, 
1575.00, 
1576.00, 
1577.00, 
1578.00, 
1579.00, 
1580.00, 
1581.00, 
1582.00, 
1583.00, 
1584.00, 
1585.00, 
1586.00, 
1587.00, 
1588.00, 
1589.00, 
1590.00, 
1591.00, 
1592.00, 
1593.00, 
1594.00, 
1595.00, 
1596.00, 
1597.00, 
1598.00, 
1599.00, 
1600.00, 
1601.00, 
1602.00, 
1603.00, 
1604.00, 
1605.00, 
1606.00, 
1607.00, 
1608.00, 
1609.00, 
1610.00, 
1611.00, 
1612.00, 
1613.00, 
1614.00, 
1615.00, 
1616.00, 
1617.00, 
1618.00, 
1619.00, 
1620.00, 
1621.00, 
1622.00, 
1623.00, 
1624.00, 
1625.00, 
1626.00, 
1627.00, 
1628.00, 
1629.00, 
1630.00, 
1631.00, 
1632.00, 
1633.00, 
1634.00, 
1635.00, 
1636.00, 
1637.00, 
1638.00, 
1639.00, 
1640.00, 
1641.00, 
1642.00, 
1643.00, 
1644.00, 
1645.00, 
1646.00, 
1647.00, 
1648.00, 
1649.00, 
1650.00, 
1651.00, 
1652.00, 
1653.00, 
1654.00, 
1655.00, 
1656.00, 
1657.00, 
1658.00, 
1659.00, 
1660.00, 
1661.00, 
1662.00, 
1663.00, 
1664.00, 
1665.00, 
1666.00, 
1667.00, 
1668.00, 
1669.00, 
1670.00, 
1671.00, 
1672.00, 
1673.00, 
1674.00, 
1675.00, 
1676.00, 
1677.00, 
1678.00, 
1679.00, 
1680.00, 
1681.00, 
1682.00, 
1683.00, 
1684.00, 
1685.00, 
1686.00, 
1687.00, 
1688.00, 
1689.00, 
1690.00, 
1691.00, 
1692.00, 
1693.00, 
1694.00, 
1695.00, 
1696.00, 
1697.00, 
1698.00, 
1699.00, 
1700.00, 
1701.00, 
1702.00, 
1703.00, 
1704.00, 
1705.00, 
1706.00, 
1707.00, 
1708.00, 
1709.00, 
1710.00, 
1711.00, 
1712.00, 
1713.00, 
1714.00, 
1715.00, 
1716.00, 
1717.00, 
1718.00, 
1719.00, 
1720.00, 
1721.00, 
1722.00, 
1723.00, 
1724.00, 
1725.00, 
1726.00, 
1727.00, 
1728.00, 
1729.00, 
1730.00, 
1731.00, 
1732.00, 
1733.00, 
1734.00, 
1735.00, 
1736.00, 
1737.00, 
1738.00, 
1739.00, 
1740.00, 
1741.00, 
1742.00, 
1743.00, 
1744.00, 
1745.00, 
1746.00, 
1747.00, 
1748.00, 
1749.00, 
1750.00, 
1751.00, 
1752.00, 
1753.00, 
1754.00, 
1755.00, 
1756.00, 
1757.00, 
1758.00, 
1759.00, 
1760.00, 
1761.00, 
1762.00, 
1763.00, 
1764.00, 
1765.00, 
1766.00, 
1767.00, 
1768.00, 
1769.00, 
1770.00, 
1771.00, 
1772.00, 
1773.00, 
1774.00, 
1775.00, 
1776.00, 
1777.00, 
1778.00, 
1779.00, 
1780.00, 
1781.00, 
1782.00, 
1783.00, 
1784.00, 
1785.00, 
1786.00, 
1787.00, 
1788.00, 
1789.00, 
1790.00, 
1791.00, 
1792.00, 
1793.00, 
1794.00, 
1795.00, 
1796.00, 
1797.00, 
1798.00, 
1799.00, 
1800.00, 
1801.00, 
1802.00, 
1803.00, 
1804.00, 
1805.00, 
1806.00, 
1807.00, 
1808.00, 
1809.00, 
1810.00, 
1811.00, 
1812.00, 
1813.00, 
1814.00, 
1815.00, 
1816.00, 
1817.00, 
1818.00, 
1819.00, 
1820.00, 
1821.00, 
1822.00, 
1823.00, 
1824.00, 
1825.00, 
1826.00, 
1827.00, 
1828.00, 
1829.00, 
1830.00, 
1831.00, 
1832.00, 
1833.00, 
1834.00, 
1835.00, 
1836.00, 
1837.00, 
1838.00, 
1839.00, 
1840.00, 
1841.00, 
1842.00, 
1843.00, 
1844.00, 
1845.00, 
1846.00, 
1847.00, 
1848.00, 
1849.00, 
1850.00, 
1851.00, 
1852.00, 
1853.00, 
1854.00, 
1855.00, 
1856.00, 
1857.00, 
1858.00, 
1859.00, 
1860.00, 
1861.00, 
1862.00, 
1863.00, 
1864.00, 
1865.00, 
1866.00, 
1867.00, 
1868.00, 
1869.00, 
1870.00, 
1871.00, 
1872.00, 
1873.00, 
1874.00, 
1875.00, 
1876.00, 
1877.00, 
1878.00, 
1879.00, 
1880.00, 
1881.00, 
1882.00, 
1883.00, 
1884.00, 
1885.00, 
1886.00, 
1887.00, 
1888.00, 
1889.00, 
1890.00, 
1891.00, 
1892.00, 
1893.00, 
1894.00, 
1895.00, 
1896.00, 
1897.00, 
1898.00, 
1899.00, 
1900.00, 
1901.00, 
1902.00, 
1903.00, 
1904.00, 
1905.00, 
1906.00, 
1907.00, 
1908.00, 
1909.00, 
1910.00, 
1911.00, 
1912.00, 
1913.00, 
1914.00, 
1915.00, 
1916.00, 
1917.00, 
1918.00, 
1919.00, 
1920.00, 
1921.00, 
1922.00, 
1923.00, 
1924.00, 
1925.00, 
1926.00, 
1927.00, 
1928.00, 
1929.00, 
1930.00, 
1931.00, 
1932.00, 
1933.00, 
1934.00, 
1935.00, 
1936.00, 
1937.00, 
1938.00, 
1939.00, 
1940.00, 
1941.00, 
1942.00, 
1943.00, 
1944.00, 
1945.00, 
1946.00, 
1947.00, 
1948.00, 
1949.00, 
1950.00, 
1951.00, 
1952.00, 
1953.00, 
1954.00, 
1955.00, 
1956.00, 
1957.00, 
1958.00, 
1959.00, 
1960.00, 
1961.00, 
1962.00, 
1963.00, 
1964.00, 
1965.00, 
1966.00, 
1967.00, 
1968.00, 
1969.00, 
1970.00, 
1971.00, 
1972.00, 
1973.00, 
1974.00, 
1975.00, 
1976.00, 
1977.00, 
1978.00, 
1979.00, 
1980.00, 
1981.00, 
1982.00, 
1983.00, 
1984.00, 
1985.00, 
1986.00, 
1987.00, 
1988.00, 
1989.00, 
1990.00, 
1991.00, 
1992.00, 
1993.00, 
1994.00, 
1995.00, 
1996.00, 
1997.00, 
1998.00, 
1999.00, 
2000.00, 
2001.00, 
2002.00, 
2003.00, 
2004.00, 
2005.00, 
2006.00, 
2007.00, 
2008.00, 
2009.00, 
2010.00, 
2011.00, 
2012.00, 
2013.00, 
2014.00, 
2015.00, 
2016.00, 
2017.00, 
2018.00, 
2019.00, 
2020.00, 
2021.00, 
2022.00, 
2023.00, 
2024.00, 
2025.00, 
2026.00, 
2027.00, 
2028.00, 
2029.00, 
2030.00, 
2031.00, 
2032.00, 
2033.00, 
2034.00, 
2035.00, 
2036.00, 
2037.00, 
2038.00, 
2039.00, 
2040.00, 
2041.00, 
2042.00, 
2043.00, 
2044.00, 
2045.00, 
2046.00, 
2047.00, 
2048.00, 
2049.00, 
2050.00, 
2051.00, 
2052.00, 
2053.00, 
2054.00, 
2055.00, 
2056.00, 
2057.00, 
2058.00, 
2059.00, 
2060.00, 
2061.00, 
2062.00, 
2063.00, 
2064.00, 
2065.00, 
2066.00, 
2067.00, 
2068.00, 
2069.00, 
2070.00, 
2071.00, 
2072.00, 
2073.00, 
2074.00, 
2075.00, 
2076.00, 
2077.00, 
2078.00, 
2079.00, 
2080.00, 
2081.00, 
2082.00, 
2083.00, 
2084.00, 
2085.00, 
2086.00, 
2087.00, 
2088.00, 
2089.00, 
2090.00, 
2091.00, 
2092.00, 
2093.00, 
2094.00, 
2095.00, 
2096.00, 
2097.00, 
2098.00, 
2099.00, 
2100.00, 
2101.00, 
2102.00, 
2103.00, 
2104.00, 
2105.00, 
2106.00, 
2107.00, 
2108.00, 
2109.00, 
2110.00, 
2111.00, 
2112.00, 
2113.00, 
2114.00, 
2115.00, 
2116.00, 
2117.00, 
2118.00, 
2119.00, 
2120.00, 
2121.00, 
2122.00, 
2123.00, 
2124.00, 
2125.00, 
2126.00, 
2127.00, 
2128.00, 
2129.00, 
2130.00, 
2131.00, 
2132.00, 
2133.00, 
2134.00, 
2135.00, 
2136.00, 
2137.00, 
2138.00, 
2139.00, 
2140.00, 
2141.00, 
2142.00, 
2143.00, 
2144.00, 
2145.00, 
2146.00, 
2147.00, 
2148.00, 
2149.00, 
2150.00, 
2151.00, 
2152.00, 
2153.00, 
2154.00, 
2155.00, 
2156.00, 
2157.00, 
2158.00, 
2159.00, 
2160.00, 
2161.00, 
2162.00, 
2163.00, 
2164.00, 
2165.00, 
2166.00, 
2167.00, 
2168.00, 
2169.00, 
2170.00, 
2171.00, 
2172.00, 
2173.00, 
2174.00, 
2175.00, 
2176.00, 
2177.00, 
2178.00, 
2179.00, 
2180.00, 
2181.00, 
2182.00, 
2183.00, 
2184.00, 
2185.00, 
2186.00, 
2187.00, 
2188.00, 
2189.00, 
2190.00, 
2191.00, 
2192.00, 
2193.00, 
2194.00, 
2195.00, 
2196.00, 
2197.00, 
2198.00, 
2199.00, 
2200.00, 
2201.00, 
2202.00, 
2203.00, 
2204.00, 
2205.00, 
2206.00, 
2207.00, 
2208.00, 
2209.00, 
2210.00, 
2211.00, 
2212.00, 
2213.00, 
2214.00, 
2215.00, 
2216.00, 
2217.00, 
2218.00, 
2219.00, 
2220.00, 
2221.00, 
2222.00, 
2223.00, 
2224.00, 
2225.00, 
2226.00, 
2227.00, 
2228.00, 
2229.00, 
2230.00, 
2231.00, 
2232.00, 
2233.00, 
2234.00, 
2235.00, 
2236.00, 
2237.00, 
2238.00, 
2239.00, 
2240.00, 
2241.00, 
2242.00, 
2243.00, 
2244.00, 
2245.00, 
2246.00, 
2247.00, 
2248.00, 
2249.00, 
2250.00, 
2251.00, 
2252.00, 
2253.00, 
2254.00, 
2255.00, 
2256.00, 
2257.00, 
2258.00, 
2259.00, 
2260.00, 
2261.00, 
2262.00, 
2263.00, 
2264.00, 
2265.00, 
2266.00, 
2267.00, 
2268.00, 
2269.00, 
2270.00, 
2271.00, 
2272.00, 
2273.00, 
2274.00, 
2275.00, 
2276.00, 
2277.00, 
2278.00, 
2279.00, 
2280.00, 
2281.00, 
2282.00, 
2283.00, 
2284.00, 
2285.00, 
2286.00, 
2287.00, 
2288.00, 
2289.00, 
2290.00, 
2291.00, 
2292.00, 
2293.00, 
2294.00, 
2295.00, 
2296.00, 
2297.00, 
2298.00, 
2299.00, 
2300.00, 
2301.00, 
2302.00, 
2303.00, 
2304.00, 
2305.00, 
2306.00, 
2307.00, 
2308.00, 
2309.00, 
2310.00, 
2311.00, 
2312.00, 
2313.00, 
2314.00, 
2315.00, 
2316.00, 
2317.00, 
2318.00, 
2319.00, 
2320.00, 
2321.00, 
2322.00, 
2323.00, 
2324.00, 
2325.00, 
2326.00, 
2327.00, 
2328.00, 
2329.00, 
2330.00, 
2331.00, 
2332.00, 
2333.00, 
2334.00, 
2335.00, 
2336.00, 
2337.00, 
2338.00, 
2339.00, 
2340.00, 
2341.00, 
2342.00, 
2343.00, 
2344.00, 
2345.00, 
2346.00, 
2347.00, 
2348.00, 
2349.00, 
2350.00, 
2351.00, 
2352.00, 
2353.00, 
2354.00, 
2355.00, 
2356.00, 
2357.00, 
2358.00, 
2359.00, 
2360.00, 
2361.00, 
2362.00, 
2363.00, 
2364.00, 
2365.00, 
2366.00, 
2367.00, 
2368.00, 
2369.00, 
2370.00, 
2371.00, 
2372.00, 
2373.00, 
2374.00, 
2375.00, 
2376.00, 
2377.00, 
2378.00, 
2379.00, 
2380.00, 
2381.00, 
2382.00, 
2383.00, 
2384.00, 
2385.00, 
2386.00, 
2387.00, 
2388.00, 
2389.00, 
2390.00, 
2391.00, 
2392.00, 
2393.00, 
2394.00, 
2395.00, 
2396.00, 
2397.00, 
2398.00, 
2399.00, 
2400.00, 
2401.00, 
2402.00, 
2403.00, 
2404.00, 
2405.00, 
2406.00, 
2407.00, 
2408.00, 
2409.00, 
2410.00, 
2411.00, 
2412.00, 
2413.00, 
2414.00, 
2415.00, 
2416.00, 
2417.00, 
2418.00, 
2419.00, 
2420.00, 
2421.00, 
2422.00, 
2423.00, 
2424.00, 
2425.00, 
2426.00, 
2427.00, 
2428.00, 
2429.00, 
2430.00, 
2431.00, 
2432.00, 
2433.00, 
2434.00, 
2435.00, 
2436.00, 
2437.00, 
2438.00, 
2439.00, 
2440.00, 
2441.00, 
2442.00, 
2443.00, 
2444.00, 
2445.00, 
2446.00, 
2447.00, 
2448.00, 
2449.00, 
2450.00, 
2451.00, 
2452.00, 
2453.00, 
2454.00, 
2455.00, 
2456.00, 
2457.00, 
2458.00, 
2459.00, 
2460.00, 
2461.00, 
2462.00, 
2463.00, 
2464.00, 
2465.00, 
2466.00, 
2467.00, 
2468.00, 
2469.00, 
2470.00, 
2471.00, 
2472.00, 
2473.00, 
2474.00, 
2475.00, 
2476.00, 
2477.00, 
2478.00, 
2479.00, 
2480.00, 
2481.00, 
2482.00, 
2483.00, 
2484.00, 
2485.00, 
2486.00, 
2487.00, 
2488.00, 
2489.00, 
2490.00, 
2491.00, 
2492.00, 
2493.00, 
2494.00, 
2495.00, 
2496.00, 
2497.00, 
2498.00, 
2499.00, 
2500.00, 
2501.00, 
2502.00, 
2503.00, 
2504.00, 
2505.00, 
2506.00, 
2507.00, 
2508.00, 
2509.00, 
2510.00, 
2511.00, 
2512.00, 
2513.00, 
2514.00, 
2515.00, 
2516.00, 
2517.00, 
2518.00, 
2519.00, 
2520.00, 
2521.00, 
2522.00, 
2523.00, 
2524.00, 
2525.00, 
2526.00, 
2527.00, 
2528.00, 
2529.00, 
2530.00, 
2531.00, 
2532.00, 
2533.00, 
2534.00, 
2535.00, 
2536.00, 
2537.00, 
2538.00, 
2539.00, 
2540.00, 
2541.00, 
2542.00, 
2543.00, 
2544.00, 
2545.00, 
2546.00, 
2547.00, 
2548.00, 
2549.00, 
2550.00, 
2551.00, 
2552.00, 
2553.00, 
2554.00, 
2555.00, 
2556.00, 
2557.00, 
2558.00, 
2559.00, 
2560.00, 
2561.00, 
2562.00, 
2563.00, 
2564.00, 
2565.00, 
2566.00, 
2567.00, 
2568.00, 
2569.00, 
2570.00, 
2571.00, 
2572.00, 
2573.00, 
2574.00, 
2575.00, 
2576.00, 
2577.00, 
2578.00, 
2579.00, 
2580.00, 
2581.00, 
2582.00, 
2583.00, 
2584.00, 
2585.00, 
2586.00, 
2587.00, 
2588.00, 
2589.00, 
2590.00, 
2591.00, 
2592.00, 
2593.00, 
2594.00, 
2595.00, 
2596.00, 
2597.00, 
2598.00, 
2599.00, 
2600.00, 
