"2cP3 - RawData"
"Wavelength nm.","T%"
200.00,0.004
201.00,-0.000
202.00,0.001
203.00,0.000
204.00,0.003
205.00,0.000
206.00,0.001
207.00,0.000
208.00,-0.001
209.00,0.004
210.00,0.001
211.00,-0.002
212.00,0.001
213.00,0.001
214.00,0.001
215.00,0.001
216.00,0.003
217.00,0.001
218.00,0.004
219.00,0.001
220.00,0.003
221.00,0.000
222.00,0.001
223.00,0.001
224.00,0.003
225.00,-0.000
226.00,0.002
227.00,-0.001
228.00,0.000
229.00,-0.001
230.00,0.002
231.00,0.002
232.00,0.001
233.00,-0.001
234.00,0.000
235.00,-0.001
236.00,0.000
237.00,0.001
238.00,-0.000
239.00,0.000
240.00,-0.001
241.00,0.000
242.00,0.002
243.00,0.002
244.00,0.002
245.00,-0.001
246.00,0.001
247.00,0.002
248.00,0.000
249.00,0.002
250.00,0.001
251.00,0.000
252.00,0.000
253.00,0.000
254.00,0.000
255.00,0.001
256.00,-0.001
257.00,0.001
258.00,-0.000
259.00,0.001
260.00,0.001
261.00,-0.002
262.00,-0.001
263.00,-0.000
264.00,0.002
265.00,0.000
266.00,0.001
267.00,-0.001
268.00,0.001
269.00,-0.000
270.00,0.000
271.00,0.000
272.00,0.002
273.00,-0.001
274.00,0.002
275.00,0.001
276.00,0.000
277.00,-0.001
278.00,0.000
279.00,-0.001
280.00,-0.001
281.00,-0.000
282.00,0.000
283.00,0.002
284.00,0.001
285.00,0.001
286.00,-0.001
287.00,0.002
288.00,0.001
289.00,-0.000
290.00,-0.002
291.00,-0.000
292.00,0.002
293.00,-0.000
294.00,-0.001
295.00,0.001
296.00,-0.000
297.00,0.001
298.00,0.001
299.00,0.001
300.00,0.003
301.00,0.005
302.00,0.006
303.00,0.008
304.00,0.015
305.00,0.023
306.00,0.037
307.00,0.059
308.00,0.088
309.00,0.135
310.00,0.189
311.00,0.261
312.00,0.350
313.00,0.475
314.00,0.631
315.00,0.808
316.00,1.033
317.00,1.322
318.00,1.617
319.00,2.001
320.00,2.441
321.00,2.935
322.00,3.482
323.00,4.103
324.00,4.759
325.00,5.435
326.00,6.080
327.00,6.922
328.00,7.713
329.00,8.571
330.00,9.459
331.00,10.300
332.00,11.259
333.00,12.217
334.00,13.107
335.00,14.065
336.00,14.995
337.00,15.956
338.00,16.891
339.00,17.707
340.00,18.624
341.00,19.495
342.00,20.346
343.00,21.024
344.00,21.799
345.00,22.548
346.00,23.251
347.00,23.910
348.00,24.561
349.00,25.133
350.00,25.723
351.00,26.248
352.00,26.731
353.00,27.149
354.00,27.643
355.00,28.065
356.00,28.456
357.00,28.895
358.00,29.214
359.00,29.531
360.00,29.862
361.00,30.111
362.00,30.480
363.00,30.730
364.00,30.937
365.00,31.057
366.00,31.275
367.00,31.461
368.00,31.583
369.00,31.750
370.00,31.862
371.00,31.908
372.00,31.997
373.00,32.037
374.00,32.082
375.00,32.124
376.00,32.083
377.00,32.118
378.00,32.043
379.00,32.042
380.00,32.055
381.00,32.101
382.00,32.100
383.00,32.219
384.00,32.290
385.00,32.348
386.00,32.444
387.00,32.538
388.00,32.649
389.00,32.722
390.00,32.820
391.00,32.869
392.00,32.933
393.00,32.924
394.00,33.056
395.00,33.125
396.00,33.113
397.00,33.182
398.00,33.207
399.00,33.210
400.00,33.243
401.00,33.314
402.00,33.334
403.00,33.337
404.00,33.363
405.00,33.360
406.00,33.338
407.00,33.302
408.00,33.321
409.00,33.285
410.00,33.271
411.00,33.218
412.00,33.198
413.00,33.213
414.00,33.189
415.00,33.195
416.00,33.287
417.00,33.260
418.00,33.262
419.00,33.343
420.00,33.409
421.00,33.370
422.00,33.453
423.00,33.511
424.00,33.551
425.00,33.550
426.00,33.574
427.00,33.655
428.00,33.649
429.00,33.642
430.00,33.730
431.00,33.792
432.00,33.820
433.00,33.893
434.00,33.937
435.00,33.940
436.00,34.041
437.00,34.052
438.00,34.092
439.00,34.187
440.00,34.241
441.00,34.316
442.00,34.342
443.00,34.436
444.00,34.516
445.00,34.558
446.00,34.666
447.00,34.723
448.00,34.862
449.00,34.900
450.00,34.947
451.00,35.044
452.00,35.078
453.00,35.246
454.00,35.343
455.00,35.369
456.00,35.466
457.00,35.579
458.00,35.666
459.00,35.760
460.00,35.874
461.00,35.952
462.00,36.016
463.00,36.164
464.00,36.310
465.00,36.333
466.00,36.403
467.00,36.646
468.00,36.517
469.00,36.657
470.00,36.760
471.00,36.817
472.00,36.888
473.00,36.985
474.00,37.072
475.00,37.142
476.00,37.216
477.00,37.301
478.00,37.391
479.00,37.560
480.00,37.683
481.00,37.760
482.00,37.861
483.00,38.000
484.00,38.144
485.00,38.230
486.00,38.383
487.00,38.487
488.00,38.552
489.00,38.672
490.00,38.824
491.00,38.913
492.00,38.944
493.00,39.174
494.00,39.321
495.00,39.244
496.00,39.354
497.00,39.438
498.00,39.531
499.00,39.682
500.00,39.825
501.00,39.822
502.00,39.979
503.00,40.059
504.00,40.079
505.00,40.144
506.00,40.254
507.00,40.326
508.00,40.482
509.00,40.586
510.00,40.668
511.00,40.740
512.00,40.897
513.00,40.964
514.00,41.027
515.00,41.180
516.00,41.234
517.00,41.224
518.00,41.415
519.00,41.444
520.00,41.464
521.00,41.583
522.00,41.643
523.00,41.563
524.00,41.762
525.00,41.902
526.00,41.936
527.00,42.007
528.00,42.013
529.00,42.184
530.00,42.381
531.00,42.434
532.00,42.488
533.00,42.564
534.00,42.608
535.00,42.643
536.00,42.708
537.00,42.815
538.00,42.885
539.00,42.902
540.00,42.974
541.00,43.009
542.00,43.046
543.00,43.125
544.00,43.166
545.00,43.220
546.00,43.261
547.00,43.363
548.00,43.458
549.00,43.495
550.00,43.559
551.00,43.602
552.00,43.683
553.00,43.635
554.00,43.730
555.00,43.765
556.00,43.879
557.00,43.941
558.00,43.977
559.00,44.043
560.00,44.088
561.00,44.144
562.00,44.142
563.00,44.249
564.00,44.316
565.00,44.254
566.00,44.263
567.00,44.355
568.00,44.316
569.00,44.453
570.00,44.440
571.00,44.483
572.00,44.501
573.00,44.468
574.00,44.565
575.00,44.544
576.00,44.605
577.00,44.685
578.00,44.788
579.00,44.820
580.00,44.853
581.00,45.021
582.00,45.046
583.00,45.063
584.00,45.147
585.00,45.216
586.00,45.269
587.00,45.321
588.00,45.324
589.00,45.301
590.00,45.427
591.00,45.477
592.00,45.411
593.00,45.444
594.00,45.524
595.00,45.670
596.00,45.670
597.00,45.686
598.00,45.797
599.00,45.803
600.00,45.843
601.00,45.809
602.00,45.779
603.00,45.779
604.00,45.892
605.00,45.936
606.00,46.023
607.00,45.941
608.00,45.965
609.00,46.080
610.00,46.246
611.00,46.166
612.00,46.065
613.00,46.152
614.00,46.096
615.00,46.175
616.00,46.329
617.00,46.224
618.00,46.261
619.00,46.299
620.00,46.294
621.00,46.353
622.00,46.484
623.00,46.477
624.00,46.552
625.00,46.606
626.00,46.570
627.00,46.599
628.00,46.669
629.00,46.730
630.00,46.708
631.00,46.804
632.00,46.882
633.00,46.889
634.00,47.016
635.00,47.091
636.00,47.036
637.00,47.056
638.00,47.069
639.00,47.204
640.00,47.227
641.00,47.260
642.00,47.325
643.00,47.274
644.00,47.311
645.00,47.363
646.00,47.519
647.00,47.510
648.00,47.524
649.00,47.440
650.00,47.466
651.00,47.683
652.00,47.766
653.00,47.699
654.00,47.677
655.00,47.903
656.00,48.093
657.00,47.911
658.00,47.884
659.00,48.015
660.00,47.975
661.00,47.934
662.00,48.077
663.00,48.135
664.00,48.326
665.00,48.503
666.00,48.318
667.00,48.395
668.00,48.319
669.00,48.586
670.00,48.629
671.00,48.564
672.00,48.571
673.00,48.432
674.00,48.825
675.00,49.112
676.00,48.828
677.00,49.002
678.00,48.680
679.00,48.849
680.00,48.938
681.00,49.053
682.00,48.977
683.00,48.875
684.00,48.988
685.00,49.154
686.00,49.141
687.00,49.199
688.00,49.150
689.00,48.981
690.00,49.315
691.00,49.565
692.00,49.273
693.00,49.239
694.00,49.385
695.00,49.375
696.00,49.498
697.00,49.374
698.00,49.404
699.00,49.498
700.00,49.519
701.00,49.516
702.00,49.600
703.00,49.742
704.00,49.736
705.00,49.636
706.00,49.730
707.00,49.730
708.00,49.648
709.00,49.998
710.00,50.291
711.00,49.668
712.00,49.787
713.00,49.912
714.00,49.783
715.00,49.852
716.00,49.856
717.00,49.999
718.00,50.107
719.00,50.035
720.00,49.868
721.00,54.756
722.00,54.724
723.00,54.620
724.00,54.724
725.00,54.722
726.00,54.676
727.00,54.664
728.00,54.528
729.00,54.546
730.00,54.592
731.00,54.598
732.00,54.545
733.00,54.565
734.00,54.621
735.00,54.508
736.00,54.483
737.00,54.535
738.00,54.546
739.00,54.557
740.00,54.455
741.00,54.458
742.00,54.495
743.00,54.392
744.00,54.356
745.00,54.379
746.00,54.333
747.00,54.342
748.00,54.270
749.00,54.222
750.00,54.217
751.00,54.171
752.00,54.061
753.00,54.136
754.00,54.063
755.00,54.076
756.00,54.095
757.00,54.020
758.00,54.081
759.00,53.981
760.00,54.063
761.00,53.996
762.00,54.069
763.00,54.003
764.00,53.996
765.00,53.939
766.00,53.949
767.00,53.927
768.00,53.956
769.00,53.907
770.00,53.884
771.00,53.893
772.00,53.927
773.00,53.856
774.00,53.817
775.00,53.853
776.00,53.894
777.00,53.785
778.00,53.771
779.00,53.792
780.00,53.750
781.00,53.695
782.00,53.730
783.00,53.705
784.00,53.723
785.00,53.593
786.00,53.688
787.00,53.617
788.00,53.639
789.00,53.535
790.00,53.544
791.00,53.499
792.00,53.480
793.00,53.433
794.00,53.428
795.00,53.446
796.00,53.350
797.00,53.305
798.00,53.368
799.00,53.287
800.00,53.209
801.00,53.206
802.00,53.239
803.00,53.189
804.00,53.206
805.00,53.127
806.00,53.148
807.00,53.086
808.00,53.044
809.00,53.031
810.00,53.004
811.00,53.014
812.00,53.053
813.00,52.920
814.00,52.942
815.00,52.974
816.00,53.004
817.00,52.922
818.00,52.882
819.00,52.760
820.00,52.809
821.00,52.750
822.00,52.789
823.00,52.757
824.00,52.771
825.00,52.744
826.00,52.598
827.00,52.656
828.00,52.755
829.00,52.594
830.00,52.643
831.00,55.120
832.00,55.082
833.00,55.035
834.00,55.047
835.00,54.979
836.00,55.022
837.00,54.951
838.00,54.960
839.00,54.922
840.00,54.853
841.00,54.869
842.00,54.835
843.00,54.782
844.00,54.784
845.00,54.790
846.00,54.741
847.00,54.707
848.00,54.637
849.00,54.631
850.00,54.589
851.00,54.523
852.00,54.528
853.00,54.472
854.00,54.488
855.00,54.405
856.00,54.399
857.00,54.346
858.00,54.348
859.00,54.322
860.00,54.275
861.00,54.241
862.00,54.265
863.00,54.238
864.00,54.164
865.00,54.197
866.00,54.368
867.00,54.155
868.00,54.115
869.00,54.128
870.00,54.078
871.00,54.083
872.00,54.061
873.00,54.079
874.00,54.044
875.00,54.013
876.00,54.042
877.00,54.008
878.00,54.013
879.00,53.944
880.00,53.957
881.00,53.911
882.00,53.927
883.00,53.896
884.00,53.861
885.00,53.818
886.00,53.809
887.00,53.794
888.00,53.779
889.00,53.740
890.00,53.710
891.00,53.690
892.00,53.711
893.00,53.670
894.00,53.679
895.00,53.634
896.00,53.624
897.00,53.581
898.00,53.556
899.00,53.553
900.00,53.533
901.00,53.536
902.00,53.515
903.00,53.487
904.00,53.466
905.00,53.443
906.00,53.449
907.00,53.417
908.00,53.375
909.00,53.363
910.00,53.331
911.00,53.305
912.00,53.336
913.00,53.268
914.00,53.264
915.00,53.241
916.00,53.201
917.00,53.169
918.00,53.175
919.00,53.107
920.00,53.083
921.00,53.060
922.00,53.068
923.00,53.023
924.00,53.045
925.00,53.001
926.00,53.120
927.00,52.979
928.00,52.978
929.00,52.950
930.00,52.914
931.00,52.901
932.00,52.860
933.00,52.871
934.00,52.809
935.00,52.803
936.00,52.807
937.00,52.752
938.00,52.756
939.00,52.732
940.00,52.721
941.00,52.708
942.00,52.676
943.00,52.665
944.00,52.640
945.00,52.625
946.00,52.616
947.00,52.575
948.00,52.560
949.00,52.549
950.00,52.514
951.00,52.506
952.00,52.463
953.00,52.435
954.00,52.412
955.00,52.376
956.00,52.357
957.00,52.316
958.00,52.328
959.00,52.298
960.00,52.270
961.00,52.261
962.00,52.256
963.00,52.209
964.00,52.198
965.00,52.199
966.00,52.188
967.00,52.170
968.00,52.161
969.00,52.179
970.00,52.162
971.00,52.168
972.00,52.127
973.00,52.162
974.00,52.175
975.00,52.154
976.00,52.165
977.00,52.150
978.00,52.184
979.00,52.138
980.00,52.172
981.00,52.148
982.00,52.151
983.00,52.127
984.00,52.123
985.00,52.134
986.00,52.087
987.00,52.098
988.00,52.076
989.00,52.069
990.00,52.050
991.00,52.031
992.00,52.069
993.00,52.032
994.00,52.009
995.00,52.004
996.00,52.010
997.00,51.970
998.00,51.953
999.00,51.965
1000.00,51.926
1001.00,51.927
1002.00,51.905
1003.00,51.920
1004.00,51.885
1005.00,51.858
1006.00,51.876
1007.00,51.846
1008.00,51.838
1009.00,51.816
1010.00,51.813
1011.00,51.801
1012.00,51.777
1013.00,51.779
1014.00,51.729
1015.00,51.750
1016.00,51.707
1017.00,51.719
1018.00,51.729
1019.00,51.655
1020.00,51.649
1021.00,51.637
1022.00,51.618
1023.00,51.578
1024.00,51.586
1025.00,51.587
1026.00,51.577
1027.00,51.541
1028.00,51.543
1029.00,51.521
1030.00,51.499
1031.00,51.486
1032.00,51.438
1033.00,51.445
1034.00,51.419
1035.00,51.382
1036.00,51.378
1037.00,51.353
1038.00,51.344
1039.00,51.320
1040.00,51.307
1041.00,51.258
1042.00,51.248
1043.00,51.243
1044.00,51.254
1045.00,51.237
1046.00,51.237
1047.00,51.234
1048.00,51.254
1049.00,51.273
1050.00,51.266
1051.00,51.297
1052.00,51.296
1053.00,51.301
1054.00,51.296
1055.00,51.330
1056.00,51.335
1057.00,51.340
1058.00,51.330
1059.00,51.329
1060.00,51.325
1061.00,51.311
1062.00,51.287
1063.00,51.287
1064.00,51.284
1065.00,51.287
1066.00,51.262
1067.00,51.263
1068.00,51.280
1069.00,51.258
1070.00,51.224
1071.00,51.203
1072.00,51.233
1073.00,51.210
1074.00,51.194
1075.00,51.181
1076.00,51.179
1077.00,51.157
1078.00,51.145
1079.00,51.140
1080.00,51.146
1081.00,51.129
1082.00,51.123
1083.00,51.118
1084.00,51.098
1085.00,51.090
1086.00,51.084
1087.00,51.084
1088.00,51.059
1089.00,51.043
1090.00,51.043
1091.00,51.038
1092.00,51.030
1093.00,51.013
1094.00,51.016
1095.00,50.996
1096.00,50.982
1097.00,50.980
1098.00,50.969
1099.00,50.963
1100.00,50.949
1101.00,50.930
1102.00,50.941
1103.00,50.932
1104.00,50.922
1105.00,50.905
1106.00,50.894
1107.00,50.871
1108.00,50.877
1109.00,50.865
1110.00,50.857
1111.00,50.850
1112.00,50.844
1113.00,50.841
1114.00,50.836
1115.00,50.833
1116.00,50.834
1117.00,50.804
1118.00,50.792
1119.00,50.790
1120.00,50.790
1121.00,50.787
1122.00,50.768
1123.00,50.747
1124.00,50.753
1125.00,50.734
1126.00,50.746
1127.00,50.750
1128.00,50.719
1129.00,50.692
1130.00,50.695
1131.00,50.690
1132.00,50.675
1133.00,50.677
1134.00,50.649
1135.00,50.644
1136.00,50.658
1137.00,50.664
1138.00,50.673
1139.00,50.686
1140.00,50.679
1141.00,50.640
1142.00,50.671
1143.00,50.649
1144.00,50.613
1145.00,50.610
1146.00,50.622
1147.00,50.597
1148.00,50.596
1149.00,50.619
1150.00,50.615
1151.00,50.606
1152.00,50.605
1153.00,50.598
1154.00,50.573
1155.00,50.576
1156.00,50.563
1157.00,50.557
1158.00,50.572
1159.00,50.573
1160.00,50.580
1161.00,50.567
1162.00,50.550
1163.00,50.548
1164.00,50.547
1165.00,50.544
1166.00,50.544
1167.00,50.544
1168.00,50.549
1169.00,50.551
1170.00,50.546
1171.00,50.531
1172.00,50.531
1173.00,50.529
1174.00,50.538
1175.00,50.535
1176.00,50.526
1177.00,50.512
1178.00,50.512
1179.00,50.526
1180.00,50.521
1181.00,50.529
1182.00,50.533
1183.00,50.508
1184.00,50.505
1185.00,50.520
1186.00,50.502
1187.00,50.504
1188.00,50.501
1189.00,50.506
1190.00,50.490
1191.00,50.487
1192.00,50.494
1193.00,50.495
1194.00,50.487
1195.00,50.459
1196.00,50.491
1197.00,50.497
1198.00,50.479
1199.00,50.474
1200.00,50.487
1201.00,50.513
1202.00,50.503
1203.00,50.476
1204.00,50.471
1205.00,50.490
1206.00,50.469
1207.00,50.479
1208.00,50.451
1209.00,50.452
1210.00,50.455
1211.00,50.452
1212.00,50.479
1213.00,50.441
1214.00,50.470
1215.00,50.466
1216.00,50.481
1217.00,50.487
1218.00,50.450
1219.00,50.457
1220.00,50.440
1221.00,50.451
1222.00,50.440
1223.00,50.461
1224.00,50.459
1225.00,50.441
1226.00,50.451
1227.00,50.458
1228.00,50.461
1229.00,50.472
1230.00,50.503
1231.00,50.483
1232.00,50.496
1233.00,50.496
1234.00,50.499
1235.00,50.498
1236.00,50.488
1237.00,50.499
1238.00,50.501
1239.00,50.499
1240.00,50.494
1241.00,50.493
1242.00,50.505
1243.00,50.518
1244.00,50.489
1245.00,50.526
1246.00,50.532
1247.00,50.515
1248.00,50.512
1249.00,50.518
1250.00,50.523
1251.00,50.519
1252.00,50.534
1253.00,50.512
1254.00,50.553
1255.00,50.553
1256.00,50.520
1257.00,50.512
1258.00,50.556
1259.00,50.563
1260.00,50.573
1261.00,50.566
1262.00,50.581
1263.00,50.581
1264.00,50.557
1265.00,50.561
1266.00,50.572
1267.00,50.578
1268.00,50.593
1269.00,50.577
1270.00,50.598
1271.00,50.589
1272.00,50.580
1273.00,50.595
1274.00,50.599
1275.00,50.589
1276.00,50.592
1277.00,50.596
1278.00,50.618
1279.00,50.612
1280.00,50.617
1281.00,50.635
1282.00,50.639
1283.00,50.629
1284.00,50.629
1285.00,50.632
1286.00,50.624
1287.00,50.636
1288.00,50.640
1289.00,50.617
1290.00,50.653
1291.00,50.659
1292.00,50.671
1293.00,50.653
1294.00,50.654
1295.00,50.672
1296.00,50.672
1297.00,50.690
1298.00,50.703
1299.00,50.700
1300.00,50.707
1301.00,50.710
1302.00,50.718
1303.00,50.739
1304.00,50.703
1305.00,50.723
1306.00,50.734
1307.00,50.737
1308.00,50.742
1309.00,50.734
1310.00,50.741
1311.00,50.749
1312.00,50.752
1313.00,50.764
1314.00,50.791
1315.00,50.786
1316.00,50.770
1317.00,50.810
1318.00,50.803
1319.00,50.782
1320.00,50.812
1321.00,50.983
1322.00,50.982
1323.00,50.949
1324.00,50.943
1325.00,50.950
1326.00,50.967
1327.00,50.963
1328.00,50.968
1329.00,50.957
1330.00,50.962
1331.00,50.955
1332.00,50.945
1333.00,50.970
1334.00,50.978
1335.00,51.021
1336.00,51.082
1337.00,51.028
1338.00,51.116
1339.00,51.169
1340.00,51.213
1341.00,51.286
1342.00,51.362
1343.00,51.402
1344.00,51.455
1345.00,51.507
1346.00,51.551
1347.00,51.586
1348.00,51.602
1349.00,51.644
1350.00,51.616
1351.00,51.654
1352.00,51.637
1353.00,51.727
1354.00,51.642
1355.00,51.594
1356.00,51.679
1357.00,51.701
1358.00,51.699
1359.00,51.697
1360.00,51.768
1361.00,51.647
1362.00,51.528
1363.00,51.735
1364.00,51.798
1365.00,51.709
1366.00,51.771
1367.00,51.673
1368.00,51.573
1369.00,51.680
1370.00,51.629
1371.00,51.602
1372.00,51.652
1373.00,51.673
1374.00,51.659
1375.00,51.653
1376.00,51.630
1377.00,51.651
1378.00,51.705
1379.00,51.675
1380.00,51.654
1381.00,51.635
1382.00,51.665
1383.00,51.671
1384.00,51.648
1385.00,51.614
1386.00,51.647
1387.00,51.556
1388.00,51.586
1389.00,51.667
1390.00,51.632
1391.00,51.603
1392.00,51.624
1393.00,51.641
1394.00,51.649
1395.00,51.618
1396.00,51.585
1397.00,51.602
1398.00,51.656
1399.00,51.618
1400.00,51.560
1401.00,51.594
1402.00,51.730
1403.00,51.659
1404.00,51.603
1405.00,51.708
1406.00,51.655
1407.00,51.692
1408.00,51.695
1409.00,51.690
1410.00,51.709
1411.00,51.718
1412.00,51.761
1413.00,51.677
1414.00,51.709
1415.00,51.747
1416.00,51.758
1417.00,51.806
1418.00,51.760
1419.00,51.732
1420.00,51.784
1421.00,51.840
1422.00,51.804
1423.00,51.814
1424.00,51.847
1425.00,51.837
1426.00,51.863
1427.00,51.887
1428.00,51.892
1429.00,51.889
1430.00,51.898
1431.00,51.911
1432.00,51.930
1433.00,51.928
1434.00,51.960
1435.00,52.044
1436.00,52.007
1437.00,52.006
1438.00,52.029
1439.00,52.046
1440.00,52.054
1441.00,52.055
1442.00,52.062
1443.00,52.117
1444.00,52.190
1445.00,52.129
1446.00,52.112
1447.00,52.165
1448.00,52.193
1449.00,52.200
1450.00,52.179
1451.00,52.197
1452.00,52.235
1453.00,52.224
1454.00,52.237
1455.00,52.263
1456.00,52.281
1457.00,52.298
1458.00,52.314
1459.00,52.337
1460.00,52.348
1461.00,52.357
1462.00,52.370
1463.00,52.381
1464.00,52.386
1465.00,52.407
1466.00,52.396
1467.00,52.426
1468.00,52.489
1469.00,52.445
1470.00,52.469
1471.00,52.499
1472.00,52.504
1473.00,52.526
1474.00,52.546
1475.00,52.556
1476.00,52.565
1477.00,52.572
1478.00,52.575
1479.00,52.606
1480.00,52.606
1481.00,52.615
1482.00,52.654
1483.00,52.630
1484.00,52.661
1485.00,52.674
1486.00,52.659
1487.00,52.707
1488.00,52.721
1489.00,52.752
1490.00,52.755
1491.00,52.740
1492.00,52.768
1493.00,52.750
1494.00,52.775
1495.00,52.788
1496.00,52.794
1497.00,52.794
1498.00,52.797
1499.00,52.819
1500.00,52.840
1501.00, 
1502.00, 
1503.00, 
1504.00, 
1505.00, 
1506.00, 
1507.00, 
1508.00, 
1509.00, 
1510.00, 
1511.00, 
1512.00, 
1513.00, 
1514.00, 
1515.00, 
1516.00, 
1517.00, 
1518.00, 
1519.00, 
1520.00, 
1521.00, 
1522.00, 
1523.00, 
1524.00, 
1525.00, 
1526.00, 
1527.00, 
1528.00, 
1529.00, 
1530.00, 
1531.00, 
1532.00, 
1533.00, 
1534.00, 
1535.00, 
1536.00, 
1537.00, 
1538.00, 
1539.00, 
1540.00, 
1541.00, 
1542.00, 
1543.00, 
1544.00, 
1545.00, 
1546.00, 
1547.00, 
1548.00, 
1549.00, 
1550.00, 
1551.00, 
1552.00, 
1553.00, 
1554.00, 
1555.00, 
1556.00, 
1557.00, 
1558.00, 
1559.00, 
1560.00, 
1561.00, 
1562.00, 
1563.00, 
1564.00, 
1565.00, 
1566.00, 
1567.00, 
1568.00, 
1569.00, 
1570.00, 
1571.00, 
1572.00, 
1573.00, 
1574.00, 
1575.00, 
1576.00, 
1577.00, 
1578.00, 
1579.00, 
1580.00, 
1581.00, 
1582.00, 
1583.00, 
1584.00, 
1585.00, 
1586.00, 
1587.00, 
1588.00, 
1589.00, 
1590.00, 
1591.00, 
1592.00, 
1593.00, 
1594.00, 
1595.00, 
1596.00, 
1597.00, 
1598.00, 
1599.00, 
1600.00, 
1601.00, 
1602.00, 
1603.00, 
1604.00, 
1605.00, 
1606.00, 
1607.00, 
1608.00, 
1609.00, 
1610.00, 
1611.00, 
1612.00, 
1613.00, 
1614.00, 
1615.00, 
1616.00, 
1617.00, 
1618.00, 
1619.00, 
1620.00, 
1621.00, 
1622.00, 
1623.00, 
1624.00, 
1625.00, 
1626.00, 
1627.00, 
1628.00, 
1629.00, 
1630.00, 
1631.00, 
1632.00, 
1633.00, 
1634.00, 
1635.00, 
1636.00, 
1637.00, 
1638.00, 
1639.00, 
1640.00, 
1641.00, 
1642.00, 
1643.00, 
1644.00, 
1645.00, 
1646.00, 
1647.00, 
1648.00, 
1649.00, 
1650.00, 
1651.00, 
1652.00, 
1653.00, 
1654.00, 
1655.00, 
1656.00, 
1657.00, 
1658.00, 
1659.00, 
1660.00, 
1661.00, 
1662.00, 
1663.00, 
1664.00, 
1665.00, 
1666.00, 
1667.00, 
1668.00, 
1669.00, 
1670.00, 
1671.00, 
1672.00, 
1673.00, 
1674.00, 
1675.00, 
1676.00, 
1677.00, 
1678.00, 
1679.00, 
1680.00, 
1681.00, 
1682.00, 
1683.00, 
1684.00, 
1685.00, 
1686.00, 
1687.00, 
1688.00, 
1689.00, 
1690.00, 
1691.00, 
1692.00, 
1693.00, 
1694.00, 
1695.00, 
1696.00, 
1697.00, 
1698.00, 
1699.00, 
1700.00, 
1701.00, 
1702.00, 
1703.00, 
1704.00, 
1705.00, 
1706.00, 
1707.00, 
1708.00, 
1709.00, 
1710.00, 
1711.00, 
1712.00, 
1713.00, 
1714.00, 
1715.00, 
1716.00, 
1717.00, 
1718.00, 
1719.00, 
1720.00, 
1721.00, 
1722.00, 
1723.00, 
1724.00, 
1725.00, 
1726.00, 
1727.00, 
1728.00, 
1729.00, 
1730.00, 
1731.00, 
1732.00, 
1733.00, 
1734.00, 
1735.00, 
1736.00, 
1737.00, 
1738.00, 
1739.00, 
1740.00, 
1741.00, 
1742.00, 
1743.00, 
1744.00, 
1745.00, 
1746.00, 
1747.00, 
1748.00, 
1749.00, 
1750.00, 
1751.00, 
1752.00, 
1753.00, 
1754.00, 
1755.00, 
1756.00, 
1757.00, 
1758.00, 
1759.00, 
1760.00, 
1761.00, 
1762.00, 
1763.00, 
1764.00, 
1765.00, 
1766.00, 
1767.00, 
1768.00, 
1769.00, 
1770.00, 
1771.00, 
1772.00, 
1773.00, 
1774.00, 
1775.00, 
1776.00, 
1777.00, 
1778.00, 
1779.00, 
1780.00, 
1781.00, 
1782.00, 
1783.00, 
1784.00, 
1785.00, 
1786.00, 
1787.00, 
1788.00, 
1789.00, 
1790.00, 
1791.00, 
1792.00, 
1793.00, 
1794.00, 
1795.00, 
1796.00, 
1797.00, 
1798.00, 
1799.00, 
1800.00, 
1801.00, 
1802.00, 
1803.00, 
1804.00, 
1805.00, 
1806.00, 
1807.00, 
1808.00, 
1809.00, 
1810.00, 
1811.00, 
1812.00, 
1813.00, 
1814.00, 
1815.00, 
1816.00, 
1817.00, 
1818.00, 
1819.00, 
1820.00, 
1821.00, 
1822.00, 
1823.00, 
1824.00, 
1825.00, 
1826.00, 
1827.00, 
1828.00, 
1829.00, 
1830.00, 
1831.00, 
1832.00, 
1833.00, 
1834.00, 
1835.00, 
1836.00, 
1837.00, 
1838.00, 
1839.00, 
1840.00, 
1841.00, 
1842.00, 
1843.00, 
1844.00, 
1845.00, 
1846.00, 
1847.00, 
1848.00, 
1849.00, 
1850.00, 
1851.00, 
1852.00, 
1853.00, 
1854.00, 
1855.00, 
1856.00, 
1857.00, 
1858.00, 
1859.00, 
1860.00, 
1861.00, 
1862.00, 
1863.00, 
1864.00, 
1865.00, 
1866.00, 
1867.00, 
1868.00, 
1869.00, 
1870.00, 
1871.00, 
1872.00, 
1873.00, 
1874.00, 
1875.00, 
1876.00, 
1877.00, 
1878.00, 
1879.00, 
1880.00, 
1881.00, 
1882.00, 
1883.00, 
1884.00, 
1885.00, 
1886.00, 
1887.00, 
1888.00, 
1889.00, 
1890.00, 
1891.00, 
1892.00, 
1893.00, 
1894.00, 
1895.00, 
1896.00, 
1897.00, 
1898.00, 
1899.00, 
1900.00, 
1901.00, 
1902.00, 
1903.00, 
1904.00, 
1905.00, 
1906.00, 
1907.00, 
1908.00, 
1909.00, 
1910.00, 
1911.00, 
1912.00, 
1913.00, 
1914.00, 
1915.00, 
1916.00, 
1917.00, 
1918.00, 
1919.00, 
1920.00, 
1921.00, 
1922.00, 
1923.00, 
1924.00, 
1925.00, 
1926.00, 
1927.00, 
1928.00, 
1929.00, 
1930.00, 
1931.00, 
1932.00, 
1933.00, 
1934.00, 
1935.00, 
1936.00, 
1937.00, 
1938.00, 
1939.00, 
1940.00, 
1941.00, 
1942.00, 
1943.00, 
1944.00, 
1945.00, 
1946.00, 
1947.00, 
1948.00, 
1949.00, 
1950.00, 
1951.00, 
1952.00, 
1953.00, 
1954.00, 
1955.00, 
1956.00, 
1957.00, 
1958.00, 
1959.00, 
1960.00, 
1961.00, 
1962.00, 
1963.00, 
1964.00, 
1965.00, 
1966.00, 
1967.00, 
1968.00, 
1969.00, 
1970.00, 
1971.00, 
1972.00, 
1973.00, 
1974.00, 
1975.00, 
1976.00, 
1977.00, 
1978.00, 
1979.00, 
1980.00, 
1981.00, 
1982.00, 
1983.00, 
1984.00, 
1985.00, 
1986.00, 
1987.00, 
1988.00, 
1989.00, 
1990.00, 
1991.00, 
1992.00, 
1993.00, 
1994.00, 
1995.00, 
1996.00, 
1997.00, 
1998.00, 
1999.00, 
2000.00, 
2001.00, 
2002.00, 
2003.00, 
2004.00, 
2005.00, 
2006.00, 
2007.00, 
2008.00, 
2009.00, 
2010.00, 
2011.00, 
2012.00, 
2013.00, 
2014.00, 
2015.00, 
2016.00, 
2017.00, 
2018.00, 
2019.00, 
2020.00, 
2021.00, 
2022.00, 
2023.00, 
2024.00, 
2025.00, 
2026.00, 
2027.00, 
2028.00, 
2029.00, 
2030.00, 
2031.00, 
2032.00, 
2033.00, 
2034.00, 
2035.00, 
2036.00, 
2037.00, 
2038.00, 
2039.00, 
2040.00, 
2041.00, 
2042.00, 
2043.00, 
2044.00, 
2045.00, 
2046.00, 
2047.00, 
2048.00, 
2049.00, 
2050.00, 
2051.00, 
2052.00, 
2053.00, 
2054.00, 
2055.00, 
2056.00, 
2057.00, 
2058.00, 
2059.00, 
2060.00, 
2061.00, 
2062.00, 
2063.00, 
2064.00, 
2065.00, 
2066.00, 
2067.00, 
2068.00, 
2069.00, 
2070.00, 
2071.00, 
2072.00, 
2073.00, 
2074.00, 
2075.00, 
2076.00, 
2077.00, 
2078.00, 
2079.00, 
2080.00, 
2081.00, 
2082.00, 
2083.00, 
2084.00, 
2085.00, 
2086.00, 
2087.00, 
2088.00, 
2089.00, 
2090.00, 
2091.00, 
2092.00, 
2093.00, 
2094.00, 
2095.00, 
2096.00, 
2097.00, 
2098.00, 
2099.00, 
2100.00, 
2101.00, 
2102.00, 
2103.00, 
2104.00, 
2105.00, 
2106.00, 
2107.00, 
2108.00, 
2109.00, 
2110.00, 
2111.00, 
2112.00, 
2113.00, 
2114.00, 
2115.00, 
2116.00, 
2117.00, 
2118.00, 
2119.00, 
2120.00, 
2121.00, 
2122.00, 
2123.00, 
2124.00, 
2125.00, 
2126.00, 
2127.00, 
2128.00, 
2129.00, 
2130.00, 
2131.00, 
2132.00, 
2133.00, 
2134.00, 
2135.00, 
2136.00, 
2137.00, 
2138.00, 
2139.00, 
2140.00, 
2141.00, 
2142.00, 
2143.00, 
2144.00, 
2145.00, 
2146.00, 
2147.00, 
2148.00, 
2149.00, 
2150.00, 
2151.00, 
2152.00, 
2153.00, 
2154.00, 
2155.00, 
2156.00, 
2157.00, 
2158.00, 
2159.00, 
2160.00, 
2161.00, 
2162.00, 
2163.00, 
2164.00, 
2165.00, 
2166.00, 
2167.00, 
2168.00, 
2169.00, 
2170.00, 
2171.00, 
2172.00, 
2173.00, 
2174.00, 
2175.00, 
2176.00, 
2177.00, 
2178.00, 
2179.00, 
2180.00, 
2181.00, 
2182.00, 
2183.00, 
2184.00, 
2185.00, 
2186.00, 
2187.00, 
2188.00, 
2189.00, 
2190.00, 
2191.00, 
2192.00, 
2193.00, 
2194.00, 
2195.00, 
2196.00, 
2197.00, 
2198.00, 
2199.00, 
2200.00, 
2201.00, 
2202.00, 
2203.00, 
2204.00, 
2205.00, 
2206.00, 
2207.00, 
2208.00, 
2209.00, 
2210.00, 
2211.00, 
2212.00, 
2213.00, 
2214.00, 
2215.00, 
2216.00, 
2217.00, 
2218.00, 
2219.00, 
2220.00, 
2221.00, 
2222.00, 
2223.00, 
2224.00, 
2225.00, 
2226.00, 
2227.00, 
2228.00, 
2229.00, 
2230.00, 
2231.00, 
2232.00, 
2233.00, 
2234.00, 
2235.00, 
2236.00, 
2237.00, 
2238.00, 
2239.00, 
2240.00, 
2241.00, 
2242.00, 
2243.00, 
2244.00, 
2245.00, 
2246.00, 
2247.00, 
2248.00, 
2249.00, 
2250.00, 
2251.00, 
2252.00, 
2253.00, 
2254.00, 
2255.00, 
2256.00, 
2257.00, 
2258.00, 
2259.00, 
2260.00, 
2261.00, 
2262.00, 
2263.00, 
2264.00, 
2265.00, 
2266.00, 
2267.00, 
2268.00, 
2269.00, 
2270.00, 
2271.00, 
2272.00, 
2273.00, 
2274.00, 
2275.00, 
2276.00, 
2277.00, 
2278.00, 
2279.00, 
2280.00, 
2281.00, 
2282.00, 
2283.00, 
2284.00, 
2285.00, 
2286.00, 
2287.00, 
2288.00, 
2289.00, 
2290.00, 
2291.00, 
2292.00, 
2293.00, 
2294.00, 
2295.00, 
2296.00, 
2297.00, 
2298.00, 
2299.00, 
2300.00, 
2301.00, 
2302.00, 
2303.00, 
2304.00, 
2305.00, 
2306.00, 
2307.00, 
2308.00, 
2309.00, 
2310.00, 
2311.00, 
2312.00, 
2313.00, 
2314.00, 
2315.00, 
2316.00, 
2317.00, 
2318.00, 
2319.00, 
2320.00, 
2321.00, 
2322.00, 
2323.00, 
2324.00, 
2325.00, 
2326.00, 
2327.00, 
2328.00, 
2329.00, 
2330.00, 
2331.00, 
2332.00, 
2333.00, 
2334.00, 
2335.00, 
2336.00, 
2337.00, 
2338.00, 
2339.00, 
2340.00, 
2341.00, 
2342.00, 
2343.00, 
2344.00, 
2345.00, 
2346.00, 
2347.00, 
2348.00, 
2349.00, 
2350.00, 
2351.00, 
2352.00, 
2353.00, 
2354.00, 
2355.00, 
2356.00, 
2357.00, 
2358.00, 
2359.00, 
2360.00, 
2361.00, 
2362.00, 
2363.00, 
2364.00, 
2365.00, 
2366.00, 
2367.00, 
2368.00, 
2369.00, 
2370.00, 
2371.00, 
2372.00, 
2373.00, 
2374.00, 
2375.00, 
2376.00, 
2377.00, 
2378.00, 
2379.00, 
2380.00, 
2381.00, 
2382.00, 
2383.00, 
2384.00, 
2385.00, 
2386.00, 
2387.00, 
2388.00, 
2389.00, 
2390.00, 
2391.00, 
2392.00, 
2393.00, 
2394.00, 
2395.00, 
2396.00, 
2397.00, 
2398.00, 
2399.00, 
2400.00, 
2401.00, 
2402.00, 
2403.00, 
2404.00, 
2405.00, 
2406.00, 
2407.00, 
2408.00, 
2409.00, 
2410.00, 
2411.00, 
2412.00, 
2413.00, 
2414.00, 
2415.00, 
2416.00, 
2417.00, 
2418.00, 
2419.00, 
2420.00, 
2421.00, 
2422.00, 
2423.00, 
2424.00, 
2425.00, 
2426.00, 
2427.00, 
2428.00, 
2429.00, 
2430.00, 
2431.00, 
2432.00, 
2433.00, 
2434.00, 
2435.00, 
2436.00, 
2437.00, 
2438.00, 
2439.00, 
2440.00, 
2441.00, 
2442.00, 
2443.00, 
2444.00, 
2445.00, 
2446.00, 
2447.00, 
2448.00, 
2449.00, 
2450.00, 
2451.00, 
2452.00, 
2453.00, 
2454.00, 
2455.00, 
2456.00, 
2457.00, 
2458.00, 
2459.00, 
2460.00, 
2461.00, 
2462.00, 
2463.00, 
2464.00, 
2465.00, 
2466.00, 
2467.00, 
2468.00, 
2469.00, 
2470.00, 
2471.00, 
2472.00, 
2473.00, 
2474.00, 
2475.00, 
2476.00, 
2477.00, 
2478.00, 
2479.00, 
2480.00, 
2481.00, 
2482.00, 
2483.00, 
2484.00, 
2485.00, 
2486.00, 
2487.00, 
2488.00, 
2489.00, 
2490.00, 
2491.00, 
2492.00, 
2493.00, 
2494.00, 
2495.00, 
2496.00, 
2497.00, 
2498.00, 
2499.00, 
2500.00, 
2501.00, 
2502.00, 
2503.00, 
2504.00, 
2505.00, 
2506.00, 
2507.00, 
2508.00, 
2509.00, 
2510.00, 
2511.00, 
2512.00, 
2513.00, 
2514.00, 
2515.00, 
2516.00, 
2517.00, 
2518.00, 
2519.00, 
2520.00, 
2521.00, 
2522.00, 
2523.00, 
2524.00, 
2525.00, 
2526.00, 
2527.00, 
2528.00, 
2529.00, 
2530.00, 
2531.00, 
2532.00, 
2533.00, 
2534.00, 
2535.00, 
2536.00, 
2537.00, 
2538.00, 
2539.00, 
2540.00, 
2541.00, 
2542.00, 
2543.00, 
2544.00, 
2545.00, 
2546.00, 
2547.00, 
2548.00, 
2549.00, 
2550.00, 
2551.00, 
2552.00, 
2553.00, 
2554.00, 
2555.00, 
2556.00, 
2557.00, 
2558.00, 
2559.00, 
2560.00, 
2561.00, 
2562.00, 
2563.00, 
2564.00, 
2565.00, 
2566.00, 
2567.00, 
2568.00, 
2569.00, 
2570.00, 
2571.00, 
2572.00, 
2573.00, 
2574.00, 
2575.00, 
2576.00, 
2577.00, 
2578.00, 
2579.00, 
2580.00, 
2581.00, 
2582.00, 
2583.00, 
2584.00, 
2585.00, 
2586.00, 
2587.00, 
2588.00, 
2589.00, 
2590.00, 
2591.00, 
2592.00, 
2593.00, 
2594.00, 
2595.00, 
2596.00, 
2597.00, 
2598.00, 
2599.00, 
2600.00, 
