"2cP4 - RawData"
"Wavelength nm.","T%"
200.00,0.002
201.00,-0.001
202.00,0.001
203.00,0.004
204.00,0.003
205.00,0.000
206.00,0.002
207.00,0.003
208.00,-0.001
209.00,0.002
210.00,0.002
211.00,0.003
212.00,0.005
213.00,0.001
214.00,-0.001
215.00,0.001
216.00,0.002
217.00,-0.001
218.00,0.000
219.00,-0.001
220.00,-0.001
221.00,0.003
222.00,0.002
223.00,0.000
224.00,0.000
225.00,0.002
226.00,0.002
227.00,0.001
228.00,0.001
229.00,-0.000
230.00,0.002
231.00,0.001
232.00,0.002
233.00,0.001
234.00,0.001
235.00,0.001
236.00,0.000
237.00,0.001
238.00,-0.000
239.00,0.002
240.00,0.000
241.00,-0.000
242.00,-0.000
243.00,0.002
244.00,0.002
245.00,0.001
246.00,0.002
247.00,-0.000
248.00,0.000
249.00,0.001
250.00,-0.000
251.00,-0.001
252.00,0.002
253.00,-0.000
254.00,0.001
255.00,0.001
256.00,0.001
257.00,0.000
258.00,-0.001
259.00,0.000
260.00,0.000
261.00,-0.001
262.00,0.000
263.00,-0.000
264.00,-0.001
265.00,0.002
266.00,0.002
267.00,0.001
268.00,-0.002
269.00,0.001
270.00,-0.000
271.00,-0.000
272.00,0.001
273.00,0.001
274.00,0.001
275.00,0.000
276.00,-0.000
277.00,-0.001
278.00,0.001
279.00,0.000
280.00,0.002
281.00,0.001
282.00,-0.000
283.00,0.000
284.00,0.001
285.00,0.001
286.00,-0.000
287.00,-0.000
288.00,0.002
289.00,-0.000
290.00,-0.001
291.00,0.001
292.00,0.000
293.00,-0.001
294.00,0.001
295.00,-0.001
296.00,-0.000
297.00,0.000
298.00,0.001
299.00,0.002
300.00,0.001
301.00,0.004
302.00,0.006
303.00,0.008
304.00,0.012
305.00,0.018
306.00,0.031
307.00,0.046
308.00,0.073
309.00,0.110
310.00,0.151
311.00,0.201
312.00,0.276
313.00,0.381
314.00,0.501
315.00,0.653
316.00,0.830
317.00,1.047
318.00,1.272
319.00,1.579
320.00,1.926
321.00,2.310
322.00,2.719
323.00,3.215
324.00,3.748
325.00,4.249
326.00,4.804
327.00,5.415
328.00,6.065
329.00,6.699
330.00,7.381
331.00,7.941
332.00,8.772
333.00,9.509
334.00,10.185
335.00,10.949
336.00,11.652
337.00,12.390
338.00,13.083
339.00,13.692
340.00,14.385
341.00,15.034
342.00,15.666
343.00,16.213
344.00,16.780
345.00,17.324
346.00,17.868
347.00,18.334
348.00,18.835
349.00,19.220
350.00,19.656
351.00,20.043
352.00,20.385
353.00,20.723
354.00,21.047
355.00,21.326
356.00,21.614
357.00,21.883
358.00,22.148
359.00,22.360
360.00,22.597
361.00,22.774
362.00,22.981
363.00,23.151
364.00,23.286
365.00,23.380
366.00,23.508
367.00,23.595
368.00,23.648
369.00,23.712
370.00,23.801
371.00,23.841
372.00,23.843
373.00,23.827
374.00,23.874
375.00,23.916
376.00,23.854
377.00,23.839
378.00,23.756
379.00,23.742
380.00,23.739
381.00,23.762
382.00,23.727
383.00,23.718
384.00,23.836
385.00,23.832
386.00,23.871
387.00,23.933
388.00,23.987
389.00,24.022
390.00,24.069
391.00,24.114
392.00,24.138
393.00,24.145
394.00,24.185
395.00,24.207
396.00,24.198
397.00,24.206
398.00,24.261
399.00,24.244
400.00,24.272
401.00,24.266
402.00,24.273
403.00,24.268
404.00,24.284
405.00,24.285
406.00,24.280
407.00,24.248
408.00,24.269
409.00,24.211
410.00,24.204
411.00,24.204
412.00,24.182
413.00,24.168
414.00,24.181
415.00,24.208
416.00,24.231
417.00,24.227
418.00,24.250
419.00,24.320
420.00,24.360
421.00,24.407
422.00,24.420
423.00,24.485
424.00,24.543
425.00,24.564
426.00,24.632
427.00,24.687
428.00,24.688
429.00,24.728
430.00,24.794
431.00,24.831
432.00,24.904
433.00,24.998
434.00,25.046
435.00,25.103
436.00,25.171
437.00,25.249
438.00,25.326
439.00,25.399
440.00,25.488
441.00,25.593
442.00,25.654
443.00,25.746
444.00,25.830
445.00,25.922
446.00,25.986
447.00,26.125
448.00,26.243
449.00,26.329
450.00,26.430
451.00,26.548
452.00,26.667
453.00,26.771
454.00,26.884
455.00,26.962
456.00,27.085
457.00,27.225
458.00,27.321
459.00,27.419
460.00,27.537
461.00,27.721
462.00,27.796
463.00,27.911
464.00,28.086
465.00,28.181
466.00,28.328
467.00,28.481
468.00,28.504
469.00,28.589
470.00,28.764
471.00,28.759
472.00,28.990
473.00,29.088
474.00,29.184
475.00,29.334
476.00,29.442
477.00,29.540
478.00,29.682
479.00,29.847
480.00,29.985
481.00,30.101
482.00,30.264
483.00,30.424
484.00,30.566
485.00,30.706
486.00,30.878
487.00,30.990
488.00,31.120
489.00,31.276
490.00,31.433
491.00,31.532
492.00,31.631
493.00,31.838
494.00,31.993
495.00,32.039
496.00,32.157
497.00,32.250
498.00,32.378
499.00,32.554
500.00,32.669
501.00,32.733
502.00,32.897
503.00,32.962
504.00,33.124
505.00,33.254
506.00,33.339
507.00,33.435
508.00,33.581
509.00,33.713
510.00,33.850
511.00,33.924
512.00,34.078
513.00,34.253
514.00,34.302
515.00,34.457
516.00,34.538
517.00,34.571
518.00,34.749
519.00,34.812
520.00,34.863
521.00,34.972
522.00,35.056
523.00,35.117
524.00,35.195
525.00,35.290
526.00,35.394
527.00,35.426
528.00,35.497
529.00,35.650
530.00,35.812
531.00,35.945
532.00,35.963
533.00,36.050
534.00,36.141
535.00,36.236
536.00,36.302
537.00,36.415
538.00,36.451
539.00,36.508
540.00,36.556
541.00,36.613
542.00,36.679
543.00,36.748
544.00,36.811
545.00,36.826
546.00,36.891
547.00,36.994
548.00,37.074
549.00,37.172
550.00,37.217
551.00,37.292
552.00,37.365
553.00,37.378
554.00,37.422
555.00,37.480
556.00,37.555
557.00,37.548
558.00,37.532
559.00,37.696
560.00,37.859
561.00,37.840
562.00,37.937
563.00,37.986
564.00,37.978
565.00,38.026
566.00,38.082
567.00,38.112
568.00,38.158
569.00,38.213
570.00,38.235
571.00,38.282
572.00,38.312
573.00,38.285
574.00,38.316
575.00,38.319
576.00,38.375
577.00,38.443
578.00,38.534
579.00,38.580
580.00,38.651
581.00,38.782
582.00,38.883
583.00,38.843
584.00,38.896
585.00,38.927
586.00,39.005
587.00,39.068
588.00,39.177
589.00,39.148
590.00,39.198
591.00,39.147
592.00,39.162
593.00,39.279
594.00,39.416
595.00,39.466
596.00,39.541
597.00,39.574
598.00,39.583
599.00,39.588
600.00,39.654
601.00,39.748
602.00,39.717
603.00,39.794
604.00,39.870
605.00,39.768
606.00,39.838
607.00,39.940
608.00,39.979
609.00,40.103
610.00,40.210
611.00,40.161
612.00,40.162
613.00,40.218
614.00,40.181
615.00,40.309
616.00,40.439
617.00,40.352
618.00,40.408
619.00,40.486
620.00,40.475
621.00,40.585
622.00,40.687
623.00,40.699
624.00,40.792
625.00,40.861
626.00,40.874
627.00,40.922
628.00,40.973
629.00,41.067
630.00,41.089
631.00,41.141
632.00,41.225
633.00,41.327
634.00,41.403
635.00,41.499
636.00,41.554
637.00,41.578
638.00,41.625
639.00,41.809
640.00,41.822
641.00,41.792
642.00,41.895
643.00,41.957
644.00,41.976
645.00,42.091
646.00,42.269
647.00,42.206
648.00,42.245
649.00,42.346
650.00,42.369
651.00,42.578
652.00,42.708
653.00,42.621
654.00,42.709
655.00,42.992
656.00,43.175
657.00,43.018
658.00,43.097
659.00,43.258
660.00,43.223
661.00,43.250
662.00,43.427
663.00,43.480
664.00,43.764
665.00,43.873
666.00,43.752
667.00,43.877
668.00,43.850
669.00,44.041
670.00,44.350
671.00,44.256
672.00,44.237
673.00,44.419
674.00,44.517
675.00,44.455
676.00,44.649
677.00,44.894
678.00,44.549
679.00,44.882
680.00,45.165
681.00,45.124
682.00,45.131
683.00,45.149
684.00,45.305
685.00,45.452
686.00,45.301
687.00,45.360
688.00,45.530
689.00,45.430
690.00,45.834
691.00,46.051
692.00,45.938
693.00,45.835
694.00,46.006
695.00,46.185
696.00,46.200
697.00,46.132
698.00,46.281
699.00,46.460
700.00,46.520
701.00,46.511
702.00,46.655
703.00,46.820
704.00,46.809
705.00,46.784
706.00,46.870
707.00,46.915
708.00,46.845
709.00,47.217
710.00,47.555
711.00,47.079
712.00,47.173
713.00,47.317
714.00,47.365
715.00,47.508
716.00,47.477
717.00,47.607
718.00,47.734
719.00,47.720
720.00,47.716
721.00,52.417
722.00,52.424
723.00,52.345
724.00,52.431
725.00,52.495
726.00,52.438
727.00,52.426
728.00,52.378
729.00,52.486
730.00,52.499
731.00,52.559
732.00,52.600
733.00,52.645
734.00,52.658
735.00,52.632
736.00,52.733
737.00,52.721
738.00,52.830
739.00,52.785
740.00,52.717
741.00,52.816
742.00,52.836
743.00,52.825
744.00,52.777
745.00,52.805
746.00,52.794
747.00,52.823
748.00,52.798
749.00,52.904
750.00,52.846
751.00,52.791
752.00,52.803
753.00,52.887
754.00,52.812
755.00,52.785
756.00,52.882
757.00,52.793
758.00,52.888
759.00,52.831
760.00,52.841
761.00,52.823
762.00,52.875
763.00,52.900
764.00,52.903
765.00,52.867
766.00,52.919
767.00,52.976
768.00,52.914
769.00,52.974
770.00,52.937
771.00,52.958
772.00,53.042
773.00,52.918
774.00,52.916
775.00,52.948
776.00,53.040
777.00,53.063
778.00,53.036
779.00,53.049
780.00,52.928
781.00,52.963
782.00,53.006
783.00,52.941
784.00,53.081
785.00,52.937
786.00,53.009
787.00,52.929
788.00,52.972
789.00,52.887
790.00,52.798
791.00,52.925
792.00,52.876
793.00,52.845
794.00,52.847
795.00,52.985
796.00,52.861
797.00,52.770
798.00,52.859
799.00,52.782
800.00,52.748
801.00,52.710
802.00,52.808
803.00,52.677
804.00,52.710
805.00,52.720
806.00,52.665
807.00,52.675
808.00,52.687
809.00,52.637
810.00,52.569
811.00,52.651
812.00,52.592
813.00,52.570
814.00,52.570
815.00,52.634
816.00,52.621
817.00,52.552
818.00,52.563
819.00,52.504
820.00,52.433
821.00,52.430
822.00,52.391
823.00,52.463
824.00,52.469
825.00,52.445
826.00,52.462
827.00,52.438
828.00,52.489
829.00,52.288
830.00,52.411
831.00,54.488
832.00,54.464
833.00,54.451
834.00,54.428
835.00,54.385
836.00,54.424
837.00,54.388
838.00,54.379
839.00,54.373
840.00,54.308
841.00,54.320
842.00,54.292
843.00,54.282
844.00,54.278
845.00,54.218
846.00,54.226
847.00,54.215
848.00,54.187
849.00,54.087
850.00,54.175
851.00,54.043
852.00,54.057
853.00,53.989
854.00,54.006
855.00,53.918
856.00,53.952
857.00,53.869
858.00,53.871
859.00,53.846
860.00,53.846
861.00,53.806
862.00,53.819
863.00,53.784
864.00,53.653
865.00,53.740
866.00,53.725
867.00,53.752
868.00,53.699
869.00,53.699
870.00,53.664
871.00,53.666
872.00,53.668
873.00,53.688
874.00,53.663
875.00,53.645
876.00,53.644
877.00,53.647
878.00,53.606
879.00,53.582
880.00,53.591
881.00,53.550
882.00,53.582
883.00,53.543
884.00,53.501
885.00,53.483
886.00,53.447
887.00,53.451
888.00,53.404
889.00,53.411
890.00,53.373
891.00,53.350
892.00,53.362
893.00,53.301
894.00,53.323
895.00,53.302
896.00,53.265
897.00,53.248
898.00,53.219
899.00,53.212
900.00,53.206
901.00,53.208
902.00,53.183
903.00,53.165
904.00,53.136
905.00,53.136
906.00,53.151
907.00,53.115
908.00,53.007
909.00,53.130
910.00,53.014
911.00,53.005
912.00,53.022
913.00,52.964
914.00,52.959
915.00,52.930
916.00,52.912
917.00,52.885
918.00,52.885
919.00,52.820
920.00,52.804
921.00,52.777
922.00,52.772
923.00,52.754
924.00,52.775
925.00,52.726
926.00,52.748
927.00,52.699
928.00,52.696
929.00,52.668
930.00,52.639
931.00,52.616
932.00,52.591
933.00,52.599
934.00,52.575
935.00,52.543
936.00,52.534
937.00,52.505
938.00,52.490
939.00,52.475
940.00,52.470
941.00,52.464
942.00,52.421
943.00,52.433
944.00,52.401
945.00,52.397
946.00,52.384
947.00,52.342
948.00,52.312
949.00,52.270
950.00,52.254
951.00,52.253
952.00,52.223
953.00,52.197
954.00,52.188
955.00,52.142
956.00,52.126
957.00,52.102
958.00,52.096
959.00,52.069
960.00,52.051
961.00,52.024
962.00,52.023
963.00,51.986
964.00,51.982
965.00,51.974
966.00,51.994
967.00,51.940
968.00,51.933
969.00,51.931
970.00,51.929
971.00,51.948
972.00,51.904
973.00,51.939
974.00,51.953
975.00,51.940
976.00,51.943
977.00,51.922
978.00,51.976
979.00,51.970
980.00,51.956
981.00,51.945
982.00,51.931
983.00,51.900
984.00,51.904
985.00,51.917
986.00,51.867
987.00,51.882
988.00,51.863
989.00,51.858
990.00,51.845
991.00,51.825
992.00,51.858
993.00,51.816
994.00,51.776
995.00,51.778
996.00,51.787
997.00,51.742
998.00,51.736
999.00,51.745
1000.00,51.700
1001.00,51.719
1002.00,51.700
1003.00,51.716
1004.00,51.689
1005.00,51.648
1006.00,51.689
1007.00,51.660
1008.00,51.630
1009.00,51.618
1010.00,51.602
1011.00,51.600
1012.00,51.623
1013.00,51.577
1014.00,51.532
1015.00,51.552
1016.00,51.500
1017.00,51.511
1018.00,51.489
1019.00,51.449
1020.00,51.453
1021.00,51.435
1022.00,51.420
1023.00,51.381
1024.00,51.383
1025.00,51.374
1026.00,51.373
1027.00,51.375
1028.00,51.336
1029.00,51.322
1030.00,51.287
1031.00,51.302
1032.00,51.253
1033.00,51.250
1034.00,51.234
1035.00,51.181
1036.00,51.162
1037.00,51.158
1038.00,51.134
1039.00,51.100
1040.00,51.099
1041.00,51.065
1042.00,51.066
1043.00,51.041
1044.00,51.060
1045.00,51.061
1046.00,51.034
1047.00,51.050
1048.00,51.068
1049.00,51.061
1050.00,51.082
1051.00,51.116
1052.00,51.120
1053.00,51.126
1054.00,51.114
1055.00,51.132
1056.00,51.145
1057.00,51.131
1058.00,51.122
1059.00,51.125
1060.00,51.119
1061.00,51.106
1062.00,51.091
1063.00,51.088
1064.00,51.087
1065.00,51.088
1066.00,51.072
1067.00,51.073
1068.00,51.073
1069.00,51.059
1070.00,51.031
1071.00,51.000
1072.00,51.033
1073.00,51.016
1074.00,51.008
1075.00,50.992
1076.00,50.990
1077.00,50.966
1078.00,50.963
1079.00,50.950
1080.00,50.954
1081.00,50.944
1082.00,50.930
1083.00,50.932
1084.00,50.926
1085.00,50.907
1086.00,50.910
1087.00,50.893
1088.00,50.872
1089.00,50.872
1090.00,50.866
1091.00,50.868
1092.00,50.858
1093.00,50.824
1094.00,50.821
1095.00,50.798
1096.00,50.774
1097.00,50.783
1098.00,50.779
1099.00,50.774
1100.00,50.769
1101.00,50.752
1102.00,50.758
1103.00,50.748
1104.00,50.738
1105.00,50.728
1106.00,50.711
1107.00,50.693
1108.00,50.695
1109.00,50.677
1110.00,50.667
1111.00,50.672
1112.00,50.651
1113.00,50.645
1114.00,50.651
1115.00,50.638
1116.00,50.647
1117.00,50.632
1118.00,50.642
1119.00,50.624
1120.00,50.612
1121.00,50.599
1122.00,50.589
1123.00,50.568
1124.00,50.574
1125.00,50.566
1126.00,50.558
1127.00,50.562
1128.00,50.545
1129.00,50.510
1130.00,50.533
1131.00,50.514
1132.00,50.543
1133.00,50.570
1134.00,50.572
1135.00,50.475
1136.00,50.499
1137.00,50.482
1138.00,50.483
1139.00,50.484
1140.00,50.466
1141.00,50.457
1142.00,50.479
1143.00,50.468
1144.00,50.440
1145.00,50.435
1146.00,50.458
1147.00,50.425
1148.00,50.431
1149.00,50.481
1150.00,50.444
1151.00,50.423
1152.00,50.414
1153.00,50.406
1154.00,50.378
1155.00,50.401
1156.00,50.397
1157.00,50.400
1158.00,50.395
1159.00,50.377
1160.00,50.381
1161.00,50.377
1162.00,50.362
1163.00,50.380
1164.00,50.376
1165.00,50.374
1166.00,50.388
1167.00,50.377
1168.00,50.376
1169.00,50.374
1170.00,50.366
1171.00,50.345
1172.00,50.347
1173.00,50.344
1174.00,50.359
1175.00,50.339
1176.00,50.339
1177.00,50.343
1178.00,50.340
1179.00,50.361
1180.00,50.345
1181.00,50.351
1182.00,50.350
1183.00,50.336
1184.00,50.329
1185.00,50.351
1186.00,50.316
1187.00,50.309
1188.00,50.318
1189.00,50.310
1190.00,50.303
1191.00,50.305
1192.00,50.309
1193.00,50.315
1194.00,50.314
1195.00,50.275
1196.00,50.323
1197.00,50.322
1198.00,50.304
1199.00,50.305
1200.00,50.293
1201.00,50.299
1202.00,50.287
1203.00,50.284
1204.00,50.274
1205.00,50.297
1206.00,50.287
1207.00,50.330
1208.00,50.318
1209.00,50.319
1210.00,50.308
1211.00,50.285
1212.00,50.306
1213.00,50.279
1214.00,50.290
1215.00,50.272
1216.00,50.282
1217.00,50.276
1218.00,50.274
1219.00,50.280
1220.00,50.260
1221.00,50.290
1222.00,50.263
1223.00,50.279
1224.00,50.287
1225.00,50.255
1226.00,50.271
1227.00,50.259
1228.00,50.268
1229.00,50.289
1230.00,50.301
1231.00,50.294
1232.00,50.320
1233.00,50.306
1234.00,50.307
1235.00,50.315
1236.00,50.299
1237.00,50.313
1238.00,50.321
1239.00,50.319
1240.00,50.321
1241.00,50.309
1242.00,50.317
1243.00,50.345
1244.00,50.304
1245.00,50.338
1246.00,50.357
1247.00,50.327
1248.00,50.327
1249.00,50.346
1250.00,50.346
1251.00,50.352
1252.00,50.355
1253.00,50.351
1254.00,50.383
1255.00,50.380
1256.00,50.397
1257.00,50.361
1258.00,50.401
1259.00,50.379
1260.00,50.396
1261.00,50.380
1262.00,50.389
1263.00,50.374
1264.00,50.377
1265.00,50.395
1266.00,50.385
1267.00,50.394
1268.00,50.417
1269.00,50.404
1270.00,50.427
1271.00,50.412
1272.00,50.407
1273.00,50.423
1274.00,50.413
1275.00,50.416
1276.00,50.433
1277.00,50.426
1278.00,50.441
1279.00,50.435
1280.00,50.432
1281.00,50.453
1282.00,50.466
1283.00,50.432
1284.00,50.453
1285.00,50.447
1286.00,50.458
1287.00,50.471
1288.00,50.472
1289.00,50.471
1290.00,50.496
1291.00,50.480
1292.00,50.479
1293.00,50.473
1294.00,50.480
1295.00,50.514
1296.00,50.510
1297.00,50.517
1298.00,50.558
1299.00,50.535
1300.00,50.539
1301.00,50.541
1302.00,50.547
1303.00,50.567
1304.00,50.534
1305.00,50.561
1306.00,50.574
1307.00,50.564
1308.00,50.578
1309.00,50.587
1310.00,50.572
1311.00,50.561
1312.00,50.576
1313.00,50.577
1314.00,50.596
1315.00,50.599
1316.00,50.579
1317.00,50.615
1318.00,50.617
1319.00,50.608
1320.00,50.640
1321.00,50.789
1322.00,50.796
1323.00,50.784
1324.00,50.754
1325.00,50.758
1326.00,50.776
1327.00,50.769
1328.00,50.771
1329.00,50.748
1330.00,50.763
1331.00,50.767
1332.00,50.755
1333.00,50.770
1334.00,50.818
1335.00,50.823
1336.00,50.839
1337.00,50.880
1338.00,50.927
1339.00,50.974
1340.00,51.027
1341.00,51.085
1342.00,51.157
1343.00,51.190
1344.00,51.247
1345.00,51.322
1346.00,51.342
1347.00,51.370
1348.00,51.395
1349.00,51.414
1350.00,51.437
1351.00,51.450
1352.00,51.444
1353.00,51.438
1354.00,51.435
1355.00,51.416
1356.00,51.500
1357.00,51.475
1358.00,51.508
1359.00,51.521
1360.00,51.594
1361.00,51.496
1362.00,51.404
1363.00,51.476
1364.00,51.588
1365.00,51.501
1366.00,51.555
1367.00,51.453
1368.00,51.394
1369.00,51.439
1370.00,51.472
1371.00,51.378
1372.00,51.430
1373.00,51.442
1374.00,51.462
1375.00,51.447
1376.00,51.426
1377.00,51.424
1378.00,51.524
1379.00,51.484
1380.00,51.449
1381.00,51.487
1382.00,51.507
1383.00,51.476
1384.00,51.461
1385.00,51.345
1386.00,51.470
1387.00,51.398
1388.00,51.395
1389.00,51.378
1390.00,51.459
1391.00,51.434
1392.00,51.435
1393.00,51.568
1394.00,51.469
1395.00,51.435
1396.00,51.414
1397.00,51.355
1398.00,51.477
1399.00,51.462
1400.00,51.429
1401.00,51.415
1402.00,51.465
1403.00,51.463
1404.00,51.413
1405.00,51.494
1406.00,51.463
1407.00,51.498
1408.00,51.516
1409.00,51.458
1410.00,51.498
1411.00,51.511
1412.00,51.566
1413.00,51.502
1414.00,51.513
1415.00,51.554
1416.00,51.571
1417.00,51.616
1418.00,51.569
1419.00,51.559
1420.00,51.596
1421.00,51.629
1422.00,51.621
1423.00,51.617
1424.00,51.648
1425.00,51.658
1426.00,51.673
1427.00,51.681
1428.00,51.696
1429.00,51.704
1430.00,51.711
1431.00,51.725
1432.00,51.752
1433.00,51.766
1434.00,51.758
1435.00,51.841
1436.00,51.812
1437.00,51.797
1438.00,51.820
1439.00,51.839
1440.00,51.839
1441.00,51.849
1442.00,51.850
1443.00,51.888
1444.00,51.963
1445.00,51.914
1446.00,51.912
1447.00,51.968
1448.00,51.979
1449.00,51.987
1450.00,51.976
1451.00,52.000
1452.00,52.036
1453.00,52.027
1454.00,52.040
1455.00,52.072
1456.00,52.078
1457.00,52.086
1458.00,52.118
1459.00,52.129
1460.00,52.153
1461.00,52.157
1462.00,52.170
1463.00,52.175
1464.00,52.183
1465.00,52.214
1466.00,52.216
1467.00,52.233
1468.00,52.295
1469.00,52.270
1470.00,52.274
1471.00,52.300
1472.00,52.312
1473.00,52.323
1474.00,52.353
1475.00,52.352
1476.00,52.364
1477.00,52.370
1478.00,52.378
1479.00,52.404
1480.00,52.389
1481.00,52.394
1482.00,52.437
1483.00,52.440
1484.00,52.461
1485.00,52.479
1486.00,52.454
1487.00,52.499
1488.00,52.504
1489.00,52.499
1490.00,52.511
1491.00,52.530
1492.00,52.557
1493.00,52.541
1494.00,52.563
1495.00,52.569
1496.00,52.590
1497.00,52.579
1498.00,52.584
1499.00,52.620
1500.00,52.626
1501.00, 
1502.00, 
1503.00, 
1504.00, 
1505.00, 
1506.00, 
1507.00, 
1508.00, 
1509.00, 
1510.00, 
1511.00, 
1512.00, 
1513.00, 
1514.00, 
1515.00, 
1516.00, 
1517.00, 
1518.00, 
1519.00, 
1520.00, 
1521.00, 
1522.00, 
1523.00, 
1524.00, 
1525.00, 
1526.00, 
1527.00, 
1528.00, 
1529.00, 
1530.00, 
1531.00, 
1532.00, 
1533.00, 
1534.00, 
1535.00, 
1536.00, 
1537.00, 
1538.00, 
1539.00, 
1540.00, 
1541.00, 
1542.00, 
1543.00, 
1544.00, 
1545.00, 
1546.00, 
1547.00, 
1548.00, 
1549.00, 
1550.00, 
1551.00, 
1552.00, 
1553.00, 
1554.00, 
1555.00, 
1556.00, 
1557.00, 
1558.00, 
1559.00, 
1560.00, 
1561.00, 
1562.00, 
1563.00, 
1564.00, 
1565.00, 
1566.00, 
1567.00, 
1568.00, 
1569.00, 
1570.00, 
1571.00, 
1572.00, 
1573.00, 
1574.00, 
1575.00, 
1576.00, 
1577.00, 
1578.00, 
1579.00, 
1580.00, 
1581.00, 
1582.00, 
1583.00, 
1584.00, 
1585.00, 
1586.00, 
1587.00, 
1588.00, 
1589.00, 
1590.00, 
1591.00, 
1592.00, 
1593.00, 
1594.00, 
1595.00, 
1596.00, 
1597.00, 
1598.00, 
1599.00, 
1600.00, 
1601.00, 
1602.00, 
1603.00, 
1604.00, 
1605.00, 
1606.00, 
1607.00, 
1608.00, 
1609.00, 
1610.00, 
1611.00, 
1612.00, 
1613.00, 
1614.00, 
1615.00, 
1616.00, 
1617.00, 
1618.00, 
1619.00, 
1620.00, 
1621.00, 
1622.00, 
1623.00, 
1624.00, 
1625.00, 
1626.00, 
1627.00, 
1628.00, 
1629.00, 
1630.00, 
1631.00, 
1632.00, 
1633.00, 
1634.00, 
1635.00, 
1636.00, 
1637.00, 
1638.00, 
1639.00, 
1640.00, 
1641.00, 
1642.00, 
1643.00, 
1644.00, 
1645.00, 
1646.00, 
1647.00, 
1648.00, 
1649.00, 
1650.00, 
1651.00, 
1652.00, 
1653.00, 
1654.00, 
1655.00, 
1656.00, 
1657.00, 
1658.00, 
1659.00, 
1660.00, 
1661.00, 
1662.00, 
1663.00, 
1664.00, 
1665.00, 
1666.00, 
1667.00, 
1668.00, 
1669.00, 
1670.00, 
1671.00, 
1672.00, 
1673.00, 
1674.00, 
1675.00, 
1676.00, 
1677.00, 
1678.00, 
1679.00, 
1680.00, 
1681.00, 
1682.00, 
1683.00, 
1684.00, 
1685.00, 
1686.00, 
1687.00, 
1688.00, 
1689.00, 
1690.00, 
1691.00, 
1692.00, 
1693.00, 
1694.00, 
1695.00, 
1696.00, 
1697.00, 
1698.00, 
1699.00, 
1700.00, 
1701.00, 
1702.00, 
1703.00, 
1704.00, 
1705.00, 
1706.00, 
1707.00, 
1708.00, 
1709.00, 
1710.00, 
1711.00, 
1712.00, 
1713.00, 
1714.00, 
1715.00, 
1716.00, 
1717.00, 
1718.00, 
1719.00, 
1720.00, 
1721.00, 
1722.00, 
1723.00, 
1724.00, 
1725.00, 
1726.00, 
1727.00, 
1728.00, 
1729.00, 
1730.00, 
1731.00, 
1732.00, 
1733.00, 
1734.00, 
1735.00, 
1736.00, 
1737.00, 
1738.00, 
1739.00, 
1740.00, 
1741.00, 
1742.00, 
1743.00, 
1744.00, 
1745.00, 
1746.00, 
1747.00, 
1748.00, 
1749.00, 
1750.00, 
1751.00, 
1752.00, 
1753.00, 
1754.00, 
1755.00, 
1756.00, 
1757.00, 
1758.00, 
1759.00, 
1760.00, 
1761.00, 
1762.00, 
1763.00, 
1764.00, 
1765.00, 
1766.00, 
1767.00, 
1768.00, 
1769.00, 
1770.00, 
1771.00, 
1772.00, 
1773.00, 
1774.00, 
1775.00, 
1776.00, 
1777.00, 
1778.00, 
1779.00, 
1780.00, 
1781.00, 
1782.00, 
1783.00, 
1784.00, 
1785.00, 
1786.00, 
1787.00, 
1788.00, 
1789.00, 
1790.00, 
1791.00, 
1792.00, 
1793.00, 
1794.00, 
1795.00, 
1796.00, 
1797.00, 
1798.00, 
1799.00, 
1800.00, 
1801.00, 
1802.00, 
1803.00, 
1804.00, 
1805.00, 
1806.00, 
1807.00, 
1808.00, 
1809.00, 
1810.00, 
1811.00, 
1812.00, 
1813.00, 
1814.00, 
1815.00, 
1816.00, 
1817.00, 
1818.00, 
1819.00, 
1820.00, 
1821.00, 
1822.00, 
1823.00, 
1824.00, 
1825.00, 
1826.00, 
1827.00, 
1828.00, 
1829.00, 
1830.00, 
1831.00, 
1832.00, 
1833.00, 
1834.00, 
1835.00, 
1836.00, 
1837.00, 
1838.00, 
1839.00, 
1840.00, 
1841.00, 
1842.00, 
1843.00, 
1844.00, 
1845.00, 
1846.00, 
1847.00, 
1848.00, 
1849.00, 
1850.00, 
1851.00, 
1852.00, 
1853.00, 
1854.00, 
1855.00, 
1856.00, 
1857.00, 
1858.00, 
1859.00, 
1860.00, 
1861.00, 
1862.00, 
1863.00, 
1864.00, 
1865.00, 
1866.00, 
1867.00, 
1868.00, 
1869.00, 
1870.00, 
1871.00, 
1872.00, 
1873.00, 
1874.00, 
1875.00, 
1876.00, 
1877.00, 
1878.00, 
1879.00, 
1880.00, 
1881.00, 
1882.00, 
1883.00, 
1884.00, 
1885.00, 
1886.00, 
1887.00, 
1888.00, 
1889.00, 
1890.00, 
1891.00, 
1892.00, 
1893.00, 
1894.00, 
1895.00, 
1896.00, 
1897.00, 
1898.00, 
1899.00, 
1900.00, 
1901.00, 
1902.00, 
1903.00, 
1904.00, 
1905.00, 
1906.00, 
1907.00, 
1908.00, 
1909.00, 
1910.00, 
1911.00, 
1912.00, 
1913.00, 
1914.00, 
1915.00, 
1916.00, 
1917.00, 
1918.00, 
1919.00, 
1920.00, 
1921.00, 
1922.00, 
1923.00, 
1924.00, 
1925.00, 
1926.00, 
1927.00, 
1928.00, 
1929.00, 
1930.00, 
1931.00, 
1932.00, 
1933.00, 
1934.00, 
1935.00, 
1936.00, 
1937.00, 
1938.00, 
1939.00, 
1940.00, 
1941.00, 
1942.00, 
1943.00, 
1944.00, 
1945.00, 
1946.00, 
1947.00, 
1948.00, 
1949.00, 
1950.00, 
1951.00, 
1952.00, 
1953.00, 
1954.00, 
1955.00, 
1956.00, 
1957.00, 
1958.00, 
1959.00, 
1960.00, 
1961.00, 
1962.00, 
1963.00, 
1964.00, 
1965.00, 
1966.00, 
1967.00, 
1968.00, 
1969.00, 
1970.00, 
1971.00, 
1972.00, 
1973.00, 
1974.00, 
1975.00, 
1976.00, 
1977.00, 
1978.00, 
1979.00, 
1980.00, 
1981.00, 
1982.00, 
1983.00, 
1984.00, 
1985.00, 
1986.00, 
1987.00, 
1988.00, 
1989.00, 
1990.00, 
1991.00, 
1992.00, 
1993.00, 
1994.00, 
1995.00, 
1996.00, 
1997.00, 
1998.00, 
1999.00, 
2000.00, 
2001.00, 
2002.00, 
2003.00, 
2004.00, 
2005.00, 
2006.00, 
2007.00, 
2008.00, 
2009.00, 
2010.00, 
2011.00, 
2012.00, 
2013.00, 
2014.00, 
2015.00, 
2016.00, 
2017.00, 
2018.00, 
2019.00, 
2020.00, 
2021.00, 
2022.00, 
2023.00, 
2024.00, 
2025.00, 
2026.00, 
2027.00, 
2028.00, 
2029.00, 
2030.00, 
2031.00, 
2032.00, 
2033.00, 
2034.00, 
2035.00, 
2036.00, 
2037.00, 
2038.00, 
2039.00, 
2040.00, 
2041.00, 
2042.00, 
2043.00, 
2044.00, 
2045.00, 
2046.00, 
2047.00, 
2048.00, 
2049.00, 
2050.00, 
2051.00, 
2052.00, 
2053.00, 
2054.00, 
2055.00, 
2056.00, 
2057.00, 
2058.00, 
2059.00, 
2060.00, 
2061.00, 
2062.00, 
2063.00, 
2064.00, 
2065.00, 
2066.00, 
2067.00, 
2068.00, 
2069.00, 
2070.00, 
2071.00, 
2072.00, 
2073.00, 
2074.00, 
2075.00, 
2076.00, 
2077.00, 
2078.00, 
2079.00, 
2080.00, 
2081.00, 
2082.00, 
2083.00, 
2084.00, 
2085.00, 
2086.00, 
2087.00, 
2088.00, 
2089.00, 
2090.00, 
2091.00, 
2092.00, 
2093.00, 
2094.00, 
2095.00, 
2096.00, 
2097.00, 
2098.00, 
2099.00, 
2100.00, 
2101.00, 
2102.00, 
2103.00, 
2104.00, 
2105.00, 
2106.00, 
2107.00, 
2108.00, 
2109.00, 
2110.00, 
2111.00, 
2112.00, 
2113.00, 
2114.00, 
2115.00, 
2116.00, 
2117.00, 
2118.00, 
2119.00, 
2120.00, 
2121.00, 
2122.00, 
2123.00, 
2124.00, 
2125.00, 
2126.00, 
2127.00, 
2128.00, 
2129.00, 
2130.00, 
2131.00, 
2132.00, 
2133.00, 
2134.00, 
2135.00, 
2136.00, 
2137.00, 
2138.00, 
2139.00, 
2140.00, 
2141.00, 
2142.00, 
2143.00, 
2144.00, 
2145.00, 
2146.00, 
2147.00, 
2148.00, 
2149.00, 
2150.00, 
2151.00, 
2152.00, 
2153.00, 
2154.00, 
2155.00, 
2156.00, 
2157.00, 
2158.00, 
2159.00, 
2160.00, 
2161.00, 
2162.00, 
2163.00, 
2164.00, 
2165.00, 
2166.00, 
2167.00, 
2168.00, 
2169.00, 
2170.00, 
2171.00, 
2172.00, 
2173.00, 
2174.00, 
2175.00, 
2176.00, 
2177.00, 
2178.00, 
2179.00, 
2180.00, 
2181.00, 
2182.00, 
2183.00, 
2184.00, 
2185.00, 
2186.00, 
2187.00, 
2188.00, 
2189.00, 
2190.00, 
2191.00, 
2192.00, 
2193.00, 
2194.00, 
2195.00, 
2196.00, 
2197.00, 
2198.00, 
2199.00, 
2200.00, 
2201.00, 
2202.00, 
2203.00, 
2204.00, 
2205.00, 
2206.00, 
2207.00, 
2208.00, 
2209.00, 
2210.00, 
2211.00, 
2212.00, 
2213.00, 
2214.00, 
2215.00, 
2216.00, 
2217.00, 
2218.00, 
2219.00, 
2220.00, 
2221.00, 
2222.00, 
2223.00, 
2224.00, 
2225.00, 
2226.00, 
2227.00, 
2228.00, 
2229.00, 
2230.00, 
2231.00, 
2232.00, 
2233.00, 
2234.00, 
2235.00, 
2236.00, 
2237.00, 
2238.00, 
2239.00, 
2240.00, 
2241.00, 
2242.00, 
2243.00, 
2244.00, 
2245.00, 
2246.00, 
2247.00, 
2248.00, 
2249.00, 
2250.00, 
2251.00, 
2252.00, 
2253.00, 
2254.00, 
2255.00, 
2256.00, 
2257.00, 
2258.00, 
2259.00, 
2260.00, 
2261.00, 
2262.00, 
2263.00, 
2264.00, 
2265.00, 
2266.00, 
2267.00, 
2268.00, 
2269.00, 
2270.00, 
2271.00, 
2272.00, 
2273.00, 
2274.00, 
2275.00, 
2276.00, 
2277.00, 
2278.00, 
2279.00, 
2280.00, 
2281.00, 
2282.00, 
2283.00, 
2284.00, 
2285.00, 
2286.00, 
2287.00, 
2288.00, 
2289.00, 
2290.00, 
2291.00, 
2292.00, 
2293.00, 
2294.00, 
2295.00, 
2296.00, 
2297.00, 
2298.00, 
2299.00, 
2300.00, 
2301.00, 
2302.00, 
2303.00, 
2304.00, 
2305.00, 
2306.00, 
2307.00, 
2308.00, 
2309.00, 
2310.00, 
2311.00, 
2312.00, 
2313.00, 
2314.00, 
2315.00, 
2316.00, 
2317.00, 
2318.00, 
2319.00, 
2320.00, 
2321.00, 
2322.00, 
2323.00, 
2324.00, 
2325.00, 
2326.00, 
2327.00, 
2328.00, 
2329.00, 
2330.00, 
2331.00, 
2332.00, 
2333.00, 
2334.00, 
2335.00, 
2336.00, 
2337.00, 
2338.00, 
2339.00, 
2340.00, 
2341.00, 
2342.00, 
2343.00, 
2344.00, 
2345.00, 
2346.00, 
2347.00, 
2348.00, 
2349.00, 
2350.00, 
2351.00, 
2352.00, 
2353.00, 
2354.00, 
2355.00, 
2356.00, 
2357.00, 
2358.00, 
2359.00, 
2360.00, 
2361.00, 
2362.00, 
2363.00, 
2364.00, 
2365.00, 
2366.00, 
2367.00, 
2368.00, 
2369.00, 
2370.00, 
2371.00, 
2372.00, 
2373.00, 
2374.00, 
2375.00, 
2376.00, 
2377.00, 
2378.00, 
2379.00, 
2380.00, 
2381.00, 
2382.00, 
2383.00, 
2384.00, 
2385.00, 
2386.00, 
2387.00, 
2388.00, 
2389.00, 
2390.00, 
2391.00, 
2392.00, 
2393.00, 
2394.00, 
2395.00, 
2396.00, 
2397.00, 
2398.00, 
2399.00, 
2400.00, 
2401.00, 
2402.00, 
2403.00, 
2404.00, 
2405.00, 
2406.00, 
2407.00, 
2408.00, 
2409.00, 
2410.00, 
2411.00, 
2412.00, 
2413.00, 
2414.00, 
2415.00, 
2416.00, 
2417.00, 
2418.00, 
2419.00, 
2420.00, 
2421.00, 
2422.00, 
2423.00, 
2424.00, 
2425.00, 
2426.00, 
2427.00, 
2428.00, 
2429.00, 
2430.00, 
2431.00, 
2432.00, 
2433.00, 
2434.00, 
2435.00, 
2436.00, 
2437.00, 
2438.00, 
2439.00, 
2440.00, 
2441.00, 
2442.00, 
2443.00, 
2444.00, 
2445.00, 
2446.00, 
2447.00, 
2448.00, 
2449.00, 
2450.00, 
2451.00, 
2452.00, 
2453.00, 
2454.00, 
2455.00, 
2456.00, 
2457.00, 
2458.00, 
2459.00, 
2460.00, 
2461.00, 
2462.00, 
2463.00, 
2464.00, 
2465.00, 
2466.00, 
2467.00, 
2468.00, 
2469.00, 
2470.00, 
2471.00, 
2472.00, 
2473.00, 
2474.00, 
2475.00, 
2476.00, 
2477.00, 
2478.00, 
2479.00, 
2480.00, 
2481.00, 
2482.00, 
2483.00, 
2484.00, 
2485.00, 
2486.00, 
2487.00, 
2488.00, 
2489.00, 
2490.00, 
2491.00, 
2492.00, 
2493.00, 
2494.00, 
2495.00, 
2496.00, 
2497.00, 
2498.00, 
2499.00, 
2500.00, 
2501.00, 
2502.00, 
2503.00, 
2504.00, 
2505.00, 
2506.00, 
2507.00, 
2508.00, 
2509.00, 
2510.00, 
2511.00, 
2512.00, 
2513.00, 
2514.00, 
2515.00, 
2516.00, 
2517.00, 
2518.00, 
2519.00, 
2520.00, 
2521.00, 
2522.00, 
2523.00, 
2524.00, 
2525.00, 
2526.00, 
2527.00, 
2528.00, 
2529.00, 
2530.00, 
2531.00, 
2532.00, 
2533.00, 
2534.00, 
2535.00, 
2536.00, 
2537.00, 
2538.00, 
2539.00, 
2540.00, 
2541.00, 
2542.00, 
2543.00, 
2544.00, 
2545.00, 
2546.00, 
2547.00, 
2548.00, 
2549.00, 
2550.00, 
2551.00, 
2552.00, 
2553.00, 
2554.00, 
2555.00, 
2556.00, 
2557.00, 
2558.00, 
2559.00, 
2560.00, 
2561.00, 
2562.00, 
2563.00, 
2564.00, 
2565.00, 
2566.00, 
2567.00, 
2568.00, 
2569.00, 
2570.00, 
2571.00, 
2572.00, 
2573.00, 
2574.00, 
2575.00, 
2576.00, 
2577.00, 
2578.00, 
2579.00, 
2580.00, 
2581.00, 
2582.00, 
2583.00, 
2584.00, 
2585.00, 
2586.00, 
2587.00, 
2588.00, 
2589.00, 
2590.00, 
2591.00, 
2592.00, 
2593.00, 
2594.00, 
2595.00, 
2596.00, 
2597.00, 
2598.00, 
2599.00, 
2600.00, 
