"2cP5 - RawData"
"Wavelength nm.","T%"
200.00,0.000
201.00,0.001
202.00,0.004
203.00,-0.001
204.00,0.005
205.00,0.000
206.00,0.002
207.00,-0.002
208.00,0.003
209.00,-0.001
210.00,0.003
211.00,0.002
212.00,-0.002
213.00,0.002
214.00,0.001
215.00,0.001
216.00,0.001
217.00,0.003
218.00,0.003
219.00,0.004
220.00,0.000
221.00,0.002
222.00,0.002
223.00,0.000
224.00,-0.001
225.00,0.002
226.00,0.000
227.00,-0.000
228.00,0.001
229.00,0.003
230.00,0.001
231.00,0.001
232.00,0.001
233.00,-0.001
234.00,0.002
235.00,0.001
236.00,0.002
237.00,0.002
238.00,0.002
239.00,0.002
240.00,0.001
241.00,0.001
242.00,0.000
243.00,0.001
244.00,-0.000
245.00,-0.001
246.00,0.000
247.00,0.000
248.00,0.002
249.00,0.000
250.00,0.001
251.00,-0.000
252.00,-0.000
253.00,-0.000
254.00,0.000
255.00,0.002
256.00,-0.000
257.00,0.000
258.00,-0.000
259.00,0.001
260.00,0.002
261.00,0.001
262.00,0.001
263.00,-0.001
264.00,-0.001
265.00,0.000
266.00,-0.000
267.00,0.001
268.00,-0.001
269.00,-0.000
270.00,0.001
271.00,0.001
272.00,0.001
273.00,0.000
274.00,0.000
275.00,-0.000
276.00,0.001
277.00,0.001
278.00,0.000
279.00,0.000
280.00,0.001
281.00,0.000
282.00,-0.001
283.00,0.000
284.00,0.001
285.00,-0.001
286.00,-0.002
287.00,0.001
288.00,-0.000
289.00,0.002
290.00,-0.001
291.00,-0.001
292.00,-0.000
293.00,0.002
294.00,0.001
295.00,0.001
296.00,0.002
297.00,0.002
298.00,0.001
299.00,0.001
300.00,0.002
301.00,0.004
302.00,0.006
303.00,0.008
304.00,0.011
305.00,0.019
306.00,0.028
307.00,0.040
308.00,0.064
309.00,0.100
310.00,0.142
311.00,0.186
312.00,0.262
313.00,0.353
314.00,0.460
315.00,0.598
316.00,0.768
317.00,0.964
318.00,1.200
319.00,1.443
320.00,1.789
321.00,2.137
322.00,2.522
323.00,2.977
324.00,3.459
325.00,3.942
326.00,4.444
327.00,5.023
328.00,5.592
329.00,6.189
330.00,6.826
331.00,7.445
332.00,8.108
333.00,8.795
334.00,9.447
335.00,10.123
336.00,10.775
337.00,11.451
338.00,12.117
339.00,12.662
340.00,13.273
341.00,13.917
342.00,14.497
343.00,14.978
344.00,15.507
345.00,16.043
346.00,16.535
347.00,16.964
348.00,17.411
349.00,17.806
350.00,18.182
351.00,18.533
352.00,18.817
353.00,19.148
354.00,19.445
355.00,19.705
356.00,19.945
357.00,20.175
358.00,20.393
359.00,20.616
360.00,20.826
361.00,20.999
362.00,21.215
363.00,21.323
364.00,21.427
365.00,21.517
366.00,21.615
367.00,21.682
368.00,21.756
369.00,21.850
370.00,21.862
371.00,21.899
372.00,21.888
373.00,21.881
374.00,21.895
375.00,21.912
376.00,21.898
377.00,21.861
378.00,21.794
379.00,21.727
380.00,21.759
381.00,21.738
382.00,21.761
383.00,21.757
384.00,21.788
385.00,21.799
386.00,21.810
387.00,21.894
388.00,21.921
389.00,21.935
390.00,21.995
391.00,22.024
392.00,22.041
393.00,22.004
394.00,22.074
395.00,22.079
396.00,22.072
397.00,22.123
398.00,22.120
399.00,22.053
400.00,22.108
401.00,22.108
402.00,22.135
403.00,22.102
404.00,22.094
405.00,22.109
406.00,22.088
407.00,22.048
408.00,22.077
409.00,22.062
410.00,22.027
411.00,22.026
412.00,22.005
413.00,22.009
414.00,21.995
415.00,22.045
416.00,22.059
417.00,22.033
418.00,22.059
419.00,22.122
420.00,22.157
421.00,22.214
422.00,22.216
423.00,22.298
424.00,22.364
425.00,22.381
426.00,22.409
427.00,22.476
428.00,22.480
429.00,22.526
430.00,22.614
431.00,22.661
432.00,22.710
433.00,22.757
434.00,22.832
435.00,22.905
436.00,22.961
437.00,23.046
438.00,23.100
439.00,23.163
440.00,23.252
441.00,23.337
442.00,23.440
443.00,23.494
444.00,23.606
445.00,23.678
446.00,23.816
447.00,23.876
448.00,24.007
449.00,24.100
450.00,24.211
451.00,24.267
452.00,24.423
453.00,24.523
454.00,24.622
455.00,24.747
456.00,24.881
457.00,24.986
458.00,25.082
459.00,25.204
460.00,25.336
461.00,25.508
462.00,25.603
463.00,25.744
464.00,25.870
465.00,26.021
466.00,26.137
467.00,26.297
468.00,26.357
469.00,26.448
470.00,26.575
471.00,26.699
472.00,26.796
473.00,26.906
474.00,27.058
475.00,27.155
476.00,27.274
477.00,27.402
478.00,27.518
479.00,27.703
480.00,27.842
481.00,27.978
482.00,28.143
483.00,28.297
484.00,28.457
485.00,28.571
486.00,28.765
487.00,28.895
488.00,28.987
489.00,29.175
490.00,29.331
491.00,29.472
492.00,29.567
493.00,29.770
494.00,29.928
495.00,29.999
496.00,30.026
497.00,30.225
498.00,30.389
499.00,30.518
500.00,30.670
501.00,30.736
502.00,30.912
503.00,31.026
504.00,31.131
505.00,31.236
506.00,31.381
507.00,31.483
508.00,31.620
509.00,31.753
510.00,31.887
511.00,32.006
512.00,32.161
513.00,32.274
514.00,32.369
515.00,32.567
516.00,32.598
517.00,32.722
518.00,32.883
519.00,32.922
520.00,32.995
521.00,33.087
522.00,33.208
523.00,33.250
524.00,33.349
525.00,33.474
526.00,33.556
527.00,33.599
528.00,33.643
529.00,33.795
530.00,33.974
531.00,34.111
532.00,34.161
533.00,34.291
534.00,34.391
535.00,34.422
536.00,34.521
537.00,34.634
538.00,34.693
539.00,34.785
540.00,34.821
541.00,34.877
542.00,34.930
543.00,34.979
544.00,35.106
545.00,35.173
546.00,35.190
547.00,35.282
548.00,35.379
549.00,35.417
550.00,35.499
551.00,35.622
552.00,35.711
553.00,35.738
554.00,35.766
555.00,35.822
556.00,35.896
557.00,35.958
558.00,36.024
559.00,36.075
560.00,36.105
561.00,36.165
562.00,36.233
563.00,36.260
564.00,36.305
565.00,36.362
566.00,36.399
567.00,36.408
568.00,36.432
569.00,36.530
570.00,36.521
571.00,36.620
572.00,36.641
573.00,36.519
574.00,36.590
575.00,36.705
576.00,36.642
577.00,36.780
578.00,36.908
579.00,36.920
580.00,36.966
581.00,37.117
582.00,37.168
583.00,37.191
584.00,37.303
585.00,37.352
586.00,37.414
587.00,37.465
588.00,37.526
589.00,37.463
590.00,37.590
591.00,37.659
592.00,37.552
593.00,37.603
594.00,37.683
595.00,37.785
596.00,37.881
597.00,37.907
598.00,38.012
599.00,38.035
600.00,38.073
601.00,38.092
602.00,38.086
603.00,38.084
604.00,38.167
605.00,38.204
606.00,38.280
607.00,38.232
608.00,38.288
609.00,38.365
610.00,38.496
611.00,38.436
612.00,38.400
613.00,38.550
614.00,38.570
615.00,38.494
616.00,38.625
617.00,38.708
618.00,38.808
619.00,38.801
620.00,38.860
621.00,38.946
622.00,39.035
623.00,39.072
624.00,39.169
625.00,39.200
626.00,39.199
627.00,39.242
628.00,39.330
629.00,39.393
630.00,39.438
631.00,39.536
632.00,39.619
633.00,39.673
634.00,39.810
635.00,39.876
636.00,39.937
637.00,39.988
638.00,40.035
639.00,40.123
640.00,40.206
641.00,40.187
642.00,40.280
643.00,40.361
644.00,40.390
645.00,40.452
646.00,40.661
647.00,40.692
648.00,40.721
649.00,40.741
650.00,40.771
651.00,40.985
652.00,41.084
653.00,41.040
654.00,41.078
655.00,41.370
656.00,41.555
657.00,41.494
658.00,41.576
659.00,41.577
660.00,41.670
661.00,41.638
662.00,41.819
663.00,41.891
664.00,42.124
665.00,42.307
666.00,42.295
667.00,42.280
668.00,42.297
669.00,42.472
670.00,42.804
671.00,42.786
672.00,42.893
673.00,42.841
674.00,42.923
675.00,43.056
676.00,43.023
677.00,43.431
678.00,43.456
679.00,43.491
680.00,43.602
681.00,43.760
682.00,43.747
683.00,43.780
684.00,43.850
685.00,44.079
686.00,44.086
687.00,44.184
688.00,44.130
689.00,44.136
690.00,44.408
691.00,44.662
692.00,44.585
693.00,44.615
694.00,44.867
695.00,44.960
696.00,45.028
697.00,44.903
698.00,45.006
699.00,45.179
700.00,45.339
701.00,45.285
702.00,45.388
703.00,45.664
704.00,45.617
705.00,45.616
706.00,45.729
707.00,45.824
708.00,45.679
709.00,46.079
710.00,46.439
711.00,45.994
712.00,46.091
713.00,46.225
714.00,46.155
715.00,46.436
716.00,46.493
717.00,46.550
718.00,46.779
719.00,46.740
720.00,46.762
721.00,51.386
722.00,51.247
723.00,51.290
724.00,51.397
725.00,51.403
726.00,51.426
727.00,51.431
728.00,51.459
729.00,51.502
730.00,51.486
731.00,51.594
732.00,51.600
733.00,51.692
734.00,51.815
735.00,51.763
736.00,51.746
737.00,51.808
738.00,51.846
739.00,51.941
740.00,51.845
741.00,51.906
742.00,51.990
743.00,51.908
744.00,51.983
745.00,51.962
746.00,52.020
747.00,52.051
748.00,51.973
749.00,52.063
750.00,52.025
751.00,51.991
752.00,52.000
753.00,52.070
754.00,52.063
755.00,52.014
756.00,52.082
757.00,52.041
758.00,52.144
759.00,52.103
760.00,52.124
761.00,52.146
762.00,52.248
763.00,52.263
764.00,52.181
765.00,52.223
766.00,52.278
767.00,52.287
768.00,52.245
769.00,52.245
770.00,52.293
771.00,52.354
772.00,52.352
773.00,52.323
774.00,52.355
775.00,52.342
776.00,52.494
777.00,52.382
778.00,52.417
779.00,52.476
780.00,52.307
781.00,52.360
782.00,52.399
783.00,52.423
784.00,52.451
785.00,52.338
786.00,52.452
787.00,52.414
788.00,52.394
789.00,52.311
790.00,52.374
791.00,52.392
792.00,52.316
793.00,52.382
794.00,52.344
795.00,52.453
796.00,52.337
797.00,52.253
798.00,52.341
799.00,52.269
800.00,52.289
801.00,52.281
802.00,52.276
803.00,52.290
804.00,52.229
805.00,52.273
806.00,52.241
807.00,52.250
808.00,52.196
809.00,52.212
810.00,52.180
811.00,52.195
812.00,52.207
813.00,52.086
814.00,52.148
815.00,52.201
816.00,52.171
817.00,52.140
818.00,52.079
819.00,52.005
820.00,52.051
821.00,52.076
822.00,52.049
823.00,51.976
824.00,52.050
825.00,52.024
826.00,51.897
827.00,52.060
828.00,52.013
829.00,51.956
830.00,52.044
831.00,54.111
832.00,54.103
833.00,54.055
834.00,54.044
835.00,54.024
836.00,54.023
837.00,54.016
838.00,53.968
839.00,53.944
840.00,53.937
841.00,53.943
842.00,53.920
843.00,53.931
844.00,53.910
845.00,53.848
846.00,53.845
847.00,53.842
848.00,53.804
849.00,53.801
850.00,53.766
851.00,53.687
852.00,53.690
853.00,53.631
854.00,53.681
855.00,53.596
856.00,53.618
857.00,53.549
858.00,53.547
859.00,53.492
860.00,53.496
861.00,53.493
862.00,53.442
863.00,53.462
864.00,53.400
865.00,53.448
866.00,53.395
867.00,53.408
868.00,53.403
869.00,53.401
870.00,53.364
871.00,53.388
872.00,53.359
873.00,53.351
874.00,53.330
875.00,53.292
876.00,53.317
877.00,53.295
878.00,53.304
879.00,53.269
880.00,53.257
881.00,53.227
882.00,53.265
883.00,53.228
884.00,53.198
885.00,53.162
886.00,53.135
887.00,53.137
888.00,53.119
889.00,53.103
890.00,53.075
891.00,53.058
892.00,53.060
893.00,52.981
894.00,53.059
895.00,52.970
896.00,52.979
897.00,52.945
898.00,52.925
899.00,52.946
900.00,52.933
901.00,52.900
902.00,52.925
903.00,52.867
904.00,52.853
905.00,52.864
906.00,52.851
907.00,52.741
908.00,52.775
909.00,52.788
910.00,52.754
911.00,52.731
912.00,52.757
913.00,52.688
914.00,52.665
915.00,52.663
916.00,52.614
917.00,52.589
918.00,52.607
919.00,52.541
920.00,52.542
921.00,52.516
922.00,52.537
923.00,52.512
924.00,52.488
925.00,52.466
926.00,52.478
927.00,52.445
928.00,52.426
929.00,52.411
930.00,52.374
931.00,52.369
932.00,52.335
933.00,52.360
934.00,52.313
935.00,52.301
936.00,52.261
937.00,52.241
938.00,52.215
939.00,52.209
940.00,52.198
941.00,52.188
942.00,52.152
943.00,52.159
944.00,52.108
945.00,52.124
946.00,52.107
947.00,52.058
948.00,52.043
949.00,52.011
950.00,52.000
951.00,51.992
952.00,51.958
953.00,51.931
954.00,51.923
955.00,51.891
956.00,51.871
957.00,51.821
958.00,51.835
959.00,51.798
960.00,51.785
961.00,51.767
962.00,51.773
963.00,51.724
964.00,51.723
965.00,51.729
966.00,51.703
967.00,51.710
968.00,51.687
969.00,51.694
970.00,51.672
971.00,51.686
972.00,51.660
973.00,51.694
974.00,51.705
975.00,51.675
976.00,51.692
977.00,51.675
978.00,51.711
979.00,51.665
980.00,51.692
981.00,51.674
982.00,51.669
983.00,51.655
984.00,51.644
985.00,51.660
986.00,51.630
987.00,51.635
988.00,51.616
989.00,51.610
990.00,51.602
991.00,51.573
992.00,51.599
993.00,51.575
994.00,51.539
995.00,51.517
996.00,51.556
997.00,51.522
998.00,51.514
999.00,51.515
1000.00,51.475
1001.00,51.471
1002.00,51.440
1003.00,51.453
1004.00,51.423
1005.00,51.410
1006.00,51.437
1007.00,51.405
1008.00,51.393
1009.00,51.378
1010.00,51.377
1011.00,51.372
1012.00,51.337
1013.00,51.328
1014.00,51.281
1015.00,51.305
1016.00,51.260
1017.00,51.261
1018.00,51.240
1019.00,51.216
1020.00,51.223
1021.00,51.204
1022.00,51.206
1023.00,51.172
1024.00,51.160
1025.00,51.136
1026.00,51.134
1027.00,51.099
1028.00,51.108
1029.00,51.086
1030.00,51.055
1031.00,51.069
1032.00,51.012
1033.00,51.021
1034.00,50.990
1035.00,50.945
1036.00,50.935
1037.00,50.924
1038.00,50.905
1039.00,50.884
1040.00,50.876
1041.00,50.834
1042.00,50.826
1043.00,50.803
1044.00,50.831
1045.00,50.819
1046.00,50.795
1047.00,50.819
1048.00,50.826
1049.00,50.828
1050.00,50.846
1051.00,50.870
1052.00,50.871
1053.00,50.883
1054.00,50.883
1055.00,50.920
1056.00,50.921
1057.00,50.917
1058.00,50.906
1059.00,50.892
1060.00,50.895
1061.00,50.886
1062.00,50.862
1063.00,50.874
1064.00,50.870
1065.00,50.852
1066.00,50.857
1067.00,50.837
1068.00,50.858
1069.00,50.836
1070.00,50.810
1071.00,50.795
1072.00,50.817
1073.00,50.792
1074.00,50.784
1075.00,50.771
1076.00,50.773
1077.00,50.751
1078.00,50.732
1079.00,50.724
1080.00,50.733
1081.00,50.713
1082.00,50.705
1083.00,50.693
1084.00,50.689
1085.00,50.684
1086.00,50.686
1087.00,50.693
1088.00,50.662
1089.00,50.663
1090.00,50.646
1091.00,50.638
1092.00,50.628
1093.00,50.595
1094.00,50.596
1095.00,50.582
1096.00,50.572
1097.00,50.580
1098.00,50.560
1099.00,50.561
1100.00,50.560
1101.00,50.537
1102.00,50.556
1103.00,50.555
1104.00,50.513
1105.00,50.501
1106.00,50.482
1107.00,50.469
1108.00,50.475
1109.00,50.464
1110.00,50.461
1111.00,50.451
1112.00,50.434
1113.00,50.439
1114.00,50.422
1115.00,50.438
1116.00,50.431
1117.00,50.393
1118.00,50.384
1119.00,50.377
1120.00,50.374
1121.00,50.369
1122.00,50.365
1123.00,50.333
1124.00,50.346
1125.00,50.335
1126.00,50.329
1127.00,50.361
1128.00,50.350
1129.00,50.286
1130.00,50.301
1131.00,50.297
1132.00,50.294
1133.00,50.294
1134.00,50.268
1135.00,50.261
1136.00,50.257
1137.00,50.247
1138.00,50.250
1139.00,50.258
1140.00,50.250
1141.00,50.242
1142.00,50.252
1143.00,50.253
1144.00,50.210
1145.00,50.206
1146.00,50.215
1147.00,50.189
1148.00,50.200
1149.00,50.210
1150.00,50.212
1151.00,50.202
1152.00,50.189
1153.00,50.187
1154.00,50.176
1155.00,50.182
1156.00,50.168
1157.00,50.176
1158.00,50.168
1159.00,50.161
1160.00,50.165
1161.00,50.176
1162.00,50.160
1163.00,50.165
1164.00,50.173
1165.00,50.162
1166.00,50.169
1167.00,50.154
1168.00,50.162
1169.00,50.155
1170.00,50.164
1171.00,50.151
1172.00,50.146
1173.00,50.143
1174.00,50.158
1175.00,50.137
1176.00,50.139
1177.00,50.120
1178.00,50.111
1179.00,50.136
1180.00,50.117
1181.00,50.129
1182.00,50.128
1183.00,50.110
1184.00,50.104
1185.00,50.132
1186.00,50.108
1187.00,50.119
1188.00,50.111
1189.00,50.092
1190.00,50.092
1191.00,50.094
1192.00,50.096
1193.00,50.109
1194.00,50.097
1195.00,50.077
1196.00,50.110
1197.00,50.109
1198.00,50.099
1199.00,50.092
1200.00,50.087
1201.00,50.098
1202.00,50.084
1203.00,50.074
1204.00,50.071
1205.00,50.077
1206.00,50.072
1207.00,50.084
1208.00,50.062
1209.00,50.091
1210.00,50.075
1211.00,50.067
1212.00,50.093
1213.00,50.051
1214.00,50.078
1215.00,50.057
1216.00,50.041
1217.00,50.050
1218.00,50.048
1219.00,50.064
1220.00,50.061
1221.00,50.075
1222.00,50.063
1223.00,50.082
1224.00,50.073
1225.00,50.078
1226.00,50.068
1227.00,50.053
1228.00,50.076
1229.00,50.086
1230.00,50.111
1231.00,50.097
1232.00,50.115
1233.00,50.118
1234.00,50.113
1235.00,50.103
1236.00,50.096
1237.00,50.105
1238.00,50.098
1239.00,50.097
1240.00,50.095
1241.00,50.093
1242.00,50.106
1243.00,50.116
1244.00,50.085
1245.00,50.120
1246.00,50.119
1247.00,50.111
1248.00,50.110
1249.00,50.128
1250.00,50.135
1251.00,50.133
1252.00,50.131
1253.00,50.119
1254.00,50.161
1255.00,50.144
1256.00,50.115
1257.00,50.095
1258.00,50.156
1259.00,50.155
1260.00,50.169
1261.00,50.162
1262.00,50.153
1263.00,50.151
1264.00,50.150
1265.00,50.153
1266.00,50.145
1267.00,50.165
1268.00,50.177
1269.00,50.167
1270.00,50.203
1271.00,50.201
1272.00,50.206
1273.00,50.224
1274.00,50.215
1275.00,50.214
1276.00,50.205
1277.00,50.197
1278.00,50.220
1279.00,50.202
1280.00,50.206
1281.00,50.226
1282.00,50.222
1283.00,50.241
1284.00,50.242
1285.00,50.231
1286.00,50.260
1287.00,50.243
1288.00,50.240
1289.00,50.235
1290.00,50.252
1291.00,50.251
1292.00,50.258
1293.00,50.248
1294.00,50.263
1295.00,50.287
1296.00,50.281
1297.00,50.295
1298.00,50.320
1299.00,50.307
1300.00,50.326
1301.00,50.312
1302.00,50.315
1303.00,50.337
1304.00,50.307
1305.00,50.331
1306.00,50.325
1307.00,50.306
1308.00,50.328
1309.00,50.322
1310.00,50.331
1311.00,50.327
1312.00,50.351
1313.00,50.379
1314.00,50.410
1315.00,50.412
1316.00,50.401
1317.00,50.437
1318.00,50.414
1319.00,50.418
1320.00,50.437
1321.00,50.569
1322.00,50.576
1323.00,50.551
1324.00,50.536
1325.00,50.554
1326.00,50.549
1327.00,50.542
1328.00,50.537
1329.00,50.540
1330.00,50.549
1331.00,50.535
1332.00,50.515
1333.00,50.553
1334.00,50.575
1335.00,50.591
1336.00,50.616
1337.00,50.647
1338.00,50.691
1339.00,50.760
1340.00,50.804
1341.00,50.871
1342.00,50.930
1343.00,50.973
1344.00,51.038
1345.00,51.088
1346.00,51.134
1347.00,51.164
1348.00,51.166
1349.00,51.178
1350.00,51.186
1351.00,51.195
1352.00,51.188
1353.00,51.270
1354.00,51.183
1355.00,51.139
1356.00,51.312
1357.00,51.267
1358.00,51.252
1359.00,51.278
1360.00,51.289
1361.00,51.180
1362.00,51.161
1363.00,51.326
1364.00,51.427
1365.00,51.275
1366.00,51.348
1367.00,51.260
1368.00,51.174
1369.00,51.261
1370.00,51.210
1371.00,51.316
1372.00,51.211
1373.00,51.236
1374.00,51.197
1375.00,51.254
1376.00,51.242
1377.00,51.047
1378.00,51.209
1379.00,51.233
1380.00,51.210
1381.00,51.213
1382.00,51.290
1383.00,51.232
1384.00,51.187
1385.00,51.123
1386.00,51.239
1387.00,51.153
1388.00,51.172
1389.00,51.133
1390.00,51.252
1391.00,51.234
1392.00,51.218
1393.00,51.175
1394.00,51.221
1395.00,51.236
1396.00,51.137
1397.00,51.063
1398.00,51.196
1399.00,51.270
1400.00,51.146
1401.00,51.145
1402.00,51.252
1403.00,51.224
1404.00,51.186
1405.00,51.289
1406.00,51.221
1407.00,51.294
1408.00,51.296
1409.00,51.242
1410.00,51.279
1411.00,51.299
1412.00,51.273
1413.00,51.229
1414.00,51.303
1415.00,51.310
1416.00,51.333
1417.00,51.355
1418.00,51.322
1419.00,51.318
1420.00,51.347
1421.00,51.403
1422.00,51.376
1423.00,51.392
1424.00,51.422
1425.00,51.415
1426.00,51.416
1427.00,51.440
1428.00,51.427
1429.00,51.446
1430.00,51.474
1431.00,51.471
1432.00,51.515
1433.00,51.521
1434.00,51.520
1435.00,51.583
1436.00,51.532
1437.00,51.549
1438.00,51.588
1439.00,51.614
1440.00,51.620
1441.00,51.636
1442.00,51.633
1443.00,51.662
1444.00,51.704
1445.00,51.687
1446.00,51.699
1447.00,51.726
1448.00,51.757
1449.00,51.765
1450.00,51.763
1451.00,51.793
1452.00,51.804
1453.00,51.813
1454.00,51.856
1455.00,51.838
1456.00,51.844
1457.00,51.858
1458.00,51.864
1459.00,51.889
1460.00,51.901
1461.00,51.910
1462.00,51.937
1463.00,51.944
1464.00,51.944
1465.00,51.970
1466.00,51.960
1467.00,51.982
1468.00,52.037
1469.00,52.001
1470.00,52.041
1471.00,52.063
1472.00,52.072
1473.00,52.079
1474.00,52.095
1475.00,52.099
1476.00,52.119
1477.00,52.120
1478.00,52.124
1479.00,52.153
1480.00,52.143
1481.00,52.152
1482.00,52.206
1483.00,52.200
1484.00,52.228
1485.00,52.229
1486.00,52.204
1487.00,52.253
1488.00,52.270
1489.00,52.269
1490.00,52.292
1491.00,52.302
1492.00,52.318
1493.00,52.310
1494.00,52.345
1495.00,52.341
1496.00,52.354
1497.00,52.346
1498.00,52.373
1499.00,52.381
1500.00,52.381
1501.00, 
1502.00, 
1503.00, 
1504.00, 
1505.00, 
1506.00, 
1507.00, 
1508.00, 
1509.00, 
1510.00, 
1511.00, 
1512.00, 
1513.00, 
1514.00, 
1515.00, 
1516.00, 
1517.00, 
1518.00, 
1519.00, 
1520.00, 
1521.00, 
1522.00, 
1523.00, 
1524.00, 
1525.00, 
1526.00, 
1527.00, 
1528.00, 
1529.00, 
1530.00, 
1531.00, 
1532.00, 
1533.00, 
1534.00, 
1535.00, 
1536.00, 
1537.00, 
1538.00, 
1539.00, 
1540.00, 
1541.00, 
1542.00, 
1543.00, 
1544.00, 
1545.00, 
1546.00, 
1547.00, 
1548.00, 
1549.00, 
1550.00, 
1551.00, 
1552.00, 
1553.00, 
1554.00, 
1555.00, 
1556.00, 
1557.00, 
1558.00, 
1559.00, 
1560.00, 
1561.00, 
1562.00, 
1563.00, 
1564.00, 
1565.00, 
1566.00, 
1567.00, 
1568.00, 
1569.00, 
1570.00, 
1571.00, 
1572.00, 
1573.00, 
1574.00, 
1575.00, 
1576.00, 
1577.00, 
1578.00, 
1579.00, 
1580.00, 
1581.00, 
1582.00, 
1583.00, 
1584.00, 
1585.00, 
1586.00, 
1587.00, 
1588.00, 
1589.00, 
1590.00, 
1591.00, 
1592.00, 
1593.00, 
1594.00, 
1595.00, 
1596.00, 
1597.00, 
1598.00, 
1599.00, 
1600.00, 
1601.00, 
1602.00, 
1603.00, 
1604.00, 
1605.00, 
1606.00, 
1607.00, 
1608.00, 
1609.00, 
1610.00, 
1611.00, 
1612.00, 
1613.00, 
1614.00, 
1615.00, 
1616.00, 
1617.00, 
1618.00, 
1619.00, 
1620.00, 
1621.00, 
1622.00, 
1623.00, 
1624.00, 
1625.00, 
1626.00, 
1627.00, 
1628.00, 
1629.00, 
1630.00, 
1631.00, 
1632.00, 
1633.00, 
1634.00, 
1635.00, 
1636.00, 
1637.00, 
1638.00, 
1639.00, 
1640.00, 
1641.00, 
1642.00, 
1643.00, 
1644.00, 
1645.00, 
1646.00, 
1647.00, 
1648.00, 
1649.00, 
1650.00, 
1651.00, 
1652.00, 
1653.00, 
1654.00, 
1655.00, 
1656.00, 
1657.00, 
1658.00, 
1659.00, 
1660.00, 
1661.00, 
1662.00, 
1663.00, 
1664.00, 
1665.00, 
1666.00, 
1667.00, 
1668.00, 
1669.00, 
1670.00, 
1671.00, 
1672.00, 
1673.00, 
1674.00, 
1675.00, 
1676.00, 
1677.00, 
1678.00, 
1679.00, 
1680.00, 
1681.00, 
1682.00, 
1683.00, 
1684.00, 
1685.00, 
1686.00, 
1687.00, 
1688.00, 
1689.00, 
1690.00, 
1691.00, 
1692.00, 
1693.00, 
1694.00, 
1695.00, 
1696.00, 
1697.00, 
1698.00, 
1699.00, 
1700.00, 
1701.00, 
1702.00, 
1703.00, 
1704.00, 
1705.00, 
1706.00, 
1707.00, 
1708.00, 
1709.00, 
1710.00, 
1711.00, 
1712.00, 
1713.00, 
1714.00, 
1715.00, 
1716.00, 
1717.00, 
1718.00, 
1719.00, 
1720.00, 
1721.00, 
1722.00, 
1723.00, 
1724.00, 
1725.00, 
1726.00, 
1727.00, 
1728.00, 
1729.00, 
1730.00, 
1731.00, 
1732.00, 
1733.00, 
1734.00, 
1735.00, 
1736.00, 
1737.00, 
1738.00, 
1739.00, 
1740.00, 
1741.00, 
1742.00, 
1743.00, 
1744.00, 
1745.00, 
1746.00, 
1747.00, 
1748.00, 
1749.00, 
1750.00, 
1751.00, 
1752.00, 
1753.00, 
1754.00, 
1755.00, 
1756.00, 
1757.00, 
1758.00, 
1759.00, 
1760.00, 
1761.00, 
1762.00, 
1763.00, 
1764.00, 
1765.00, 
1766.00, 
1767.00, 
1768.00, 
1769.00, 
1770.00, 
1771.00, 
1772.00, 
1773.00, 
1774.00, 
1775.00, 
1776.00, 
1777.00, 
1778.00, 
1779.00, 
1780.00, 
1781.00, 
1782.00, 
1783.00, 
1784.00, 
1785.00, 
1786.00, 
1787.00, 
1788.00, 
1789.00, 
1790.00, 
1791.00, 
1792.00, 
1793.00, 
1794.00, 
1795.00, 
1796.00, 
1797.00, 
1798.00, 
1799.00, 
1800.00, 
1801.00, 
1802.00, 
1803.00, 
1804.00, 
1805.00, 
1806.00, 
1807.00, 
1808.00, 
1809.00, 
1810.00, 
1811.00, 
1812.00, 
1813.00, 
1814.00, 
1815.00, 
1816.00, 
1817.00, 
1818.00, 
1819.00, 
1820.00, 
1821.00, 
1822.00, 
1823.00, 
1824.00, 
1825.00, 
1826.00, 
1827.00, 
1828.00, 
1829.00, 
1830.00, 
1831.00, 
1832.00, 
1833.00, 
1834.00, 
1835.00, 
1836.00, 
1837.00, 
1838.00, 
1839.00, 
1840.00, 
1841.00, 
1842.00, 
1843.00, 
1844.00, 
1845.00, 
1846.00, 
1847.00, 
1848.00, 
1849.00, 
1850.00, 
1851.00, 
1852.00, 
1853.00, 
1854.00, 
1855.00, 
1856.00, 
1857.00, 
1858.00, 
1859.00, 
1860.00, 
1861.00, 
1862.00, 
1863.00, 
1864.00, 
1865.00, 
1866.00, 
1867.00, 
1868.00, 
1869.00, 
1870.00, 
1871.00, 
1872.00, 
1873.00, 
1874.00, 
1875.00, 
1876.00, 
1877.00, 
1878.00, 
1879.00, 
1880.00, 
1881.00, 
1882.00, 
1883.00, 
1884.00, 
1885.00, 
1886.00, 
1887.00, 
1888.00, 
1889.00, 
1890.00, 
1891.00, 
1892.00, 
1893.00, 
1894.00, 
1895.00, 
1896.00, 
1897.00, 
1898.00, 
1899.00, 
1900.00, 
1901.00, 
1902.00, 
1903.00, 
1904.00, 
1905.00, 
1906.00, 
1907.00, 
1908.00, 
1909.00, 
1910.00, 
1911.00, 
1912.00, 
1913.00, 
1914.00, 
1915.00, 
1916.00, 
1917.00, 
1918.00, 
1919.00, 
1920.00, 
1921.00, 
1922.00, 
1923.00, 
1924.00, 
1925.00, 
1926.00, 
1927.00, 
1928.00, 
1929.00, 
1930.00, 
1931.00, 
1932.00, 
1933.00, 
1934.00, 
1935.00, 
1936.00, 
1937.00, 
1938.00, 
1939.00, 
1940.00, 
1941.00, 
1942.00, 
1943.00, 
1944.00, 
1945.00, 
1946.00, 
1947.00, 
1948.00, 
1949.00, 
1950.00, 
1951.00, 
1952.00, 
1953.00, 
1954.00, 
1955.00, 
1956.00, 
1957.00, 
1958.00, 
1959.00, 
1960.00, 
1961.00, 
1962.00, 
1963.00, 
1964.00, 
1965.00, 
1966.00, 
1967.00, 
1968.00, 
1969.00, 
1970.00, 
1971.00, 
1972.00, 
1973.00, 
1974.00, 
1975.00, 
1976.00, 
1977.00, 
1978.00, 
1979.00, 
1980.00, 
1981.00, 
1982.00, 
1983.00, 
1984.00, 
1985.00, 
1986.00, 
1987.00, 
1988.00, 
1989.00, 
1990.00, 
1991.00, 
1992.00, 
1993.00, 
1994.00, 
1995.00, 
1996.00, 
1997.00, 
1998.00, 
1999.00, 
2000.00, 
2001.00, 
2002.00, 
2003.00, 
2004.00, 
2005.00, 
2006.00, 
2007.00, 
2008.00, 
2009.00, 
2010.00, 
2011.00, 
2012.00, 
2013.00, 
2014.00, 
2015.00, 
2016.00, 
2017.00, 
2018.00, 
2019.00, 
2020.00, 
2021.00, 
2022.00, 
2023.00, 
2024.00, 
2025.00, 
2026.00, 
2027.00, 
2028.00, 
2029.00, 
2030.00, 
2031.00, 
2032.00, 
2033.00, 
2034.00, 
2035.00, 
2036.00, 
2037.00, 
2038.00, 
2039.00, 
2040.00, 
2041.00, 
2042.00, 
2043.00, 
2044.00, 
2045.00, 
2046.00, 
2047.00, 
2048.00, 
2049.00, 
2050.00, 
2051.00, 
2052.00, 
2053.00, 
2054.00, 
2055.00, 
2056.00, 
2057.00, 
2058.00, 
2059.00, 
2060.00, 
2061.00, 
2062.00, 
2063.00, 
2064.00, 
2065.00, 
2066.00, 
2067.00, 
2068.00, 
2069.00, 
2070.00, 
2071.00, 
2072.00, 
2073.00, 
2074.00, 
2075.00, 
2076.00, 
2077.00, 
2078.00, 
2079.00, 
2080.00, 
2081.00, 
2082.00, 
2083.00, 
2084.00, 
2085.00, 
2086.00, 
2087.00, 
2088.00, 
2089.00, 
2090.00, 
2091.00, 
2092.00, 
2093.00, 
2094.00, 
2095.00, 
2096.00, 
2097.00, 
2098.00, 
2099.00, 
2100.00, 
2101.00, 
2102.00, 
2103.00, 
2104.00, 
2105.00, 
2106.00, 
2107.00, 
2108.00, 
2109.00, 
2110.00, 
2111.00, 
2112.00, 
2113.00, 
2114.00, 
2115.00, 
2116.00, 
2117.00, 
2118.00, 
2119.00, 
2120.00, 
2121.00, 
2122.00, 
2123.00, 
2124.00, 
2125.00, 
2126.00, 
2127.00, 
2128.00, 
2129.00, 
2130.00, 
2131.00, 
2132.00, 
2133.00, 
2134.00, 
2135.00, 
2136.00, 
2137.00, 
2138.00, 
2139.00, 
2140.00, 
2141.00, 
2142.00, 
2143.00, 
2144.00, 
2145.00, 
2146.00, 
2147.00, 
2148.00, 
2149.00, 
2150.00, 
2151.00, 
2152.00, 
2153.00, 
2154.00, 
2155.00, 
2156.00, 
2157.00, 
2158.00, 
2159.00, 
2160.00, 
2161.00, 
2162.00, 
2163.00, 
2164.00, 
2165.00, 
2166.00, 
2167.00, 
2168.00, 
2169.00, 
2170.00, 
2171.00, 
2172.00, 
2173.00, 
2174.00, 
2175.00, 
2176.00, 
2177.00, 
2178.00, 
2179.00, 
2180.00, 
2181.00, 
2182.00, 
2183.00, 
2184.00, 
2185.00, 
2186.00, 
2187.00, 
2188.00, 
2189.00, 
2190.00, 
2191.00, 
2192.00, 
2193.00, 
2194.00, 
2195.00, 
2196.00, 
2197.00, 
2198.00, 
2199.00, 
2200.00, 
2201.00, 
2202.00, 
2203.00, 
2204.00, 
2205.00, 
2206.00, 
2207.00, 
2208.00, 
2209.00, 
2210.00, 
2211.00, 
2212.00, 
2213.00, 
2214.00, 
2215.00, 
2216.00, 
2217.00, 
2218.00, 
2219.00, 
2220.00, 
2221.00, 
2222.00, 
2223.00, 
2224.00, 
2225.00, 
2226.00, 
2227.00, 
2228.00, 
2229.00, 
2230.00, 
2231.00, 
2232.00, 
2233.00, 
2234.00, 
2235.00, 
2236.00, 
2237.00, 
2238.00, 
2239.00, 
2240.00, 
2241.00, 
2242.00, 
2243.00, 
2244.00, 
2245.00, 
2246.00, 
2247.00, 
2248.00, 
2249.00, 
2250.00, 
2251.00, 
2252.00, 
2253.00, 
2254.00, 
2255.00, 
2256.00, 
2257.00, 
2258.00, 
2259.00, 
2260.00, 
2261.00, 
2262.00, 
2263.00, 
2264.00, 
2265.00, 
2266.00, 
2267.00, 
2268.00, 
2269.00, 
2270.00, 
2271.00, 
2272.00, 
2273.00, 
2274.00, 
2275.00, 
2276.00, 
2277.00, 
2278.00, 
2279.00, 
2280.00, 
2281.00, 
2282.00, 
2283.00, 
2284.00, 
2285.00, 
2286.00, 
2287.00, 
2288.00, 
2289.00, 
2290.00, 
2291.00, 
2292.00, 
2293.00, 
2294.00, 
2295.00, 
2296.00, 
2297.00, 
2298.00, 
2299.00, 
2300.00, 
2301.00, 
2302.00, 
2303.00, 
2304.00, 
2305.00, 
2306.00, 
2307.00, 
2308.00, 
2309.00, 
2310.00, 
2311.00, 
2312.00, 
2313.00, 
2314.00, 
2315.00, 
2316.00, 
2317.00, 
2318.00, 
2319.00, 
2320.00, 
2321.00, 
2322.00, 
2323.00, 
2324.00, 
2325.00, 
2326.00, 
2327.00, 
2328.00, 
2329.00, 
2330.00, 
2331.00, 
2332.00, 
2333.00, 
2334.00, 
2335.00, 
2336.00, 
2337.00, 
2338.00, 
2339.00, 
2340.00, 
2341.00, 
2342.00, 
2343.00, 
2344.00, 
2345.00, 
2346.00, 
2347.00, 
2348.00, 
2349.00, 
2350.00, 
2351.00, 
2352.00, 
2353.00, 
2354.00, 
2355.00, 
2356.00, 
2357.00, 
2358.00, 
2359.00, 
2360.00, 
2361.00, 
2362.00, 
2363.00, 
2364.00, 
2365.00, 
2366.00, 
2367.00, 
2368.00, 
2369.00, 
2370.00, 
2371.00, 
2372.00, 
2373.00, 
2374.00, 
2375.00, 
2376.00, 
2377.00, 
2378.00, 
2379.00, 
2380.00, 
2381.00, 
2382.00, 
2383.00, 
2384.00, 
2385.00, 
2386.00, 
2387.00, 
2388.00, 
2389.00, 
2390.00, 
2391.00, 
2392.00, 
2393.00, 
2394.00, 
2395.00, 
2396.00, 
2397.00, 
2398.00, 
2399.00, 
2400.00, 
2401.00, 
2402.00, 
2403.00, 
2404.00, 
2405.00, 
2406.00, 
2407.00, 
2408.00, 
2409.00, 
2410.00, 
2411.00, 
2412.00, 
2413.00, 
2414.00, 
2415.00, 
2416.00, 
2417.00, 
2418.00, 
2419.00, 
2420.00, 
2421.00, 
2422.00, 
2423.00, 
2424.00, 
2425.00, 
2426.00, 
2427.00, 
2428.00, 
2429.00, 
2430.00, 
2431.00, 
2432.00, 
2433.00, 
2434.00, 
2435.00, 
2436.00, 
2437.00, 
2438.00, 
2439.00, 
2440.00, 
2441.00, 
2442.00, 
2443.00, 
2444.00, 
2445.00, 
2446.00, 
2447.00, 
2448.00, 
2449.00, 
2450.00, 
2451.00, 
2452.00, 
2453.00, 
2454.00, 
2455.00, 
2456.00, 
2457.00, 
2458.00, 
2459.00, 
2460.00, 
2461.00, 
2462.00, 
2463.00, 
2464.00, 
2465.00, 
2466.00, 
2467.00, 
2468.00, 
2469.00, 
2470.00, 
2471.00, 
2472.00, 
2473.00, 
2474.00, 
2475.00, 
2476.00, 
2477.00, 
2478.00, 
2479.00, 
2480.00, 
2481.00, 
2482.00, 
2483.00, 
2484.00, 
2485.00, 
2486.00, 
2487.00, 
2488.00, 
2489.00, 
2490.00, 
2491.00, 
2492.00, 
2493.00, 
2494.00, 
2495.00, 
2496.00, 
2497.00, 
2498.00, 
2499.00, 
2500.00, 
2501.00, 
2502.00, 
2503.00, 
2504.00, 
2505.00, 
2506.00, 
2507.00, 
2508.00, 
2509.00, 
2510.00, 
2511.00, 
2512.00, 
2513.00, 
2514.00, 
2515.00, 
2516.00, 
2517.00, 
2518.00, 
2519.00, 
2520.00, 
2521.00, 
2522.00, 
2523.00, 
2524.00, 
2525.00, 
2526.00, 
2527.00, 
2528.00, 
2529.00, 
2530.00, 
2531.00, 
2532.00, 
2533.00, 
2534.00, 
2535.00, 
2536.00, 
2537.00, 
2538.00, 
2539.00, 
2540.00, 
2541.00, 
2542.00, 
2543.00, 
2544.00, 
2545.00, 
2546.00, 
2547.00, 
2548.00, 
2549.00, 
2550.00, 
2551.00, 
2552.00, 
2553.00, 
2554.00, 
2555.00, 
2556.00, 
2557.00, 
2558.00, 
2559.00, 
2560.00, 
2561.00, 
2562.00, 
2563.00, 
2564.00, 
2565.00, 
2566.00, 
2567.00, 
2568.00, 
2569.00, 
2570.00, 
2571.00, 
2572.00, 
2573.00, 
2574.00, 
2575.00, 
2576.00, 
2577.00, 
2578.00, 
2579.00, 
2580.00, 
2581.00, 
2582.00, 
2583.00, 
2584.00, 
2585.00, 
2586.00, 
2587.00, 
2588.00, 
2589.00, 
2590.00, 
2591.00, 
2592.00, 
2593.00, 
2594.00, 
2595.00, 
2596.00, 
2597.00, 
2598.00, 
2599.00, 
2600.00, 
