"1bP2 - RawData"
"Wavelength nm.","T%"
200.00,0.000
201.00,0.001
202.00,0.004
203.00,0.001
204.00,0.000
205.00,0.002
206.00,0.001
207.00,0.002
208.00,0.004
209.00,-0.000
210.00,0.002
211.00,-0.000
212.00,-0.000
213.00,-0.001
214.00,0.002
215.00,0.001
216.00,-0.002
217.00,0.001
218.00,-0.001
219.00,-0.001
220.00,0.003
221.00,0.000
222.00,0.000
223.00,0.002
224.00,0.002
225.00,0.002
226.00,0.001
227.00,0.001
228.00,0.003
229.00,0.003
230.00,0.001
231.00,0.000
232.00,0.001
233.00,0.001
234.00,-0.000
235.00,0.003
236.00,0.000
237.00,0.002
238.00,0.004
239.00,0.002
240.00,0.001
241.00,-0.000
242.00,0.002
243.00,0.003
244.00,0.000
245.00,-0.000
246.00,0.001
247.00,0.001
248.00,0.001
249.00,0.001
250.00,-0.001
251.00,0.000
252.00,0.001
253.00,-0.001
254.00,0.002
255.00,0.001
256.00,0.002
257.00,0.000
258.00,-0.000
259.00,0.001
260.00,0.000
261.00,0.001
262.00,0.001
263.00,0.002
264.00,0.002
265.00,0.000
266.00,0.000
267.00,0.002
268.00,0.002
269.00,0.001
270.00,0.002
271.00,-0.000
272.00,0.000
273.00,0.001
274.00,0.001
275.00,-0.000
276.00,0.000
277.00,0.001
278.00,-0.001
279.00,-0.001
280.00,-0.001
281.00,0.002
282.00,0.002
283.00,0.002
284.00,0.001
285.00,0.002
286.00,0.003
287.00,0.002
288.00,-0.000
289.00,0.001
290.00,-0.000
291.00,-0.000
292.00,-0.001
293.00,-0.001
294.00,-0.001
295.00,-0.001
296.00,0.000
297.00,-0.000
298.00,0.001
299.00,0.001
300.00,0.004
301.00,0.006
302.00,0.010
303.00,0.014
304.00,0.022
305.00,0.036
306.00,0.055
307.00,0.080
308.00,0.126
309.00,0.191
310.00,0.269
311.00,0.360
312.00,0.488
313.00,0.651
314.00,0.854
315.00,1.104
316.00,1.384
317.00,1.746
318.00,2.133
319.00,2.598
320.00,3.145
321.00,3.717
322.00,4.359
323.00,5.074
324.00,5.850
325.00,6.608
326.00,7.400
327.00,8.280
328.00,9.188
329.00,10.071
330.00,11.012
331.00,11.921
332.00,12.871
333.00,13.887
334.00,14.823
335.00,15.844
336.00,16.705
337.00,17.583
338.00,18.450
339.00,19.394
340.00,20.267
341.00,21.052
342.00,21.801
343.00,22.574
344.00,23.374
345.00,23.967
346.00,24.626
347.00,25.187
348.00,25.767
349.00,26.269
350.00,26.781
351.00,27.209
352.00,27.589
353.00,28.008
354.00,28.361
355.00,28.704
356.00,29.070
357.00,29.319
358.00,29.618
359.00,29.892
360.00,30.124
361.00,30.321
362.00,30.475
363.00,30.670
364.00,30.939
365.00,31.086
366.00,31.183
367.00,31.299
368.00,31.470
369.00,31.382
370.00,31.481
371.00,31.522
372.00,31.522
373.00,31.545
374.00,31.525
375.00,31.491
376.00,31.482
377.00,31.366
378.00,31.308
379.00,31.235
380.00,31.250
381.00,31.244
382.00,31.217
383.00,31.254
384.00,31.186
385.00,31.341
386.00,31.370
387.00,31.483
388.00,31.531
389.00,31.509
390.00,31.599
391.00,31.654
392.00,31.686
393.00,31.710
394.00,31.718
395.00,31.782
396.00,31.747
397.00,31.778
398.00,31.810
399.00,31.800
400.00,31.833
401.00,31.855
402.00,31.860
403.00,31.807
404.00,31.853
405.00,31.949
406.00,31.785
407.00,31.708
408.00,31.696
409.00,31.696
410.00,31.603
411.00,31.554
412.00,31.565
413.00,31.543
414.00,31.578
415.00,31.530
416.00,31.613
417.00,31.593
418.00,31.632
419.00,31.667
420.00,31.680
421.00,31.793
422.00,31.806
423.00,31.858
424.00,31.820
425.00,31.895
426.00,31.912
427.00,31.987
428.00,32.006
429.00,32.062
430.00,32.044
431.00,32.102
432.00,32.155
433.00,32.223
434.00,32.232
435.00,32.319
436.00,32.329
437.00,32.396
438.00,32.509
439.00,32.518
440.00,32.611
441.00,32.692
442.00,32.754
443.00,32.822
444.00,32.903
445.00,32.959
446.00,33.054
447.00,33.160
448.00,33.229
449.00,33.359
450.00,33.402
451.00,33.513
452.00,33.632
453.00,33.711
454.00,33.797
455.00,33.880
456.00,33.983
457.00,34.133
458.00,34.223
459.00,34.286
460.00,34.391
461.00,34.537
462.00,34.639
463.00,34.715
464.00,34.860
465.00,34.960
466.00,35.098
467.00,35.204
468.00,35.315
469.00,35.409
470.00,35.445
471.00,35.530
472.00,35.626
473.00,35.677
474.00,35.742
475.00,35.891
476.00,35.960
477.00,36.011
478.00,36.147
479.00,36.219
480.00,36.461
481.00,36.487
482.00,36.662
483.00,36.752
484.00,36.855
485.00,37.070
486.00,37.173
487.00,37.264
488.00,37.425
489.00,37.532
490.00,37.680
491.00,37.768
492.00,37.869
493.00,38.038
494.00,38.129
495.00,38.204
496.00,38.332
497.00,38.367
498.00,38.553
499.00,38.582
500.00,38.734
501.00,38.864
502.00,38.937
503.00,39.044
504.00,39.072
505.00,39.100
506.00,39.367
507.00,39.403
508.00,39.511
509.00,39.646
510.00,39.706
511.00,39.872
512.00,40.008
513.00,40.172
514.00,40.190
515.00,40.287
516.00,40.315
517.00,40.418
518.00,40.536
519.00,40.586
520.00,40.621
521.00,40.643
522.00,40.712
523.00,40.815
524.00,40.839
525.00,40.898
526.00,41.007
527.00,41.041
528.00,41.067
529.00,41.195
530.00,41.256
531.00,41.455
532.00,41.567
533.00,41.681
534.00,41.679
535.00,41.777
536.00,41.827
537.00,41.836
538.00,41.915
539.00,41.985
540.00,41.969
541.00,42.018
542.00,42.035
543.00,42.067
544.00,42.160
545.00,42.162
546.00,42.203
547.00,42.318
548.00,42.385
549.00,42.435
550.00,42.518
551.00,42.589
552.00,42.598
553.00,42.695
554.00,42.730
555.00,42.749
556.00,42.786
557.00,42.877
558.00,42.862
559.00,42.927
560.00,42.963
561.00,43.067
562.00,43.046
563.00,43.099
564.00,43.126
565.00,43.159
566.00,43.155
567.00,43.182
568.00,43.217
569.00,43.280
570.00,43.183
571.00,43.327
572.00,43.279
573.00,43.264
574.00,43.267
575.00,43.285
576.00,43.251
577.00,43.187
578.00,43.343
579.00,43.400
580.00,43.582
581.00,43.703
582.00,43.726
583.00,43.790
584.00,43.857
585.00,43.883
586.00,43.892
587.00,43.946
588.00,43.936
589.00,43.904
590.00,44.046
591.00,44.044
592.00,43.975
593.00,44.059
594.00,44.151
595.00,44.091
596.00,44.194
597.00,44.252
598.00,44.367
599.00,44.326
600.00,44.395
601.00,44.443
602.00,44.327
603.00,44.380
604.00,44.428
605.00,44.487
606.00,44.534
607.00,44.505
608.00,44.516
609.00,44.520
610.00,44.612
611.00,44.598
612.00,44.596
613.00,44.611
614.00,44.690
615.00,44.690
616.00,44.797
617.00,44.798
618.00,44.778
619.00,44.811
620.00,44.798
621.00,44.953
622.00,44.980
623.00,44.990
624.00,45.102
625.00,45.111
626.00,45.110
627.00,45.193
628.00,45.142
629.00,45.211
630.00,45.216
631.00,45.211
632.00,45.297
633.00,45.399
634.00,45.452
635.00,45.514
636.00,45.583
637.00,45.598
638.00,45.652
639.00,45.692
640.00,45.711
641.00,45.742
642.00,45.816
643.00,45.829
644.00,45.951
645.00,45.934
646.00,46.005
647.00,46.104
648.00,46.138
649.00,46.112
650.00,46.100
651.00,46.213
652.00,46.306
653.00,46.371
654.00,46.372
655.00,46.384
656.00,46.530
657.00,46.620
658.00,46.577
659.00,46.638
660.00,46.610
661.00,46.662
662.00,46.816
663.00,46.839
664.00,46.942
665.00,46.998
666.00,46.969
667.00,47.222
668.00,47.152
669.00,47.083
670.00,47.340
671.00,47.246
672.00,47.407
673.00,47.499
674.00,47.584
675.00,47.510
676.00,47.604
677.00,47.674
678.00,47.575
679.00,47.752
680.00,47.811
681.00,47.840
682.00,47.957
683.00,48.015
684.00,48.071
685.00,48.033
686.00,48.164
687.00,48.214
688.00,48.288
689.00,48.188
690.00,48.283
691.00,48.445
692.00,48.390
693.00,48.374
694.00,48.511
695.00,48.610
696.00,48.536
697.00,48.613
698.00,48.725
699.00,48.737
700.00,48.802
701.00,48.870
702.00,48.913
703.00,49.019
704.00,48.956
705.00,48.954
706.00,48.934
707.00,49.078
708.00,49.091
709.00,49.248
710.00,49.403
711.00,49.265
712.00,49.275
713.00,49.328
714.00,49.228
715.00,49.332
716.00,49.369
717.00,49.350
718.00,49.539
719.00,49.558
720.00,49.641
721.00,54.087
722.00,54.042
723.00,54.014
724.00,54.151
725.00,54.035
726.00,54.032
727.00,53.991
728.00,53.979
729.00,54.018
730.00,53.971
731.00,54.043
732.00,53.985
733.00,54.009
734.00,54.008
735.00,54.106
736.00,53.948
737.00,53.980
738.00,54.079
739.00,54.048
740.00,54.015
741.00,53.980
742.00,54.026
743.00,53.957
744.00,54.009
745.00,54.001
746.00,53.954
747.00,53.843
748.00,53.937
749.00,53.836
750.00,53.845
751.00,53.777
752.00,53.804
753.00,53.775
754.00,53.807
755.00,53.707
756.00,53.742
757.00,53.811
758.00,53.702
759.00,53.710
760.00,53.720
761.00,53.677
762.00,53.631
763.00,53.774
764.00,53.708
765.00,53.664
766.00,53.711
767.00,53.644
768.00,53.684
769.00,53.600
770.00,53.651
771.00,53.676
772.00,53.690
773.00,53.671
774.00,53.587
775.00,53.611
776.00,53.597
777.00,53.575
778.00,53.587
779.00,53.583
780.00,53.515
781.00,53.513
782.00,53.551
783.00,53.488
784.00,53.493
785.00,53.383
786.00,53.510
787.00,53.437
788.00,53.389
789.00,53.402
790.00,53.342
791.00,53.451
792.00,53.262
793.00,53.312
794.00,53.306
795.00,53.292
796.00,53.274
797.00,53.261
798.00,53.230
799.00,53.164
800.00,53.187
801.00,53.230
802.00,53.110
803.00,53.094
804.00,53.073
805.00,53.011
806.00,52.980
807.00,53.082
808.00,53.040
809.00,52.997
810.00,52.906
811.00,52.928
812.00,52.914
813.00,52.895
814.00,52.931
815.00,52.934
816.00,52.942
817.00,52.866
818.00,52.822
819.00,52.796
820.00,52.781
821.00,52.680
822.00,52.800
823.00,52.675
824.00,52.721
825.00,52.711
826.00,52.646
827.00,52.615
828.00,52.599
829.00,52.574
830.00,52.543
831.00,55.183
832.00,55.167
833.00,55.090
834.00,55.108
835.00,55.102
836.00,55.101
837.00,55.084
838.00,55.038
839.00,55.064
840.00,54.968
841.00,54.978
842.00,54.949
843.00,54.949
844.00,54.947
845.00,54.886
846.00,54.878
847.00,54.829
848.00,54.844
849.00,54.781
850.00,54.787
851.00,54.742
852.00,54.698
853.00,54.657
854.00,54.646
855.00,54.580
856.00,54.555
857.00,54.573
858.00,54.526
859.00,54.473
860.00,54.500
861.00,54.519
862.00,54.477
863.00,54.480
864.00,54.435
865.00,54.445
866.00,54.439
867.00,54.425
868.00,54.381
869.00,54.402
870.00,54.369
871.00,54.358
872.00,54.368
873.00,54.337
874.00,54.361
875.00,54.284
876.00,54.308
877.00,54.291
878.00,54.288
879.00,54.262
880.00,54.233
881.00,54.239
882.00,54.232
883.00,54.217
884.00,54.171
885.00,54.140
886.00,54.120
887.00,54.124
888.00,54.129
889.00,53.953
890.00,54.069
891.00,54.019
892.00,54.016
893.00,54.007
894.00,54.011
895.00,53.980
896.00,53.959
897.00,53.934
898.00,53.891
899.00,53.913
900.00,53.901
901.00,53.874
902.00,53.882
903.00,53.853
904.00,53.848
905.00,53.844
906.00,53.809
907.00,53.817
908.00,53.767
909.00,53.746
910.00,53.709
911.00,53.709
912.00,53.690
913.00,53.645
914.00,53.642
915.00,53.631
916.00,53.623
917.00,53.564
918.00,53.569
919.00,53.556
920.00,53.521
921.00,53.518
922.00,53.506
923.00,53.468
924.00,53.452
925.00,53.448
926.00,53.423
927.00,53.424
928.00,53.379
929.00,53.379
930.00,53.353
931.00,53.340
932.00,53.310
933.00,53.341
934.00,53.284
935.00,53.254
936.00,53.264
937.00,53.221
938.00,53.228
939.00,53.206
940.00,53.194
941.00,53.163
942.00,53.162
943.00,53.145
944.00,53.114
945.00,53.119
946.00,53.094
947.00,53.070
948.00,53.039
949.00,53.031
950.00,53.009
951.00,52.977
952.00,52.968
953.00,52.918
954.00,52.906
955.00,52.883
956.00,52.865
957.00,52.826
958.00,52.838
959.00,52.781
960.00,52.781
961.00,52.766
962.00,52.790
963.00,52.747
964.00,52.741
965.00,52.727
966.00,52.739
967.00,52.721
968.00,52.716
969.00,52.735
970.00,52.700
971.00,52.732
972.00,52.674
973.00,52.716
974.00,52.737
975.00,52.720
976.00,52.697
977.00,52.604
978.00,52.719
979.00,52.688
980.00,52.730
981.00,52.708
982.00,52.684
983.00,52.755
984.00,52.678
985.00,52.705
986.00,52.644
987.00,52.679
988.00,52.633
989.00,52.621
990.00,52.636
991.00,52.636
992.00,52.640
993.00,52.614
994.00,52.610
995.00,52.588
996.00,52.582
997.00,52.535
998.00,52.537
999.00,52.557
1000.00,52.493
1001.00,52.514
1002.00,52.510
1003.00,52.513
1004.00,52.479
1005.00,52.457
1006.00,52.481
1007.00,52.452
1008.00,52.453
1009.00,52.427
1010.00,52.434
1011.00,52.405
1012.00,52.382
1013.00,52.392
1014.00,52.359
1015.00,52.375
1016.00,52.332
1017.00,52.324
1018.00,52.312
1019.00,52.289
1020.00,52.280
1021.00,52.262
1022.00,52.238
1023.00,52.244
1024.00,52.228
1025.00,52.204
1026.00,52.198
1027.00,52.149
1028.00,52.140
1029.00,52.140
1030.00,52.109
1031.00,52.114
1032.00,52.093
1033.00,52.088
1034.00,52.067
1035.00,52.035
1036.00,51.999
1037.00,51.994
1038.00,51.966
1039.00,51.932
1040.00,51.940
1041.00,51.905
1042.00,51.885
1043.00,51.881
1044.00,51.899
1045.00,51.888
1046.00,51.899
1047.00,51.905
1048.00,51.927
1049.00,51.919
1050.00,51.928
1051.00,51.962
1052.00,51.952
1053.00,51.968
1054.00,51.966
1055.00,51.962
1056.00,51.962
1057.00,52.013
1058.00,52.004
1059.00,52.010
1060.00,52.000
1061.00,51.989
1062.00,51.980
1063.00,51.969
1064.00,51.985
1065.00,51.983
1066.00,51.958
1067.00,51.969
1068.00,51.991
1069.00,51.969
1070.00,51.945
1071.00,51.931
1072.00,51.938
1073.00,51.917
1074.00,51.906
1075.00,51.888
1076.00,51.902
1077.00,51.865
1078.00,51.867
1079.00,51.872
1080.00,51.872
1081.00,51.863
1082.00,51.856
1083.00,51.841
1084.00,51.845
1085.00,51.817
1086.00,51.829
1087.00,51.821
1088.00,51.806
1089.00,51.795
1090.00,51.807
1091.00,51.811
1092.00,51.812
1093.00,51.773
1094.00,51.764
1095.00,51.768
1096.00,51.729
1097.00,51.720
1098.00,51.724
1099.00,51.708
1100.00,51.703
1101.00,51.706
1102.00,51.700
1103.00,51.689
1104.00,51.700
1105.00,51.706
1106.00,51.677
1107.00,51.648
1108.00,51.643
1109.00,51.646
1110.00,51.630
1111.00,51.614
1112.00,51.622
1113.00,51.605
1114.00,51.594
1115.00,51.598
1116.00,51.590
1117.00,51.572
1118.00,51.570
1119.00,51.578
1120.00,51.602
1121.00,51.584
1122.00,51.555
1123.00,51.558
1124.00,51.545
1125.00,51.551
1126.00,51.538
1127.00,51.533
1128.00,51.520
1129.00,51.475
1130.00,51.487
1131.00,51.488
1132.00,51.503
1133.00,51.516
1134.00,51.499
1135.00,51.498
1136.00,51.481
1137.00,51.480
1138.00,51.472
1139.00,51.484
1140.00,51.467
1141.00,51.453
1142.00,51.459
1143.00,51.470
1144.00,51.429
1145.00,51.435
1146.00,51.435
1147.00,51.421
1148.00,51.419
1149.00,51.436
1150.00,51.455
1151.00,51.448
1152.00,51.424
1153.00,51.444
1154.00,51.416
1155.00,51.425
1156.00,51.420
1157.00,51.419
1158.00,51.415
1159.00,51.410
1160.00,51.396
1161.00,51.427
1162.00,51.409
1163.00,51.415
1164.00,51.415
1165.00,51.400
1166.00,51.398
1167.00,51.407
1168.00,51.410
1169.00,51.402
1170.00,51.402
1171.00,51.391
1172.00,51.395
1173.00,51.380
1174.00,51.399
1175.00,51.393
1176.00,51.387
1177.00,51.389
1178.00,51.402
1179.00,51.406
1180.00,51.399
1181.00,51.413
1182.00,51.399
1183.00,51.412
1184.00,51.382
1185.00,51.406
1186.00,51.401
1187.00,51.392
1188.00,51.385
1189.00,51.415
1190.00,51.377
1191.00,51.378
1192.00,51.388
1193.00,51.383
1194.00,51.393
1195.00,51.359
1196.00,51.393
1197.00,51.399
1198.00,51.388
1199.00,51.383
1200.00,51.399
1201.00,51.387
1202.00,51.379
1203.00,51.385
1204.00,51.375
1205.00,51.409
1206.00,51.384
1207.00,51.394
1208.00,51.375
1209.00,51.392
1210.00,51.402
1211.00,51.405
1212.00,51.421
1213.00,51.377
1214.00,51.401
1215.00,51.378
1216.00,51.392
1217.00,51.388
1218.00,51.371
1219.00,51.396
1220.00,51.369
1221.00,51.396
1222.00,51.389
1223.00,51.407
1224.00,51.401
1225.00,51.375
1226.00,51.394
1227.00,51.408
1228.00,51.388
1229.00,51.396
1230.00,51.435
1231.00,51.408
1232.00,51.436
1233.00,51.450
1234.00,51.432
1235.00,51.430
1236.00,51.426
1237.00,51.417
1238.00,51.441
1239.00,51.424
1240.00,51.413
1241.00,51.439
1242.00,51.434
1243.00,51.451
1244.00,51.433
1245.00,51.451
1246.00,51.455
1247.00,51.458
1248.00,51.457
1249.00,51.467
1250.00,51.464
1251.00,51.454
1252.00,51.473
1253.00,51.452
1254.00,51.471
1255.00,51.471
1256.00,51.476
1257.00,51.480
1258.00,51.489
1259.00,51.495
1260.00,51.519
1261.00,51.512
1262.00,51.518
1263.00,51.522
1264.00,51.525
1265.00,51.523
1266.00,51.531
1267.00,51.528
1268.00,51.545
1269.00,51.526
1270.00,51.550
1271.00,51.563
1272.00,51.566
1273.00,51.589
1274.00,51.586
1275.00,51.580
1276.00,51.583
1277.00,51.585
1278.00,51.601
1279.00,51.617
1280.00,51.601
1281.00,51.605
1282.00,51.654
1283.00,51.574
1284.00,51.603
1285.00,51.628
1286.00,51.629
1287.00,51.611
1288.00,51.640
1289.00,51.635
1290.00,51.674
1291.00,51.663
1292.00,51.660
1293.00,51.669
1294.00,51.670
1295.00,51.686
1296.00,51.687
1297.00,51.689
1298.00,51.711
1299.00,51.694
1300.00,51.699
1301.00,51.694
1302.00,51.691
1303.00,51.716
1304.00,51.721
1305.00,51.730
1306.00,51.731
1307.00,51.756
1308.00,51.762
1309.00,51.766
1310.00,51.762
1311.00,51.734
1312.00,51.744
1313.00,51.741
1314.00,51.765
1315.00,51.776
1316.00,51.773
1317.00,51.793
1318.00,51.808
1319.00,51.801
1320.00,51.808
1321.00,51.977
1322.00,51.949
1323.00,51.951
1324.00,51.943
1325.00,51.920
1326.00,51.958
1327.00,51.931
1328.00,51.938
1329.00,51.934
1330.00,51.924
1331.00,51.942
1332.00,51.949
1333.00,51.932
1334.00,51.977
1335.00,51.995
1336.00,52.007
1337.00,52.052
1338.00,52.097
1339.00,52.152
1340.00,52.221
1341.00,52.262
1342.00,52.348
1343.00,52.394
1344.00,52.424
1345.00,52.493
1346.00,52.555
1347.00,52.608
1348.00,52.550
1349.00,52.565
1350.00,52.591
1351.00,52.621
1352.00,52.636
1353.00,52.704
1354.00,52.635
1355.00,52.575
1356.00,52.665
1357.00,52.664
1358.00,52.672
1359.00,52.707
1360.00,52.720
1361.00,52.513
1362.00,52.516
1363.00,52.689
1364.00,52.759
1365.00,52.676
1366.00,52.719
1367.00,52.658
1368.00,52.654
1369.00,52.686
1370.00,52.656
1371.00,52.586
1372.00,52.656
1373.00,52.674
1374.00,52.666
1375.00,52.660
1376.00,52.628
1377.00,52.614
1378.00,52.804
1379.00,52.668
1380.00,52.680
1381.00,52.664
1382.00,52.681
1383.00,52.677
1384.00,52.611
1385.00,52.601
1386.00,52.636
1387.00,52.631
1388.00,52.577
1389.00,52.622
1390.00,52.549
1391.00,52.487
1392.00,52.639
1393.00,52.687
1394.00,52.659
1395.00,52.535
1396.00,52.557
1397.00,52.566
1398.00,52.655
1399.00,52.630
1400.00,52.610
1401.00,52.570
1402.00,52.697
1403.00,52.709
1404.00,52.613
1405.00,52.687
1406.00,52.681
1407.00,52.659
1408.00,52.668
1409.00,52.657
1410.00,52.697
1411.00,52.695
1412.00,52.752
1413.00,52.651
1414.00,52.682
1415.00,52.700
1416.00,52.708
1417.00,52.829
1418.00,52.786
1419.00,52.751
1420.00,52.778
1421.00,52.816
1422.00,52.774
1423.00,52.786
1424.00,52.799
1425.00,52.830
1426.00,52.837
1427.00,52.852
1428.00,52.851
1429.00,52.863
1430.00,52.855
1431.00,52.885
1432.00,52.900
1433.00,52.925
1434.00,52.904
1435.00,52.936
1436.00,52.971
1437.00,52.931
1438.00,52.973
1439.00,53.013
1440.00,52.991
1441.00,53.012
1442.00,53.018
1443.00,53.049
1444.00,53.085
1445.00,53.069
1446.00,53.092
1447.00,53.131
1448.00,53.127
1449.00,53.122
1450.00,53.116
1451.00,53.159
1452.00,53.192
1453.00,53.202
1454.00,53.184
1455.00,53.239
1456.00,53.237
1457.00,53.240
1458.00,53.273
1459.00,53.265
1460.00,53.300
1461.00,53.298
1462.00,53.310
1463.00,53.331
1464.00,53.345
1465.00,53.342
1466.00,53.363
1467.00,53.374
1468.00,53.409
1469.00,53.411
1470.00,53.411
1471.00,53.441
1472.00,53.440
1473.00,53.452
1474.00,53.498
1475.00,53.503
1476.00,53.499
1477.00,53.510
1478.00,53.526
1479.00,53.528
1480.00,53.523
1481.00,53.534
1482.00,53.564
1483.00,53.572
1484.00,53.570
1485.00,53.602
1486.00,53.590
1487.00,53.611
1488.00,53.636
1489.00,53.634
1490.00,53.640
1491.00,53.656
1492.00,53.667
1493.00,53.645
1494.00,53.686
1495.00,53.652
1496.00,53.709
1497.00,53.707
1498.00,53.680
1499.00,53.721
1500.00,53.721
1501.00, 
1502.00, 
1503.00, 
1504.00, 
1505.00, 
1506.00, 
1507.00, 
1508.00, 
1509.00, 
1510.00, 
1511.00, 
1512.00, 
1513.00, 
1514.00, 
1515.00, 
1516.00, 
1517.00, 
1518.00, 
1519.00, 
1520.00, 
1521.00, 
1522.00, 
1523.00, 
1524.00, 
1525.00, 
1526.00, 
1527.00, 
1528.00, 
1529.00, 
1530.00, 
1531.00, 
1532.00, 
1533.00, 
1534.00, 
1535.00, 
1536.00, 
1537.00, 
1538.00, 
1539.00, 
1540.00, 
1541.00, 
1542.00, 
1543.00, 
1544.00, 
1545.00, 
1546.00, 
1547.00, 
1548.00, 
1549.00, 
1550.00, 
1551.00, 
1552.00, 
1553.00, 
1554.00, 
1555.00, 
1556.00, 
1557.00, 
1558.00, 
1559.00, 
1560.00, 
1561.00, 
1562.00, 
1563.00, 
1564.00, 
1565.00, 
1566.00, 
1567.00, 
1568.00, 
1569.00, 
1570.00, 
1571.00, 
1572.00, 
1573.00, 
1574.00, 
1575.00, 
1576.00, 
1577.00, 
1578.00, 
1579.00, 
1580.00, 
1581.00, 
1582.00, 
1583.00, 
1584.00, 
1585.00, 
1586.00, 
1587.00, 
1588.00, 
1589.00, 
1590.00, 
1591.00, 
1592.00, 
1593.00, 
1594.00, 
1595.00, 
1596.00, 
1597.00, 
1598.00, 
1599.00, 
1600.00, 
1601.00, 
1602.00, 
1603.00, 
1604.00, 
1605.00, 
1606.00, 
1607.00, 
1608.00, 
1609.00, 
1610.00, 
1611.00, 
1612.00, 
1613.00, 
1614.00, 
1615.00, 
1616.00, 
1617.00, 
1618.00, 
1619.00, 
1620.00, 
1621.00, 
1622.00, 
1623.00, 
1624.00, 
1625.00, 
1626.00, 
1627.00, 
1628.00, 
1629.00, 
1630.00, 
1631.00, 
1632.00, 
1633.00, 
1634.00, 
1635.00, 
1636.00, 
1637.00, 
1638.00, 
1639.00, 
1640.00, 
1641.00, 
1642.00, 
1643.00, 
1644.00, 
1645.00, 
1646.00, 
1647.00, 
1648.00, 
1649.00, 
1650.00, 
1651.00, 
1652.00, 
1653.00, 
1654.00, 
1655.00, 
1656.00, 
1657.00, 
1658.00, 
1659.00, 
1660.00, 
1661.00, 
1662.00, 
1663.00, 
1664.00, 
1665.00, 
1666.00, 
1667.00, 
1668.00, 
1669.00, 
1670.00, 
1671.00, 
1672.00, 
1673.00, 
1674.00, 
1675.00, 
1676.00, 
1677.00, 
1678.00, 
1679.00, 
1680.00, 
1681.00, 
1682.00, 
1683.00, 
1684.00, 
1685.00, 
1686.00, 
1687.00, 
1688.00, 
1689.00, 
1690.00, 
1691.00, 
1692.00, 
1693.00, 
1694.00, 
1695.00, 
1696.00, 
1697.00, 
1698.00, 
1699.00, 
1700.00, 
1701.00, 
1702.00, 
1703.00, 
1704.00, 
1705.00, 
1706.00, 
1707.00, 
1708.00, 
1709.00, 
1710.00, 
1711.00, 
1712.00, 
1713.00, 
1714.00, 
1715.00, 
1716.00, 
1717.00, 
1718.00, 
1719.00, 
1720.00, 
1721.00, 
1722.00, 
1723.00, 
1724.00, 
1725.00, 
1726.00, 
1727.00, 
1728.00, 
1729.00, 
1730.00, 
1731.00, 
1732.00, 
1733.00, 
1734.00, 
1735.00, 
1736.00, 
1737.00, 
1738.00, 
1739.00, 
1740.00, 
1741.00, 
1742.00, 
1743.00, 
1744.00, 
1745.00, 
1746.00, 
1747.00, 
1748.00, 
1749.00, 
1750.00, 
1751.00, 
1752.00, 
1753.00, 
1754.00, 
1755.00, 
1756.00, 
1757.00, 
1758.00, 
1759.00, 
1760.00, 
1761.00, 
1762.00, 
1763.00, 
1764.00, 
1765.00, 
1766.00, 
1767.00, 
1768.00, 
1769.00, 
1770.00, 
1771.00, 
1772.00, 
1773.00, 
1774.00, 
1775.00, 
1776.00, 
1777.00, 
1778.00, 
1779.00, 
1780.00, 
1781.00, 
1782.00, 
1783.00, 
1784.00, 
1785.00, 
1786.00, 
1787.00, 
1788.00, 
1789.00, 
1790.00, 
1791.00, 
1792.00, 
1793.00, 
1794.00, 
1795.00, 
1796.00, 
1797.00, 
1798.00, 
1799.00, 
1800.00, 
1801.00, 
1802.00, 
1803.00, 
1804.00, 
1805.00, 
1806.00, 
1807.00, 
1808.00, 
1809.00, 
1810.00, 
1811.00, 
1812.00, 
1813.00, 
1814.00, 
1815.00, 
1816.00, 
1817.00, 
1818.00, 
1819.00, 
1820.00, 
1821.00, 
1822.00, 
1823.00, 
1824.00, 
1825.00, 
1826.00, 
1827.00, 
1828.00, 
1829.00, 
1830.00, 
1831.00, 
1832.00, 
1833.00, 
1834.00, 
1835.00, 
1836.00, 
1837.00, 
1838.00, 
1839.00, 
1840.00, 
1841.00, 
1842.00, 
1843.00, 
1844.00, 
1845.00, 
1846.00, 
1847.00, 
1848.00, 
1849.00, 
1850.00, 
1851.00, 
1852.00, 
1853.00, 
1854.00, 
1855.00, 
1856.00, 
1857.00, 
1858.00, 
1859.00, 
1860.00, 
1861.00, 
1862.00, 
1863.00, 
1864.00, 
1865.00, 
1866.00, 
1867.00, 
1868.00, 
1869.00, 
1870.00, 
1871.00, 
1872.00, 
1873.00, 
1874.00, 
1875.00, 
1876.00, 
1877.00, 
1878.00, 
1879.00, 
1880.00, 
1881.00, 
1882.00, 
1883.00, 
1884.00, 
1885.00, 
1886.00, 
1887.00, 
1888.00, 
1889.00, 
1890.00, 
1891.00, 
1892.00, 
1893.00, 
1894.00, 
1895.00, 
1896.00, 
1897.00, 
1898.00, 
1899.00, 
1900.00, 
1901.00, 
1902.00, 
1903.00, 
1904.00, 
1905.00, 
1906.00, 
1907.00, 
1908.00, 
1909.00, 
1910.00, 
1911.00, 
1912.00, 
1913.00, 
1914.00, 
1915.00, 
1916.00, 
1917.00, 
1918.00, 
1919.00, 
1920.00, 
1921.00, 
1922.00, 
1923.00, 
1924.00, 
1925.00, 
1926.00, 
1927.00, 
1928.00, 
1929.00, 
1930.00, 
1931.00, 
1932.00, 
1933.00, 
1934.00, 
1935.00, 
1936.00, 
1937.00, 
1938.00, 
1939.00, 
1940.00, 
1941.00, 
1942.00, 
1943.00, 
1944.00, 
1945.00, 
1946.00, 
1947.00, 
1948.00, 
1949.00, 
1950.00, 
1951.00, 
1952.00, 
1953.00, 
1954.00, 
1955.00, 
1956.00, 
1957.00, 
1958.00, 
1959.00, 
1960.00, 
1961.00, 
1962.00, 
1963.00, 
1964.00, 
1965.00, 
1966.00, 
1967.00, 
1968.00, 
1969.00, 
1970.00, 
1971.00, 
1972.00, 
1973.00, 
1974.00, 
1975.00, 
1976.00, 
1977.00, 
1978.00, 
1979.00, 
1980.00, 
1981.00, 
1982.00, 
1983.00, 
1984.00, 
1985.00, 
1986.00, 
1987.00, 
1988.00, 
1989.00, 
1990.00, 
1991.00, 
1992.00, 
1993.00, 
1994.00, 
1995.00, 
1996.00, 
1997.00, 
1998.00, 
1999.00, 
2000.00, 
2001.00, 
2002.00, 
2003.00, 
2004.00, 
2005.00, 
2006.00, 
2007.00, 
2008.00, 
2009.00, 
2010.00, 
2011.00, 
2012.00, 
2013.00, 
2014.00, 
2015.00, 
2016.00, 
2017.00, 
2018.00, 
2019.00, 
2020.00, 
2021.00, 
2022.00, 
2023.00, 
2024.00, 
2025.00, 
2026.00, 
2027.00, 
2028.00, 
2029.00, 
2030.00, 
2031.00, 
2032.00, 
2033.00, 
2034.00, 
2035.00, 
2036.00, 
2037.00, 
2038.00, 
2039.00, 
2040.00, 
2041.00, 
2042.00, 
2043.00, 
2044.00, 
2045.00, 
2046.00, 
2047.00, 
2048.00, 
2049.00, 
2050.00, 
2051.00, 
2052.00, 
2053.00, 
2054.00, 
2055.00, 
2056.00, 
2057.00, 
2058.00, 
2059.00, 
2060.00, 
2061.00, 
2062.00, 
2063.00, 
2064.00, 
2065.00, 
2066.00, 
2067.00, 
2068.00, 
2069.00, 
2070.00, 
2071.00, 
2072.00, 
2073.00, 
2074.00, 
2075.00, 
2076.00, 
2077.00, 
2078.00, 
2079.00, 
2080.00, 
2081.00, 
2082.00, 
2083.00, 
2084.00, 
2085.00, 
2086.00, 
2087.00, 
2088.00, 
2089.00, 
2090.00, 
2091.00, 
2092.00, 
2093.00, 
2094.00, 
2095.00, 
2096.00, 
2097.00, 
2098.00, 
2099.00, 
2100.00, 
2101.00, 
2102.00, 
2103.00, 
2104.00, 
2105.00, 
2106.00, 
2107.00, 
2108.00, 
2109.00, 
2110.00, 
2111.00, 
2112.00, 
2113.00, 
2114.00, 
2115.00, 
2116.00, 
2117.00, 
2118.00, 
2119.00, 
2120.00, 
2121.00, 
2122.00, 
2123.00, 
2124.00, 
2125.00, 
2126.00, 
2127.00, 
2128.00, 
2129.00, 
2130.00, 
2131.00, 
2132.00, 
2133.00, 
2134.00, 
2135.00, 
2136.00, 
2137.00, 
2138.00, 
2139.00, 
2140.00, 
2141.00, 
2142.00, 
2143.00, 
2144.00, 
2145.00, 
2146.00, 
2147.00, 
2148.00, 
2149.00, 
2150.00, 
2151.00, 
2152.00, 
2153.00, 
2154.00, 
2155.00, 
2156.00, 
2157.00, 
2158.00, 
2159.00, 
2160.00, 
2161.00, 
2162.00, 
2163.00, 
2164.00, 
2165.00, 
2166.00, 
2167.00, 
2168.00, 
2169.00, 
2170.00, 
2171.00, 
2172.00, 
2173.00, 
2174.00, 
2175.00, 
2176.00, 
2177.00, 
2178.00, 
2179.00, 
2180.00, 
2181.00, 
2182.00, 
2183.00, 
2184.00, 
2185.00, 
2186.00, 
2187.00, 
2188.00, 
2189.00, 
2190.00, 
2191.00, 
2192.00, 
2193.00, 
2194.00, 
2195.00, 
2196.00, 
2197.00, 
2198.00, 
2199.00, 
2200.00, 
2201.00, 
2202.00, 
2203.00, 
2204.00, 
2205.00, 
2206.00, 
2207.00, 
2208.00, 
2209.00, 
2210.00, 
2211.00, 
2212.00, 
2213.00, 
2214.00, 
2215.00, 
2216.00, 
2217.00, 
2218.00, 
2219.00, 
2220.00, 
2221.00, 
2222.00, 
2223.00, 
2224.00, 
2225.00, 
2226.00, 
2227.00, 
2228.00, 
2229.00, 
2230.00, 
2231.00, 
2232.00, 
2233.00, 
2234.00, 
2235.00, 
2236.00, 
2237.00, 
2238.00, 
2239.00, 
2240.00, 
2241.00, 
2242.00, 
2243.00, 
2244.00, 
2245.00, 
2246.00, 
2247.00, 
2248.00, 
2249.00, 
2250.00, 
2251.00, 
2252.00, 
2253.00, 
2254.00, 
2255.00, 
2256.00, 
2257.00, 
2258.00, 
2259.00, 
2260.00, 
2261.00, 
2262.00, 
2263.00, 
2264.00, 
2265.00, 
2266.00, 
2267.00, 
2268.00, 
2269.00, 
2270.00, 
2271.00, 
2272.00, 
2273.00, 
2274.00, 
2275.00, 
2276.00, 
2277.00, 
2278.00, 
2279.00, 
2280.00, 
2281.00, 
2282.00, 
2283.00, 
2284.00, 
2285.00, 
2286.00, 
2287.00, 
2288.00, 
2289.00, 
2290.00, 
2291.00, 
2292.00, 
2293.00, 
2294.00, 
2295.00, 
2296.00, 
2297.00, 
2298.00, 
2299.00, 
2300.00, 
2301.00, 
2302.00, 
2303.00, 
2304.00, 
2305.00, 
2306.00, 
2307.00, 
2308.00, 
2309.00, 
2310.00, 
2311.00, 
2312.00, 
2313.00, 
2314.00, 
2315.00, 
2316.00, 
2317.00, 
2318.00, 
2319.00, 
2320.00, 
2321.00, 
2322.00, 
2323.00, 
2324.00, 
2325.00, 
2326.00, 
2327.00, 
2328.00, 
2329.00, 
2330.00, 
2331.00, 
2332.00, 
2333.00, 
2334.00, 
2335.00, 
2336.00, 
2337.00, 
2338.00, 
2339.00, 
2340.00, 
2341.00, 
2342.00, 
2343.00, 
2344.00, 
2345.00, 
2346.00, 
2347.00, 
2348.00, 
2349.00, 
2350.00, 
2351.00, 
2352.00, 
2353.00, 
2354.00, 
2355.00, 
2356.00, 
2357.00, 
2358.00, 
2359.00, 
2360.00, 
2361.00, 
2362.00, 
2363.00, 
2364.00, 
2365.00, 
2366.00, 
2367.00, 
2368.00, 
2369.00, 
2370.00, 
2371.00, 
2372.00, 
2373.00, 
2374.00, 
2375.00, 
2376.00, 
2377.00, 
2378.00, 
2379.00, 
2380.00, 
2381.00, 
2382.00, 
2383.00, 
2384.00, 
2385.00, 
2386.00, 
2387.00, 
2388.00, 
2389.00, 
2390.00, 
2391.00, 
2392.00, 
2393.00, 
2394.00, 
2395.00, 
2396.00, 
2397.00, 
2398.00, 
2399.00, 
2400.00, 
2401.00, 
2402.00, 
2403.00, 
2404.00, 
2405.00, 
2406.00, 
2407.00, 
2408.00, 
2409.00, 
2410.00, 
2411.00, 
2412.00, 
2413.00, 
2414.00, 
2415.00, 
2416.00, 
2417.00, 
2418.00, 
2419.00, 
2420.00, 
2421.00, 
2422.00, 
2423.00, 
2424.00, 
2425.00, 
2426.00, 
2427.00, 
2428.00, 
2429.00, 
2430.00, 
2431.00, 
2432.00, 
2433.00, 
2434.00, 
2435.00, 
2436.00, 
2437.00, 
2438.00, 
2439.00, 
2440.00, 
2441.00, 
2442.00, 
2443.00, 
2444.00, 
2445.00, 
2446.00, 
2447.00, 
2448.00, 
2449.00, 
2450.00, 
2451.00, 
2452.00, 
2453.00, 
2454.00, 
2455.00, 
2456.00, 
2457.00, 
2458.00, 
2459.00, 
2460.00, 
2461.00, 
2462.00, 
2463.00, 
2464.00, 
2465.00, 
2466.00, 
2467.00, 
2468.00, 
2469.00, 
2470.00, 
2471.00, 
2472.00, 
2473.00, 
2474.00, 
2475.00, 
2476.00, 
2477.00, 
2478.00, 
2479.00, 
2480.00, 
2481.00, 
2482.00, 
2483.00, 
2484.00, 
2485.00, 
2486.00, 
2487.00, 
2488.00, 
2489.00, 
2490.00, 
2491.00, 
2492.00, 
2493.00, 
2494.00, 
2495.00, 
2496.00, 
2497.00, 
2498.00, 
2499.00, 
2500.00, 
2501.00, 
2502.00, 
2503.00, 
2504.00, 
2505.00, 
2506.00, 
2507.00, 
2508.00, 
2509.00, 
2510.00, 
2511.00, 
2512.00, 
2513.00, 
2514.00, 
2515.00, 
2516.00, 
2517.00, 
2518.00, 
2519.00, 
2520.00, 
2521.00, 
2522.00, 
2523.00, 
2524.00, 
2525.00, 
2526.00, 
2527.00, 
2528.00, 
2529.00, 
2530.00, 
2531.00, 
2532.00, 
2533.00, 
2534.00, 
2535.00, 
2536.00, 
2537.00, 
2538.00, 
2539.00, 
2540.00, 
2541.00, 
2542.00, 
2543.00, 
2544.00, 
2545.00, 
2546.00, 
2547.00, 
2548.00, 
2549.00, 
2550.00, 
2551.00, 
2552.00, 
2553.00, 
2554.00, 
2555.00, 
2556.00, 
2557.00, 
2558.00, 
2559.00, 
2560.00, 
2561.00, 
2562.00, 
2563.00, 
2564.00, 
2565.00, 
2566.00, 
2567.00, 
2568.00, 
2569.00, 
2570.00, 
2571.00, 
2572.00, 
2573.00, 
2574.00, 
2575.00, 
2576.00, 
2577.00, 
2578.00, 
2579.00, 
2580.00, 
2581.00, 
2582.00, 
2583.00, 
2584.00, 
2585.00, 
2586.00, 
2587.00, 
2588.00, 
2589.00, 
2590.00, 
2591.00, 
2592.00, 
2593.00, 
2594.00, 
2595.00, 
2596.00, 
2597.00, 
2598.00, 
2599.00, 
2600.00, 
