"1cP3 - RawData"
"Wavelength nm.","T%"
200.00,0.001
201.00,0.001
202.00,0.003
203.00,0.001
204.00,0.000
205.00,-0.001
206.00,0.001
207.00,0.001
208.00,0.003
209.00,-0.002
210.00,0.002
211.00,-0.000
212.00,0.002
213.00,0.002
214.00,0.001
215.00,0.001
216.00,0.002
217.00,-0.001
218.00,0.001
219.00,0.001
220.00,0.001
221.00,0.001
222.00,0.002
223.00,0.002
224.00,0.002
225.00,0.002
226.00,0.001
227.00,0.001
228.00,0.000
229.00,0.001
230.00,0.000
231.00,-0.000
232.00,0.002
233.00,0.002
234.00,-0.002
235.00,0.003
236.00,0.000
237.00,-0.001
238.00,0.001
239.00,0.001
240.00,0.000
241.00,0.002
242.00,-0.000
243.00,-0.001
244.00,-0.000
245.00,-0.001
246.00,0.002
247.00,0.000
248.00,-0.002
249.00,0.001
250.00,0.001
251.00,0.002
252.00,-0.000
253.00,0.002
254.00,0.001
255.00,0.001
256.00,0.001
257.00,0.002
258.00,0.001
259.00,0.001
260.00,0.001
261.00,-0.001
262.00,0.002
263.00,0.001
264.00,-0.001
265.00,0.001
266.00,-0.000
267.00,0.001
268.00,0.000
269.00,-0.001
270.00,0.001
271.00,-0.001
272.00,0.001
273.00,0.000
274.00,0.001
275.00,0.000
276.00,0.000
277.00,0.001
278.00,0.001
279.00,0.002
280.00,-0.001
281.00,-0.000
282.00,0.001
283.00,-0.000
284.00,-0.001
285.00,0.001
286.00,0.000
287.00,0.000
288.00,-0.001
289.00,0.000
290.00,0.002
291.00,-0.002
292.00,0.001
293.00,0.001
294.00,-0.001
295.00,0.001
296.00,0.000
297.00,-0.001
298.00,0.000
299.00,0.001
300.00,-0.000
301.00,0.002
302.00,0.002
303.00,0.001
304.00,0.002
305.00,0.000
306.00,0.003
307.00,0.004
308.00,0.007
309.00,0.013
310.00,0.021
311.00,0.035
312.00,0.050
313.00,0.080
314.00,0.111
315.00,0.174
316.00,0.255
317.00,0.366
318.00,0.498
319.00,0.674
320.00,0.899
321.00,1.160
322.00,1.481
323.00,1.883
324.00,2.330
325.00,2.792
326.00,3.344
327.00,3.989
328.00,4.640
329.00,5.335
330.00,6.147
331.00,6.975
332.00,7.816
333.00,8.768
334.00,9.653
335.00,10.640
336.00,11.586
337.00,12.605
338.00,13.574
339.00,14.446
340.00,15.401
341.00,16.477
342.00,17.380
343.00,18.327
344.00,19.229
345.00,20.076
346.00,20.852
347.00,21.596
348.00,22.318
349.00,22.977
350.00,23.691
351.00,24.273
352.00,24.850
353.00,25.398
354.00,25.971
355.00,26.453
356.00,26.920
357.00,27.331
358.00,27.741
359.00,28.199
360.00,28.567
361.00,28.879
362.00,29.183
363.00,29.519
364.00,29.668
365.00,29.878
366.00,30.104
367.00,30.321
368.00,30.497
369.00,30.547
370.00,30.688
371.00,30.733
372.00,30.731
373.00,30.836
374.00,30.887
375.00,30.754
376.00,30.668
377.00,30.692
378.00,30.568
379.00,30.501
380.00,30.511
381.00,30.528
382.00,30.583
383.00,30.671
384.00,30.775
385.00,30.898
386.00,30.991
387.00,31.170
388.00,31.355
389.00,31.366
390.00,31.518
391.00,31.620
392.00,31.702
393.00,31.769
394.00,31.811
395.00,31.928
396.00,31.929
397.00,31.990
398.00,32.027
399.00,32.044
400.00,32.081
401.00,32.155
402.00,32.123
403.00,32.121
404.00,32.135
405.00,32.286
406.00,32.093
407.00,32.059
408.00,32.089
409.00,31.997
410.00,31.936
411.00,31.869
412.00,31.899
413.00,31.922
414.00,31.885
415.00,31.854
416.00,31.916
417.00,31.883
418.00,31.919
419.00,32.016
420.00,32.074
421.00,32.056
422.00,32.063
423.00,32.158
424.00,32.153
425.00,32.191
426.00,32.200
427.00,32.290
428.00,32.291
429.00,32.372
430.00,32.374
431.00,32.416
432.00,32.401
433.00,32.454
434.00,32.535
435.00,32.560
436.00,32.615
437.00,32.643
438.00,32.738
439.00,32.769
440.00,32.852
441.00,32.903
442.00,32.919
443.00,33.025
444.00,33.073
445.00,33.190
446.00,33.236
447.00,33.318
448.00,33.409
449.00,33.505
450.00,33.557
451.00,33.646
452.00,33.747
453.00,33.887
454.00,33.906
455.00,33.997
456.00,34.136
457.00,34.242
458.00,34.284
459.00,34.394
460.00,34.551
461.00,34.624
462.00,34.678
463.00,34.792
464.00,34.943
465.00,35.043
466.00,35.139
467.00,35.268
468.00,35.339
469.00,35.397
470.00,35.433
471.00,35.503
472.00,35.609
473.00,35.654
474.00,35.760
475.00,35.831
476.00,35.902
477.00,36.017
478.00,36.154
479.00,36.195
480.00,36.339
481.00,36.413
482.00,36.569
483.00,36.690
484.00,36.857
485.00,36.980
486.00,37.087
487.00,37.223
488.00,37.351
489.00,37.425
490.00,37.613
491.00,37.665
492.00,37.762
493.00,37.936
494.00,38.064
495.00,38.116
496.00,38.227
497.00,38.255
498.00,38.345
499.00,38.458
500.00,38.606
501.00,38.661
502.00,38.799
503.00,38.867
504.00,38.914
505.00,38.991
506.00,39.091
507.00,39.159
508.00,39.276
509.00,39.501
510.00,39.563
511.00,39.617
512.00,39.824
513.00,40.000
514.00,39.923
515.00,40.093
516.00,40.156
517.00,40.195
518.00,40.385
519.00,40.411
520.00,40.395
521.00,40.483
522.00,40.578
523.00,40.589
524.00,40.663
525.00,40.765
526.00,40.890
527.00,40.890
528.00,40.943
529.00,41.146
530.00,41.254
531.00,41.419
532.00,41.453
533.00,41.642
534.00,41.649
535.00,41.698
536.00,41.778
537.00,41.838
538.00,41.850
539.00,41.900
540.00,42.006
541.00,42.038
542.00,42.017
543.00,42.087
544.00,42.175
545.00,42.253
546.00,42.273
547.00,42.364
548.00,42.503
549.00,42.496
550.00,42.620
551.00,42.746
552.00,42.742
553.00,42.762
554.00,42.849
555.00,42.777
556.00,42.857
557.00,42.998
558.00,43.059
559.00,43.106
560.00,43.109
561.00,43.246
562.00,43.300
563.00,43.260
564.00,43.355
565.00,43.367
566.00,43.376
567.00,43.376
568.00,43.458
569.00,43.560
570.00,43.507
571.00,43.583
572.00,43.541
573.00,43.514
574.00,43.564
575.00,43.581
576.00,43.571
577.00,43.598
578.00,43.773
579.00,43.728
580.00,43.689
581.00,44.001
582.00,44.047
583.00,44.066
584.00,44.197
585.00,44.261
586.00,44.258
587.00,44.316
588.00,44.313
589.00,44.251
590.00,44.360
591.00,44.388
592.00,44.280
593.00,44.407
594.00,44.519
595.00,44.639
596.00,44.628
597.00,44.668
598.00,44.708
599.00,44.634
600.00,44.740
601.00,44.809
602.00,44.752
603.00,44.752
604.00,44.806
605.00,44.852
606.00,44.962
607.00,44.919
608.00,44.912
609.00,45.040
610.00,45.189
611.00,44.949
612.00,45.069
613.00,45.111
614.00,45.108
615.00,45.219
616.00,45.270
617.00,45.173
618.00,45.125
619.00,45.310
620.00,45.330
621.00,45.306
622.00,45.456
623.00,45.501
624.00,45.567
625.00,45.592
626.00,45.622
627.00,45.633
628.00,45.612
629.00,45.672
630.00,45.640
631.00,45.657
632.00,45.765
633.00,45.922
634.00,45.928
635.00,45.966
636.00,46.021
637.00,46.006
638.00,46.014
639.00,46.126
640.00,46.171
641.00,46.154
642.00,46.184
643.00,46.269
644.00,46.268
645.00,46.346
646.00,46.455
647.00,46.506
648.00,46.440
649.00,46.425
650.00,46.398
651.00,46.606
652.00,46.598
653.00,46.551
654.00,46.600
655.00,46.726
656.00,46.996
657.00,46.850
658.00,46.840
659.00,47.008
660.00,47.060
661.00,46.852
662.00,46.898
663.00,47.083
664.00,47.298
665.00,47.432
666.00,47.242
667.00,47.255
668.00,47.298
669.00,47.421
670.00,47.595
671.00,47.548
672.00,47.985
673.00,47.621
674.00,47.730
675.00,47.708
676.00,47.813
677.00,47.955
678.00,47.670
679.00,47.878
680.00,47.904
681.00,48.065
682.00,48.033
683.00,47.953
684.00,48.063
685.00,48.079
686.00,47.996
687.00,48.083
688.00,48.229
689.00,48.122
690.00,48.219
691.00,48.540
692.00,48.163
693.00,47.750
694.00,48.388
695.00,48.891
696.00,48.471
697.00,48.457
698.00,48.512
699.00,48.680
700.00,48.633
701.00,48.523
702.00,48.645
703.00,48.889
704.00,48.813
705.00,48.735
706.00,48.815
707.00,48.862
708.00,48.666
709.00,49.038
710.00,49.356
711.00,48.775
712.00,48.913
713.00,49.037
714.00,48.890
715.00,48.970
716.00,48.913
717.00,49.036
718.00,49.184
719.00,49.106
720.00,49.256
721.00,53.909
722.00,53.908
723.00,53.934
724.00,53.928
725.00,53.803
726.00,53.783
727.00,53.766
728.00,53.789
729.00,53.781
730.00,53.751
731.00,53.736
732.00,53.702
733.00,53.716
734.00,53.713
735.00,53.725
736.00,53.681
737.00,53.601
738.00,53.720
739.00,53.700
740.00,53.692
741.00,53.669
742.00,53.658
743.00,53.673
744.00,53.579
745.00,53.564
746.00,53.546
747.00,53.525
748.00,53.521
749.00,53.478
750.00,53.409
751.00,53.353
752.00,53.397
753.00,53.384
754.00,53.404
755.00,53.276
756.00,53.297
757.00,53.298
758.00,53.217
759.00,53.221
760.00,53.176
761.00,53.244
762.00,53.174
763.00,53.244
764.00,53.172
765.00,53.146
766.00,53.130
767.00,53.100
768.00,53.077
769.00,53.073
770.00,53.182
771.00,53.055
772.00,53.080
773.00,53.036
774.00,53.056
775.00,53.112
776.00,53.026
777.00,52.966
778.00,52.942
779.00,52.976
780.00,52.888
781.00,52.874
782.00,52.910
783.00,52.803
784.00,52.859
785.00,52.726
786.00,52.828
787.00,52.732
788.00,52.690
789.00,52.708
790.00,52.598
791.00,52.660
792.00,52.596
793.00,52.580
794.00,52.572
795.00,52.573
796.00,52.523
797.00,52.474
798.00,52.423
799.00,52.401
800.00,52.460
801.00,52.403
802.00,52.325
803.00,52.280
804.00,52.239
805.00,52.216
806.00,52.256
807.00,52.197
808.00,52.169
809.00,52.133
810.00,52.071
811.00,52.070
812.00,52.118
813.00,52.111
814.00,52.044
815.00,51.946
816.00,52.046
817.00,51.979
818.00,51.945
819.00,51.932
820.00,51.894
821.00,51.819
822.00,51.935
823.00,51.710
824.00,51.778
825.00,51.851
826.00,51.711
827.00,51.658
828.00,51.721
829.00,51.666
830.00,51.626
831.00,53.974
832.00,53.940
833.00,53.886
834.00,53.909
835.00,53.879
836.00,53.831
837.00,53.863
838.00,53.822
839.00,53.823
840.00,53.756
841.00,53.736
842.00,53.653
843.00,53.739
844.00,53.677
845.00,53.624
846.00,53.610
847.00,53.561
848.00,53.538
849.00,53.499
850.00,53.466
851.00,53.431
852.00,53.398
853.00,53.381
854.00,53.318
855.00,53.280
856.00,53.251
857.00,53.228
858.00,53.195
859.00,53.161
860.00,53.141
861.00,53.119
862.00,53.105
863.00,53.111
864.00,53.073
865.00,53.080
866.00,53.082
867.00,53.060
868.00,52.987
869.00,53.032
870.00,52.997
871.00,52.965
872.00,52.966
873.00,52.930
874.00,52.969
875.00,52.911
876.00,52.886
877.00,52.878
878.00,52.864
879.00,52.844
880.00,52.817
881.00,52.819
882.00,52.797
883.00,52.730
884.00,52.738
885.00,52.720
886.00,52.707
887.00,52.675
888.00,52.687
889.00,52.485
890.00,52.592
891.00,52.577
892.00,52.568
893.00,52.545
894.00,52.529
895.00,52.519
896.00,52.463
897.00,52.460
898.00,52.414
899.00,52.413
900.00,52.411
901.00,52.390
902.00,52.371
903.00,52.356
904.00,52.329
905.00,52.314
906.00,52.310
907.00,52.305
908.00,52.248
909.00,52.171
910.00,52.323
911.00,52.188
912.00,52.199
913.00,52.136
914.00,52.114
915.00,52.099
916.00,52.078
917.00,52.035
918.00,52.038
919.00,52.010
920.00,51.990
921.00,51.980
922.00,51.958
923.00,51.916
924.00,51.893
925.00,51.879
926.00,51.846
927.00,51.845
928.00,51.805
929.00,51.811
930.00,51.795
931.00,51.769
932.00,51.722
933.00,51.740
934.00,51.707
935.00,51.699
936.00,51.695
937.00,51.623
938.00,51.630
939.00,51.608
940.00,51.595
941.00,51.588
942.00,51.606
943.00,51.547
944.00,51.497
945.00,51.505
946.00,51.484
947.00,51.466
948.00,51.439
949.00,51.429
950.00,51.390
951.00,51.373
952.00,51.361
953.00,51.314
954.00,51.286
955.00,51.314
956.00,51.234
957.00,51.202
958.00,51.212
959.00,51.159
960.00,51.148
961.00,51.125
962.00,51.127
963.00,51.090
964.00,51.099
965.00,51.083
966.00,51.076
967.00,51.070
968.00,51.045
969.00,51.061
970.00,51.022
971.00,51.058
972.00,51.017
973.00,51.053
974.00,51.067
975.00,51.036
976.00,51.022
977.00,50.924
978.00,51.060
979.00,51.015
980.00,51.036
981.00,51.019
982.00,51.017
983.00,51.018
984.00,51.011
985.00,51.011
986.00,50.976
987.00,50.990
988.00,50.951
989.00,50.932
990.00,50.924
991.00,50.931
992.00,50.926
993.00,50.904
994.00,50.887
995.00,50.874
996.00,50.876
997.00,50.851
998.00,50.835
999.00,50.837
1000.00,50.800
1001.00,50.803
1002.00,50.792
1003.00,50.784
1004.00,50.760
1005.00,50.741
1006.00,50.757
1007.00,50.716
1008.00,50.713
1009.00,50.687
1010.00,50.681
1011.00,50.669
1012.00,50.648
1013.00,50.635
1014.00,50.623
1015.00,50.659
1016.00,50.678
1017.00,50.589
1018.00,50.574
1019.00,50.553
1020.00,50.533
1021.00,50.516
1022.00,50.496
1023.00,50.456
1024.00,50.465
1025.00,50.446
1026.00,50.448
1027.00,50.427
1028.00,50.425
1029.00,50.403
1030.00,50.372
1031.00,50.374
1032.00,50.332
1033.00,50.341
1034.00,50.305
1035.00,50.277
1036.00,50.252
1037.00,50.251
1038.00,50.247
1039.00,50.207
1040.00,50.204
1041.00,50.162
1042.00,50.163
1043.00,50.132
1044.00,50.158
1045.00,50.145
1046.00,50.131
1047.00,50.151
1048.00,50.167
1049.00,50.187
1050.00,50.181
1051.00,50.206
1052.00,50.218
1053.00,50.205
1054.00,50.198
1055.00,50.219
1056.00,50.194
1057.00,50.237
1058.00,50.225
1059.00,50.231
1060.00,50.234
1061.00,50.222
1062.00,50.204
1063.00,50.215
1064.00,50.208
1065.00,50.198
1066.00,50.188
1067.00,50.181
1068.00,50.198
1069.00,50.171
1070.00,50.151
1071.00,50.135
1072.00,50.150
1073.00,50.130
1074.00,50.120
1075.00,50.097
1076.00,50.103
1077.00,50.089
1078.00,50.071
1079.00,50.072
1080.00,50.083
1081.00,50.069
1082.00,50.063
1083.00,50.050
1084.00,50.050
1085.00,50.023
1086.00,50.037
1087.00,50.035
1088.00,50.017
1089.00,49.996
1090.00,50.005
1091.00,49.997
1092.00,49.995
1093.00,49.974
1094.00,49.966
1095.00,49.945
1096.00,49.928
1097.00,49.926
1098.00,49.921
1099.00,49.915
1100.00,49.906
1101.00,49.905
1102.00,49.898
1103.00,49.901
1104.00,49.891
1105.00,49.864
1106.00,49.853
1107.00,49.839
1108.00,49.830
1109.00,49.820
1110.00,49.830
1111.00,49.815
1112.00,49.816
1113.00,49.810
1114.00,49.808
1115.00,49.805
1116.00,49.781
1117.00,49.760
1118.00,49.752
1119.00,49.744
1120.00,49.750
1121.00,49.753
1122.00,49.723
1123.00,49.727
1124.00,49.731
1125.00,49.727
1126.00,49.714
1127.00,49.716
1128.00,49.700
1129.00,49.674
1130.00,49.672
1131.00,49.667
1132.00,49.675
1133.00,49.673
1134.00,49.645
1135.00,49.621
1136.00,49.636
1137.00,49.642
1138.00,49.643
1139.00,49.654
1140.00,49.647
1141.00,49.648
1142.00,49.631
1143.00,49.652
1144.00,49.616
1145.00,49.613
1146.00,49.620
1147.00,49.598
1148.00,49.605
1149.00,49.610
1150.00,49.619
1151.00,49.617
1152.00,49.603
1153.00,49.637
1154.00,49.591
1155.00,49.596
1156.00,49.583
1157.00,49.597
1158.00,49.594
1159.00,49.582
1160.00,49.576
1161.00,49.583
1162.00,49.581
1163.00,49.583
1164.00,49.582
1165.00,49.598
1166.00,49.589
1167.00,49.591
1168.00,49.613
1169.00,49.587
1170.00,49.581
1171.00,49.575
1172.00,49.567
1173.00,49.560
1174.00,49.567
1175.00,49.567
1176.00,49.576
1177.00,49.552
1178.00,49.580
1179.00,49.575
1180.00,49.578
1181.00,49.605
1182.00,49.571
1183.00,49.565
1184.00,49.556
1185.00,49.572
1186.00,49.551
1187.00,49.556
1188.00,49.550
1189.00,49.561
1190.00,49.552
1191.00,49.547
1192.00,49.565
1193.00,49.543
1194.00,49.557
1195.00,49.538
1196.00,49.569
1197.00,49.568
1198.00,49.560
1199.00,49.550
1200.00,49.569
1201.00,49.566
1202.00,49.555
1203.00,49.552
1204.00,49.541
1205.00,49.557
1206.00,49.553
1207.00,49.558
1208.00,49.542
1209.00,49.558
1210.00,49.552
1211.00,49.571
1212.00,49.570
1213.00,49.557
1214.00,49.611
1215.00,49.549
1216.00,49.552
1217.00,49.557
1218.00,49.537
1219.00,49.560
1220.00,49.545
1221.00,49.574
1222.00,49.563
1223.00,49.580
1224.00,49.577
1225.00,49.561
1226.00,49.576
1227.00,49.576
1228.00,49.591
1229.00,49.617
1230.00,49.619
1231.00,49.602
1232.00,49.628
1233.00,49.631
1234.00,49.621
1235.00,49.629
1236.00,49.632
1237.00,49.628
1238.00,49.631
1239.00,49.629
1240.00,49.618
1241.00,49.624
1242.00,49.636
1243.00,49.651
1244.00,49.631
1245.00,49.657
1246.00,49.683
1247.00,49.676
1248.00,49.669
1249.00,49.688
1250.00,49.692
1251.00,49.667
1252.00,49.683
1253.00,49.665
1254.00,49.690
1255.00,49.686
1256.00,49.676
1257.00,49.667
1258.00,49.715
1259.00,49.712
1260.00,49.732
1261.00,49.732
1262.00,49.723
1263.00,49.711
1264.00,49.707
1265.00,49.719
1266.00,49.726
1267.00,49.738
1268.00,49.762
1269.00,49.747
1270.00,49.771
1271.00,49.772
1272.00,49.779
1273.00,49.794
1274.00,49.812
1275.00,49.828
1276.00,49.798
1277.00,49.804
1278.00,49.817
1279.00,49.811
1280.00,49.808
1281.00,49.823
1282.00,49.840
1283.00,49.837
1284.00,49.841
1285.00,49.837
1286.00,49.851
1287.00,49.877
1288.00,49.887
1289.00,49.880
1290.00,49.917
1291.00,49.890
1292.00,49.886
1293.00,49.890
1294.00,49.904
1295.00,49.925
1296.00,49.919
1297.00,49.931
1298.00,49.948
1299.00,49.927
1300.00,49.951
1301.00,49.942
1302.00,49.946
1303.00,49.941
1304.00,49.950
1305.00,50.019
1306.00,49.978
1307.00,50.001
1308.00,50.008
1309.00,50.011
1310.00,50.018
1311.00,49.998
1312.00,50.014
1313.00,50.023
1314.00,50.048
1315.00,50.060
1316.00,50.061
1317.00,50.087
1318.00,50.077
1319.00,50.085
1320.00,50.094
1321.00,50.251
1322.00,50.236
1323.00,50.239
1324.00,50.224
1325.00,50.218
1326.00,50.264
1327.00,50.241
1328.00,50.240
1329.00,50.244
1330.00,50.227
1331.00,50.246
1332.00,50.235
1333.00,50.266
1334.00,50.286
1335.00,50.285
1336.00,50.333
1337.00,50.358
1338.00,50.411
1339.00,50.466
1340.00,50.516
1341.00,50.580
1342.00,50.651
1343.00,50.682
1344.00,50.714
1345.00,50.795
1346.00,50.831
1347.00,50.833
1348.00,50.848
1349.00,50.875
1350.00,50.909
1351.00,50.932
1352.00,50.960
1353.00,51.058
1354.00,50.961
1355.00,50.941
1356.00,51.007
1357.00,50.990
1358.00,51.049
1359.00,51.051
1360.00,51.056
1361.00,50.987
1362.00,50.986
1363.00,51.193
1364.00,51.052
1365.00,51.035
1366.00,51.071
1367.00,51.005
1368.00,51.006
1369.00,51.040
1370.00,51.002
1371.00,50.996
1372.00,51.000
1373.00,51.040
1374.00,51.035
1375.00,51.027
1376.00,50.996
1377.00,50.995
1378.00,51.148
1379.00,51.101
1380.00,51.121
1381.00,51.027
1382.00,50.991
1383.00,51.051
1384.00,50.987
1385.00,50.989
1386.00,51.015
1387.00,50.950
1388.00,50.972
1389.00,50.945
1390.00,51.064
1391.00,50.902
1392.00,51.006
1393.00,51.153
1394.00,51.046
1395.00,50.901
1396.00,50.945
1397.00,50.981
1398.00,51.047
1399.00,51.001
1400.00,50.957
1401.00,50.980
1402.00,51.122
1403.00,51.057
1404.00,51.034
1405.00,51.098
1406.00,51.085
1407.00,51.088
1408.00,51.063
1409.00,51.041
1410.00,51.117
1411.00,51.092
1412.00,51.163
1413.00,51.081
1414.00,51.085
1415.00,51.133
1416.00,51.149
1417.00,51.198
1418.00,51.160
1419.00,51.173
1420.00,51.193
1421.00,51.239
1422.00,51.232
1423.00,51.216
1424.00,51.214
1425.00,51.265
1426.00,51.270
1427.00,51.295
1428.00,51.278
1429.00,51.316
1430.00,51.316
1431.00,51.320
1432.00,51.350
1433.00,51.377
1434.00,51.381
1435.00,51.428
1436.00,51.453
1437.00,51.435
1438.00,51.476
1439.00,51.504
1440.00,51.547
1441.00,51.542
1442.00,51.540
1443.00,51.598
1444.00,51.624
1445.00,51.584
1446.00,51.604
1447.00,51.654
1448.00,51.685
1449.00,51.666
1450.00,51.629
1451.00,51.705
1452.00,51.740
1453.00,51.728
1454.00,51.738
1455.00,51.781
1456.00,51.786
1457.00,51.785
1458.00,51.825
1459.00,51.837
1460.00,51.857
1461.00,51.850
1462.00,51.887
1463.00,51.900
1464.00,51.895
1465.00,51.921
1466.00,51.937
1467.00,51.951
1468.00,51.997
1469.00,51.999
1470.00,52.030
1471.00,52.064
1472.00,52.028
1473.00,52.051
1474.00,52.086
1475.00,52.084
1476.00,52.099
1477.00,52.100
1478.00,52.122
1479.00,52.133
1480.00,52.133
1481.00,52.155
1482.00,52.208
1483.00,52.218
1484.00,52.227
1485.00,52.254
1486.00,52.243
1487.00,52.269
1488.00,52.286
1489.00,52.285
1490.00,52.312
1491.00,52.324
1492.00,52.336
1493.00,52.336
1494.00,52.375
1495.00,52.354
1496.00,52.396
1497.00,52.376
1498.00,52.398
1499.00,52.424
1500.00,52.426
1501.00, 
1502.00, 
1503.00, 
1504.00, 
1505.00, 
1506.00, 
1507.00, 
1508.00, 
1509.00, 
1510.00, 
1511.00, 
1512.00, 
1513.00, 
1514.00, 
1515.00, 
1516.00, 
1517.00, 
1518.00, 
1519.00, 
1520.00, 
1521.00, 
1522.00, 
1523.00, 
1524.00, 
1525.00, 
1526.00, 
1527.00, 
1528.00, 
1529.00, 
1530.00, 
1531.00, 
1532.00, 
1533.00, 
1534.00, 
1535.00, 
1536.00, 
1537.00, 
1538.00, 
1539.00, 
1540.00, 
1541.00, 
1542.00, 
1543.00, 
1544.00, 
1545.00, 
1546.00, 
1547.00, 
1548.00, 
1549.00, 
1550.00, 
1551.00, 
1552.00, 
1553.00, 
1554.00, 
1555.00, 
1556.00, 
1557.00, 
1558.00, 
1559.00, 
1560.00, 
1561.00, 
1562.00, 
1563.00, 
1564.00, 
1565.00, 
1566.00, 
1567.00, 
1568.00, 
1569.00, 
1570.00, 
1571.00, 
1572.00, 
1573.00, 
1574.00, 
1575.00, 
1576.00, 
1577.00, 
1578.00, 
1579.00, 
1580.00, 
1581.00, 
1582.00, 
1583.00, 
1584.00, 
1585.00, 
1586.00, 
1587.00, 
1588.00, 
1589.00, 
1590.00, 
1591.00, 
1592.00, 
1593.00, 
1594.00, 
1595.00, 
1596.00, 
1597.00, 
1598.00, 
1599.00, 
1600.00, 
1601.00, 
1602.00, 
1603.00, 
1604.00, 
1605.00, 
1606.00, 
1607.00, 
1608.00, 
1609.00, 
1610.00, 
1611.00, 
1612.00, 
1613.00, 
1614.00, 
1615.00, 
1616.00, 
1617.00, 
1618.00, 
1619.00, 
1620.00, 
1621.00, 
1622.00, 
1623.00, 
1624.00, 
1625.00, 
1626.00, 
1627.00, 
1628.00, 
1629.00, 
1630.00, 
1631.00, 
1632.00, 
1633.00, 
1634.00, 
1635.00, 
1636.00, 
1637.00, 
1638.00, 
1639.00, 
1640.00, 
1641.00, 
1642.00, 
1643.00, 
1644.00, 
1645.00, 
1646.00, 
1647.00, 
1648.00, 
1649.00, 
1650.00, 
1651.00, 
1652.00, 
1653.00, 
1654.00, 
1655.00, 
1656.00, 
1657.00, 
1658.00, 
1659.00, 
1660.00, 
1661.00, 
1662.00, 
1663.00, 
1664.00, 
1665.00, 
1666.00, 
1667.00, 
1668.00, 
1669.00, 
1670.00, 
1671.00, 
1672.00, 
1673.00, 
1674.00, 
1675.00, 
1676.00, 
1677.00, 
1678.00, 
1679.00, 
1680.00, 
1681.00, 
1682.00, 
1683.00, 
1684.00, 
1685.00, 
1686.00, 
1687.00, 
1688.00, 
1689.00, 
1690.00, 
1691.00, 
1692.00, 
1693.00, 
1694.00, 
1695.00, 
1696.00, 
1697.00, 
1698.00, 
1699.00, 
1700.00, 
1701.00, 
1702.00, 
1703.00, 
1704.00, 
1705.00, 
1706.00, 
1707.00, 
1708.00, 
1709.00, 
1710.00, 
1711.00, 
1712.00, 
1713.00, 
1714.00, 
1715.00, 
1716.00, 
1717.00, 
1718.00, 
1719.00, 
1720.00, 
1721.00, 
1722.00, 
1723.00, 
1724.00, 
1725.00, 
1726.00, 
1727.00, 
1728.00, 
1729.00, 
1730.00, 
1731.00, 
1732.00, 
1733.00, 
1734.00, 
1735.00, 
1736.00, 
1737.00, 
1738.00, 
1739.00, 
1740.00, 
1741.00, 
1742.00, 
1743.00, 
1744.00, 
1745.00, 
1746.00, 
1747.00, 
1748.00, 
1749.00, 
1750.00, 
1751.00, 
1752.00, 
1753.00, 
1754.00, 
1755.00, 
1756.00, 
1757.00, 
1758.00, 
1759.00, 
1760.00, 
1761.00, 
1762.00, 
1763.00, 
1764.00, 
1765.00, 
1766.00, 
1767.00, 
1768.00, 
1769.00, 
1770.00, 
1771.00, 
1772.00, 
1773.00, 
1774.00, 
1775.00, 
1776.00, 
1777.00, 
1778.00, 
1779.00, 
1780.00, 
1781.00, 
1782.00, 
1783.00, 
1784.00, 
1785.00, 
1786.00, 
1787.00, 
1788.00, 
1789.00, 
1790.00, 
1791.00, 
1792.00, 
1793.00, 
1794.00, 
1795.00, 
1796.00, 
1797.00, 
1798.00, 
1799.00, 
1800.00, 
1801.00, 
1802.00, 
1803.00, 
1804.00, 
1805.00, 
1806.00, 
1807.00, 
1808.00, 
1809.00, 
1810.00, 
1811.00, 
1812.00, 
1813.00, 
1814.00, 
1815.00, 
1816.00, 
1817.00, 
1818.00, 
1819.00, 
1820.00, 
1821.00, 
1822.00, 
1823.00, 
1824.00, 
1825.00, 
1826.00, 
1827.00, 
1828.00, 
1829.00, 
1830.00, 
1831.00, 
1832.00, 
1833.00, 
1834.00, 
1835.00, 
1836.00, 
1837.00, 
1838.00, 
1839.00, 
1840.00, 
1841.00, 
1842.00, 
1843.00, 
1844.00, 
1845.00, 
1846.00, 
1847.00, 
1848.00, 
1849.00, 
1850.00, 
1851.00, 
1852.00, 
1853.00, 
1854.00, 
1855.00, 
1856.00, 
1857.00, 
1858.00, 
1859.00, 
1860.00, 
1861.00, 
1862.00, 
1863.00, 
1864.00, 
1865.00, 
1866.00, 
1867.00, 
1868.00, 
1869.00, 
1870.00, 
1871.00, 
1872.00, 
1873.00, 
1874.00, 
1875.00, 
1876.00, 
1877.00, 
1878.00, 
1879.00, 
1880.00, 
1881.00, 
1882.00, 
1883.00, 
1884.00, 
1885.00, 
1886.00, 
1887.00, 
1888.00, 
1889.00, 
1890.00, 
1891.00, 
1892.00, 
1893.00, 
1894.00, 
1895.00, 
1896.00, 
1897.00, 
1898.00, 
1899.00, 
1900.00, 
1901.00, 
1902.00, 
1903.00, 
1904.00, 
1905.00, 
1906.00, 
1907.00, 
1908.00, 
1909.00, 
1910.00, 
1911.00, 
1912.00, 
1913.00, 
1914.00, 
1915.00, 
1916.00, 
1917.00, 
1918.00, 
1919.00, 
1920.00, 
1921.00, 
1922.00, 
1923.00, 
1924.00, 
1925.00, 
1926.00, 
1927.00, 
1928.00, 
1929.00, 
1930.00, 
1931.00, 
1932.00, 
1933.00, 
1934.00, 
1935.00, 
1936.00, 
1937.00, 
1938.00, 
1939.00, 
1940.00, 
1941.00, 
1942.00, 
1943.00, 
1944.00, 
1945.00, 
1946.00, 
1947.00, 
1948.00, 
1949.00, 
1950.00, 
1951.00, 
1952.00, 
1953.00, 
1954.00, 
1955.00, 
1956.00, 
1957.00, 
1958.00, 
1959.00, 
1960.00, 
1961.00, 
1962.00, 
1963.00, 
1964.00, 
1965.00, 
1966.00, 
1967.00, 
1968.00, 
1969.00, 
1970.00, 
1971.00, 
1972.00, 
1973.00, 
1974.00, 
1975.00, 
1976.00, 
1977.00, 
1978.00, 
1979.00, 
1980.00, 
1981.00, 
1982.00, 
1983.00, 
1984.00, 
1985.00, 
1986.00, 
1987.00, 
1988.00, 
1989.00, 
1990.00, 
1991.00, 
1992.00, 
1993.00, 
1994.00, 
1995.00, 
1996.00, 
1997.00, 
1998.00, 
1999.00, 
2000.00, 
2001.00, 
2002.00, 
2003.00, 
2004.00, 
2005.00, 
2006.00, 
2007.00, 
2008.00, 
2009.00, 
2010.00, 
2011.00, 
2012.00, 
2013.00, 
2014.00, 
2015.00, 
2016.00, 
2017.00, 
2018.00, 
2019.00, 
2020.00, 
2021.00, 
2022.00, 
2023.00, 
2024.00, 
2025.00, 
2026.00, 
2027.00, 
2028.00, 
2029.00, 
2030.00, 
2031.00, 
2032.00, 
2033.00, 
2034.00, 
2035.00, 
2036.00, 
2037.00, 
2038.00, 
2039.00, 
2040.00, 
2041.00, 
2042.00, 
2043.00, 
2044.00, 
2045.00, 
2046.00, 
2047.00, 
2048.00, 
2049.00, 
2050.00, 
2051.00, 
2052.00, 
2053.00, 
2054.00, 
2055.00, 
2056.00, 
2057.00, 
2058.00, 
2059.00, 
2060.00, 
2061.00, 
2062.00, 
2063.00, 
2064.00, 
2065.00, 
2066.00, 
2067.00, 
2068.00, 
2069.00, 
2070.00, 
2071.00, 
2072.00, 
2073.00, 
2074.00, 
2075.00, 
2076.00, 
2077.00, 
2078.00, 
2079.00, 
2080.00, 
2081.00, 
2082.00, 
2083.00, 
2084.00, 
2085.00, 
2086.00, 
2087.00, 
2088.00, 
2089.00, 
2090.00, 
2091.00, 
2092.00, 
2093.00, 
2094.00, 
2095.00, 
2096.00, 
2097.00, 
2098.00, 
2099.00, 
2100.00, 
2101.00, 
2102.00, 
2103.00, 
2104.00, 
2105.00, 
2106.00, 
2107.00, 
2108.00, 
2109.00, 
2110.00, 
2111.00, 
2112.00, 
2113.00, 
2114.00, 
2115.00, 
2116.00, 
2117.00, 
2118.00, 
2119.00, 
2120.00, 
2121.00, 
2122.00, 
2123.00, 
2124.00, 
2125.00, 
2126.00, 
2127.00, 
2128.00, 
2129.00, 
2130.00, 
2131.00, 
2132.00, 
2133.00, 
2134.00, 
2135.00, 
2136.00, 
2137.00, 
2138.00, 
2139.00, 
2140.00, 
2141.00, 
2142.00, 
2143.00, 
2144.00, 
2145.00, 
2146.00, 
2147.00, 
2148.00, 
2149.00, 
2150.00, 
2151.00, 
2152.00, 
2153.00, 
2154.00, 
2155.00, 
2156.00, 
2157.00, 
2158.00, 
2159.00, 
2160.00, 
2161.00, 
2162.00, 
2163.00, 
2164.00, 
2165.00, 
2166.00, 
2167.00, 
2168.00, 
2169.00, 
2170.00, 
2171.00, 
2172.00, 
2173.00, 
2174.00, 
2175.00, 
2176.00, 
2177.00, 
2178.00, 
2179.00, 
2180.00, 
2181.00, 
2182.00, 
2183.00, 
2184.00, 
2185.00, 
2186.00, 
2187.00, 
2188.00, 
2189.00, 
2190.00, 
2191.00, 
2192.00, 
2193.00, 
2194.00, 
2195.00, 
2196.00, 
2197.00, 
2198.00, 
2199.00, 
2200.00, 
2201.00, 
2202.00, 
2203.00, 
2204.00, 
2205.00, 
2206.00, 
2207.00, 
2208.00, 
2209.00, 
2210.00, 
2211.00, 
2212.00, 
2213.00, 
2214.00, 
2215.00, 
2216.00, 
2217.00, 
2218.00, 
2219.00, 
2220.00, 
2221.00, 
2222.00, 
2223.00, 
2224.00, 
2225.00, 
2226.00, 
2227.00, 
2228.00, 
2229.00, 
2230.00, 
2231.00, 
2232.00, 
2233.00, 
2234.00, 
2235.00, 
2236.00, 
2237.00, 
2238.00, 
2239.00, 
2240.00, 
2241.00, 
2242.00, 
2243.00, 
2244.00, 
2245.00, 
2246.00, 
2247.00, 
2248.00, 
2249.00, 
2250.00, 
2251.00, 
2252.00, 
2253.00, 
2254.00, 
2255.00, 
2256.00, 
2257.00, 
2258.00, 
2259.00, 
2260.00, 
2261.00, 
2262.00, 
2263.00, 
2264.00, 
2265.00, 
2266.00, 
2267.00, 
2268.00, 
2269.00, 
2270.00, 
2271.00, 
2272.00, 
2273.00, 
2274.00, 
2275.00, 
2276.00, 
2277.00, 
2278.00, 
2279.00, 
2280.00, 
2281.00, 
2282.00, 
2283.00, 
2284.00, 
2285.00, 
2286.00, 
2287.00, 
2288.00, 
2289.00, 
2290.00, 
2291.00, 
2292.00, 
2293.00, 
2294.00, 
2295.00, 
2296.00, 
2297.00, 
2298.00, 
2299.00, 
2300.00, 
2301.00, 
2302.00, 
2303.00, 
2304.00, 
2305.00, 
2306.00, 
2307.00, 
2308.00, 
2309.00, 
2310.00, 
2311.00, 
2312.00, 
2313.00, 
2314.00, 
2315.00, 
2316.00, 
2317.00, 
2318.00, 
2319.00, 
2320.00, 
2321.00, 
2322.00, 
2323.00, 
2324.00, 
2325.00, 
2326.00, 
2327.00, 
2328.00, 
2329.00, 
2330.00, 
2331.00, 
2332.00, 
2333.00, 
2334.00, 
2335.00, 
2336.00, 
2337.00, 
2338.00, 
2339.00, 
2340.00, 
2341.00, 
2342.00, 
2343.00, 
2344.00, 
2345.00, 
2346.00, 
2347.00, 
2348.00, 
2349.00, 
2350.00, 
2351.00, 
2352.00, 
2353.00, 
2354.00, 
2355.00, 
2356.00, 
2357.00, 
2358.00, 
2359.00, 
2360.00, 
2361.00, 
2362.00, 
2363.00, 
2364.00, 
2365.00, 
2366.00, 
2367.00, 
2368.00, 
2369.00, 
2370.00, 
2371.00, 
2372.00, 
2373.00, 
2374.00, 
2375.00, 
2376.00, 
2377.00, 
2378.00, 
2379.00, 
2380.00, 
2381.00, 
2382.00, 
2383.00, 
2384.00, 
2385.00, 
2386.00, 
2387.00, 
2388.00, 
2389.00, 
2390.00, 
2391.00, 
2392.00, 
2393.00, 
2394.00, 
2395.00, 
2396.00, 
2397.00, 
2398.00, 
2399.00, 
2400.00, 
2401.00, 
2402.00, 
2403.00, 
2404.00, 
2405.00, 
2406.00, 
2407.00, 
2408.00, 
2409.00, 
2410.00, 
2411.00, 
2412.00, 
2413.00, 
2414.00, 
2415.00, 
2416.00, 
2417.00, 
2418.00, 
2419.00, 
2420.00, 
2421.00, 
2422.00, 
2423.00, 
2424.00, 
2425.00, 
2426.00, 
2427.00, 
2428.00, 
2429.00, 
2430.00, 
2431.00, 
2432.00, 
2433.00, 
2434.00, 
2435.00, 
2436.00, 
2437.00, 
2438.00, 
2439.00, 
2440.00, 
2441.00, 
2442.00, 
2443.00, 
2444.00, 
2445.00, 
2446.00, 
2447.00, 
2448.00, 
2449.00, 
2450.00, 
2451.00, 
2452.00, 
2453.00, 
2454.00, 
2455.00, 
2456.00, 
2457.00, 
2458.00, 
2459.00, 
2460.00, 
2461.00, 
2462.00, 
2463.00, 
2464.00, 
2465.00, 
2466.00, 
2467.00, 
2468.00, 
2469.00, 
2470.00, 
2471.00, 
2472.00, 
2473.00, 
2474.00, 
2475.00, 
2476.00, 
2477.00, 
2478.00, 
2479.00, 
2480.00, 
2481.00, 
2482.00, 
2483.00, 
2484.00, 
2485.00, 
2486.00, 
2487.00, 
2488.00, 
2489.00, 
2490.00, 
2491.00, 
2492.00, 
2493.00, 
2494.00, 
2495.00, 
2496.00, 
2497.00, 
2498.00, 
2499.00, 
2500.00, 
2501.00, 
2502.00, 
2503.00, 
2504.00, 
2505.00, 
2506.00, 
2507.00, 
2508.00, 
2509.00, 
2510.00, 
2511.00, 
2512.00, 
2513.00, 
2514.00, 
2515.00, 
2516.00, 
2517.00, 
2518.00, 
2519.00, 
2520.00, 
2521.00, 
2522.00, 
2523.00, 
2524.00, 
2525.00, 
2526.00, 
2527.00, 
2528.00, 
2529.00, 
2530.00, 
2531.00, 
2532.00, 
2533.00, 
2534.00, 
2535.00, 
2536.00, 
2537.00, 
2538.00, 
2539.00, 
2540.00, 
2541.00, 
2542.00, 
2543.00, 
2544.00, 
2545.00, 
2546.00, 
2547.00, 
2548.00, 
2549.00, 
2550.00, 
2551.00, 
2552.00, 
2553.00, 
2554.00, 
2555.00, 
2556.00, 
2557.00, 
2558.00, 
2559.00, 
2560.00, 
2561.00, 
2562.00, 
2563.00, 
2564.00, 
2565.00, 
2566.00, 
2567.00, 
2568.00, 
2569.00, 
2570.00, 
2571.00, 
2572.00, 
2573.00, 
2574.00, 
2575.00, 
2576.00, 
2577.00, 
2578.00, 
2579.00, 
2580.00, 
2581.00, 
2582.00, 
2583.00, 
2584.00, 
2585.00, 
2586.00, 
2587.00, 
2588.00, 
2589.00, 
2590.00, 
2591.00, 
2592.00, 
2593.00, 
2594.00, 
2595.00, 
2596.00, 
2597.00, 
2598.00, 
2599.00, 
2600.00, 
