"1cP4 - RawData"
"Wavelength nm.","T%"
200.00,0.003
201.00,-0.000
202.00,-0.001
203.00,0.002
204.00,0.001
205.00,0.000
206.00,0.003
207.00,-0.001
208.00,-0.002
209.00,-0.000
210.00,0.002
211.00,-0.000
212.00,-0.001
213.00,0.000
214.00,0.001
215.00,-0.001
216.00,0.003
217.00,0.001
218.00,0.001
219.00,0.004
220.00,0.002
221.00,-0.002
222.00,0.000
223.00,0.002
224.00,0.000
225.00,0.003
226.00,0.002
227.00,-0.001
228.00,0.001
229.00,0.002
230.00,0.002
231.00,0.002
232.00,0.001
233.00,0.000
234.00,0.000
235.00,0.001
236.00,0.001
237.00,0.002
238.00,0.000
239.00,-0.001
240.00,0.001
241.00,0.001
242.00,0.001
243.00,0.001
244.00,-0.000
245.00,0.002
246.00,0.001
247.00,-0.000
248.00,0.001
249.00,0.001
250.00,0.003
251.00,0.001
252.00,-0.001
253.00,-0.000
254.00,0.000
255.00,0.000
256.00,0.000
257.00,0.002
258.00,-0.002
259.00,0.000
260.00,0.000
261.00,-0.000
262.00,0.001
263.00,0.003
264.00,-0.001
265.00,-0.000
266.00,0.000
267.00,0.001
268.00,0.002
269.00,-0.001
270.00,0.001
271.00,0.001
272.00,0.001
273.00,-0.001
274.00,-0.001
275.00,-0.000
276.00,-0.000
277.00,0.002
278.00,-0.000
279.00,0.001
280.00,0.000
281.00,0.000
282.00,-0.000
283.00,0.000
284.00,0.002
285.00,0.001
286.00,-0.000
287.00,0.000
288.00,-0.000
289.00,-0.000
290.00,0.002
291.00,0.001
292.00,0.001
293.00,0.002
294.00,-0.001
295.00,0.000
296.00,-0.001
297.00,-0.000
298.00,0.001
299.00,0.001
300.00,-0.001
301.00,0.001
302.00,-0.001
303.00,0.001
304.00,0.002
305.00,0.001
306.00,0.002
307.00,0.004
308.00,0.005
309.00,0.012
310.00,0.019
311.00,0.032
312.00,0.043
313.00,0.070
314.00,0.105
315.00,0.153
316.00,0.215
317.00,0.311
318.00,0.420
319.00,0.577
320.00,0.766
321.00,0.986
322.00,1.258
323.00,1.593
324.00,1.961
325.00,2.364
326.00,2.806
327.00,3.347
328.00,3.892
329.00,4.474
330.00,5.135
331.00,5.813
332.00,6.520
333.00,7.307
334.00,8.034
335.00,8.833
336.00,9.607
337.00,10.452
338.00,11.276
339.00,12.068
340.00,12.860
341.00,13.616
342.00,14.338
343.00,15.069
344.00,15.794
345.00,16.460
346.00,17.097
347.00,17.678
348.00,18.319
349.00,18.835
350.00,19.380
351.00,19.841
352.00,20.272
353.00,20.699
354.00,21.111
355.00,21.501
356.00,21.877
357.00,22.169
358.00,22.470
359.00,22.786
360.00,23.069
361.00,23.321
362.00,23.535
363.00,23.783
364.00,23.875
365.00,24.023
366.00,24.143
367.00,24.254
368.00,24.420
369.00,24.415
370.00,24.517
371.00,24.532
372.00,24.516
373.00,24.565
374.00,24.516
375.00,24.472
376.00,24.416
377.00,24.334
378.00,24.220
379.00,24.160
380.00,24.128
381.00,24.148
382.00,24.176
383.00,24.182
384.00,24.271
385.00,24.341
386.00,24.396
387.00,24.499
388.00,24.604
389.00,24.613
390.00,24.726
391.00,24.764
392.00,24.823
393.00,24.865
394.00,24.890
395.00,24.973
396.00,24.948
397.00,24.997
398.00,24.966
399.00,24.981
400.00,24.991
401.00,25.053
402.00,25.052
403.00,25.026
404.00,25.024
405.00,25.114
406.00,24.973
407.00,24.940
408.00,24.977
409.00,24.916
410.00,24.842
411.00,24.790
412.00,24.822
413.00,24.813
414.00,24.750
415.00,24.760
416.00,24.812
417.00,24.806
418.00,24.849
419.00,24.935
420.00,24.953
421.00,24.983
422.00,25.021
423.00,25.079
424.00,25.100
425.00,25.152
426.00,25.146
427.00,25.243
428.00,25.269
429.00,25.327
430.00,25.339
431.00,25.416
432.00,25.455
433.00,25.499
434.00,25.544
435.00,25.622
436.00,25.691
437.00,25.737
438.00,25.819
439.00,25.857
440.00,25.985
441.00,26.033
442.00,26.101
443.00,26.181
444.00,26.302
445.00,26.379
446.00,26.489
447.00,26.573
448.00,26.692
449.00,26.799
450.00,26.867
451.00,26.968
452.00,27.086
453.00,27.226
454.00,27.281
455.00,27.436
456.00,27.562
457.00,27.680
458.00,27.770
459.00,27.927
460.00,28.044
461.00,28.166
462.00,28.269
463.00,28.397
464.00,28.575
465.00,28.694
466.00,28.831
467.00,28.968
468.00,29.032
469.00,29.147
470.00,29.248
471.00,29.350
472.00,29.468
473.00,29.543
474.00,29.671
475.00,29.764
476.00,29.893
477.00,30.007
478.00,30.142
479.00,30.308
480.00,30.418
481.00,30.553
482.00,30.698
483.00,30.826
484.00,31.025
485.00,31.120
486.00,31.267
487.00,31.410
488.00,31.484
489.00,31.702
490.00,31.802
491.00,31.966
492.00,32.100
493.00,32.295
494.00,32.427
495.00,32.443
496.00,32.629
497.00,32.721
498.00,32.847
499.00,32.914
500.00,33.133
501.00,33.132
502.00,33.342
503.00,33.448
504.00,33.532
505.00,33.666
506.00,33.769
507.00,33.891
508.00,33.986
509.00,34.131
510.00,34.307
511.00,34.405
512.00,34.510
513.00,34.698
514.00,34.646
515.00,34.808
516.00,34.961
517.00,35.011
518.00,35.177
519.00,35.235
520.00,35.282
521.00,35.399
522.00,35.493
523.00,35.522
524.00,35.599
525.00,35.712
526.00,35.784
527.00,35.824
528.00,35.910
529.00,36.101
530.00,36.221
531.00,36.381
532.00,36.432
533.00,36.567
534.00,36.616
535.00,36.694
536.00,36.776
537.00,36.846
538.00,36.899
539.00,36.923
540.00,37.027
541.00,37.064
542.00,37.108
543.00,37.159
544.00,37.221
545.00,37.318
546.00,37.324
547.00,37.447
548.00,37.546
549.00,37.599
550.00,37.681
551.00,37.742
552.00,37.770
553.00,37.856
554.00,37.868
555.00,37.929
556.00,38.037
557.00,38.088
558.00,38.049
559.00,38.190
560.00,38.222
561.00,38.310
562.00,38.402
563.00,38.423
564.00,38.493
565.00,38.480
566.00,38.502
567.00,38.526
568.00,38.553
569.00,38.674
570.00,38.636
571.00,38.721
572.00,38.717
573.00,38.697
574.00,38.725
575.00,38.726
576.00,38.742
577.00,38.753
578.00,38.926
579.00,38.982
580.00,39.010
581.00,39.117
582.00,39.192
583.00,39.221
584.00,39.237
585.00,39.370
586.00,39.377
587.00,39.382
588.00,39.371
589.00,39.338
590.00,39.510
591.00,39.589
592.00,39.530
593.00,39.579
594.00,39.646
595.00,39.762
596.00,39.748
597.00,39.833
598.00,39.962
599.00,39.917
600.00,39.982
601.00,39.978
602.00,39.950
603.00,40.009
604.00,40.072
605.00,40.151
606.00,40.199
607.00,40.159
608.00,40.205
609.00,40.312
610.00,40.407
611.00,40.286
612.00,40.357
613.00,40.402
614.00,40.437
615.00,40.521
616.00,40.607
617.00,40.591
618.00,40.608
619.00,40.676
620.00,40.681
621.00,40.790
622.00,40.892
623.00,40.883
624.00,40.967
625.00,41.013
626.00,41.017
627.00,41.095
628.00,41.089
629.00,41.205
630.00,41.103
631.00,41.238
632.00,41.365
633.00,41.497
634.00,41.547
635.00,41.609
636.00,41.712
637.00,41.709
638.00,41.774
639.00,41.847
640.00,41.920
641.00,41.958
642.00,41.986
643.00,42.055
644.00,42.182
645.00,42.225
646.00,42.357
647.00,42.348
648.00,42.461
649.00,42.447
650.00,42.434
651.00,42.618
652.00,42.732
653.00,42.790
654.00,42.738
655.00,42.955
656.00,43.113
657.00,43.115
658.00,43.105
659.00,43.272
660.00,43.202
661.00,43.223
662.00,43.372
663.00,43.466
664.00,43.714
665.00,43.818
666.00,43.767
667.00,43.940
668.00,43.980
669.00,44.057
670.00,44.256
671.00,44.126
672.00,44.227
673.00,44.295
674.00,44.467
675.00,44.495
676.00,44.695
677.00,44.759
678.00,44.617
679.00,44.797
680.00,44.950
681.00,45.146
682.00,45.148
683.00,45.066
684.00,45.182
685.00,45.317
686.00,45.255
687.00,45.401
688.00,45.479
689.00,45.319
690.00,45.625
691.00,45.875
692.00,45.672
693.00,45.640
694.00,45.828
695.00,46.022
696.00,46.001
697.00,45.861
698.00,46.023
699.00,46.190
700.00,46.050
701.00,46.100
702.00,46.673
703.00,46.937
704.00,46.652
705.00,46.549
706.00,46.689
707.00,46.753
708.00,46.596
709.00,47.000
710.00,47.246
711.00,46.849
712.00,46.887
713.00,46.854
714.00,47.166
715.00,47.533
716.00,47.203
717.00,47.340
718.00,47.511
719.00,47.474
720.00,47.591
721.00,51.977
722.00,51.920
723.00,51.949
724.00,51.972
725.00,51.980
726.00,51.965
727.00,51.999
728.00,52.021
729.00,52.066
730.00,52.051
731.00,52.065
732.00,52.027
733.00,52.092
734.00,52.097
735.00,52.246
736.00,52.154
737.00,52.112
738.00,52.241
739.00,52.200
740.00,52.226
741.00,52.261
742.00,52.352
743.00,52.277
744.00,52.251
745.00,52.222
746.00,52.250
747.00,52.225
748.00,52.242
749.00,52.276
750.00,52.217
751.00,52.209
752.00,52.166
753.00,52.162
754.00,52.264
755.00,52.162
756.00,52.231
757.00,52.196
758.00,52.181
759.00,52.213
760.00,52.244
761.00,52.252
762.00,52.153
763.00,52.309
764.00,52.305
765.00,52.230
766.00,52.307
767.00,52.269
768.00,52.273
769.00,52.196
770.00,52.286
771.00,52.275
772.00,52.297
773.00,52.184
774.00,52.300
775.00,52.352
776.00,52.322
777.00,52.300
778.00,52.314
779.00,52.298
780.00,52.204
781.00,52.269
782.00,52.270
783.00,52.207
784.00,52.219
785.00,52.101
786.00,52.247
787.00,52.142
788.00,52.093
789.00,52.046
790.00,52.056
791.00,52.140
792.00,52.090
793.00,52.071
794.00,52.068
795.00,52.012
796.00,52.017
797.00,51.967
798.00,51.934
799.00,51.921
800.00,51.992
801.00,51.949
802.00,51.901
803.00,51.902
804.00,51.811
805.00,51.811
806.00,51.791
807.00,51.818
808.00,51.821
809.00,51.770
810.00,51.743
811.00,51.723
812.00,51.725
813.00,51.734
814.00,51.724
815.00,51.752
816.00,51.716
817.00,51.673
818.00,51.601
819.00,51.593
820.00,51.573
821.00,51.507
822.00,51.578
823.00,51.422
824.00,51.525
825.00,51.510
826.00,51.473
827.00,51.444
828.00,51.456
829.00,51.433
830.00,51.436
831.00,53.740
832.00,53.718
833.00,53.687
834.00,53.653
835.00,53.669
836.00,53.646
837.00,53.646
838.00,53.583
839.00,53.600
840.00,53.557
841.00,53.562
842.00,53.495
843.00,53.495
844.00,53.506
845.00,53.419
846.00,53.433
847.00,53.385
848.00,53.375
849.00,53.322
850.00,53.318
851.00,53.284
852.00,53.235
853.00,53.211
854.00,53.172
855.00,53.133
856.00,53.107
857.00,53.105
858.00,53.069
859.00,53.047
860.00,53.031
861.00,53.036
862.00,53.028
863.00,52.990
864.00,52.947
865.00,52.987
866.00,52.964
867.00,52.966
868.00,52.925
869.00,52.951
870.00,52.928
871.00,52.867
872.00,52.873
873.00,52.853
874.00,52.897
875.00,52.817
876.00,52.830
877.00,52.815
878.00,52.791
879.00,52.790
880.00,52.753
881.00,52.769
882.00,52.736
883.00,52.723
884.00,52.696
885.00,52.662
886.00,52.654
887.00,52.622
888.00,52.632
889.00,52.454
890.00,52.581
891.00,52.535
892.00,52.500
893.00,52.629
894.00,52.503
895.00,52.488
896.00,52.464
897.00,52.429
898.00,52.390
899.00,52.404
900.00,52.388
901.00,52.351
902.00,52.360
903.00,52.336
904.00,52.337
905.00,52.312
906.00,52.324
907.00,52.275
908.00,52.241
909.00,52.213
910.00,52.179
911.00,52.185
912.00,52.177
913.00,52.128
914.00,52.122
915.00,52.117
916.00,52.093
917.00,52.003
918.00,52.201
919.00,52.004
920.00,52.020
921.00,51.970
922.00,51.968
923.00,51.943
924.00,51.946
925.00,51.916
926.00,51.888
927.00,51.889
928.00,51.854
929.00,51.848
930.00,51.831
931.00,51.796
932.00,51.735
933.00,51.772
934.00,51.737
935.00,51.741
936.00,51.698
937.00,51.649
938.00,51.683
939.00,51.658
940.00,51.651
941.00,51.623
942.00,51.649
943.00,51.599
944.00,51.572
945.00,51.560
946.00,51.551
947.00,51.503
948.00,51.471
949.00,51.465
950.00,51.426
951.00,51.396
952.00,51.391
953.00,51.359
954.00,51.337
955.00,51.294
956.00,51.284
957.00,51.258
958.00,51.254
959.00,51.209
960.00,51.203
961.00,51.173
962.00,51.198
963.00,51.166
964.00,51.140
965.00,51.127
966.00,51.121
967.00,51.105
968.00,51.110
969.00,51.116
970.00,51.083
971.00,51.111
972.00,51.064
973.00,51.089
974.00,51.100
975.00,51.108
976.00,51.086
977.00,50.993
978.00,51.154
979.00,51.201
980.00,51.100
981.00,51.092
982.00,51.085
983.00,51.071
984.00,51.063
985.00,51.068
986.00,51.031
987.00,51.047
988.00,51.020
989.00,51.012
990.00,51.014
991.00,50.996
992.00,50.997
993.00,50.955
994.00,50.956
995.00,50.946
996.00,50.959
997.00,50.922
998.00,50.899
999.00,50.927
1000.00,50.884
1001.00,50.890
1002.00,50.867
1003.00,50.867
1004.00,50.837
1005.00,50.809
1006.00,50.840
1007.00,50.811
1008.00,50.791
1009.00,50.779
1010.00,50.793
1011.00,50.763
1012.00,50.736
1013.00,50.733
1014.00,50.688
1015.00,50.712
1016.00,50.663
1017.00,50.654
1018.00,50.639
1019.00,50.617
1020.00,50.612
1021.00,50.596
1022.00,50.579
1023.00,50.553
1024.00,50.554
1025.00,50.540
1026.00,50.545
1027.00,50.513
1028.00,50.503
1029.00,50.485
1030.00,50.482
1031.00,50.443
1032.00,50.417
1033.00,50.452
1034.00,50.418
1035.00,50.379
1036.00,50.341
1037.00,50.352
1038.00,50.314
1039.00,50.299
1040.00,50.307
1041.00,50.260
1042.00,50.257
1043.00,50.244
1044.00,50.263
1045.00,50.254
1046.00,50.219
1047.00,50.246
1048.00,50.261
1049.00,50.241
1050.00,50.241
1051.00,50.292
1052.00,50.314
1053.00,50.293
1054.00,50.301
1055.00,50.313
1056.00,50.298
1057.00,50.335
1058.00,50.321
1059.00,50.320
1060.00,50.326
1061.00,50.318
1062.00,50.311
1063.00,50.306
1064.00,50.293
1065.00,50.284
1066.00,50.280
1067.00,50.285
1068.00,50.300
1069.00,50.263
1070.00,50.243
1071.00,50.217
1072.00,50.243
1073.00,50.239
1074.00,50.224
1075.00,50.205
1076.00,50.216
1077.00,50.197
1078.00,50.188
1079.00,50.174
1080.00,50.178
1081.00,50.174
1082.00,50.163
1083.00,50.143
1084.00,50.159
1085.00,50.146
1086.00,50.154
1087.00,50.157
1088.00,50.132
1089.00,50.119
1090.00,50.119
1091.00,50.109
1092.00,50.106
1093.00,50.062
1094.00,50.044
1095.00,50.058
1096.00,50.050
1097.00,50.046
1098.00,50.045
1099.00,50.030
1100.00,50.039
1101.00,50.041
1102.00,49.999
1103.00,50.004
1104.00,49.986
1105.00,49.975
1106.00,49.974
1107.00,49.955
1108.00,49.948
1109.00,49.953
1110.00,49.938
1111.00,49.933
1112.00,49.923
1113.00,49.917
1114.00,49.917
1115.00,49.905
1116.00,49.893
1117.00,49.880
1118.00,49.877
1119.00,49.866
1120.00,49.882
1121.00,49.861
1122.00,49.843
1123.00,49.843
1124.00,49.832
1125.00,49.856
1126.00,49.844
1127.00,49.819
1128.00,49.814
1129.00,49.796
1130.00,49.791
1131.00,49.793
1132.00,49.793
1133.00,49.796
1134.00,49.781
1135.00,49.771
1136.00,49.773
1137.00,49.766
1138.00,49.766
1139.00,49.788
1140.00,49.764
1141.00,49.753
1142.00,49.749
1143.00,49.768
1144.00,49.740
1145.00,49.739
1146.00,49.751
1147.00,49.722
1148.00,49.720
1149.00,49.736
1150.00,49.746
1151.00,49.744
1152.00,49.717
1153.00,49.742
1154.00,49.710
1155.00,49.713
1156.00,49.702
1157.00,49.708
1158.00,49.717
1159.00,49.710
1160.00,49.693
1161.00,49.717
1162.00,49.729
1163.00,49.709
1164.00,49.722
1165.00,49.707
1166.00,49.709
1167.00,49.701
1168.00,49.713
1169.00,49.707
1170.00,49.690
1171.00,49.679
1172.00,49.689
1173.00,49.675
1174.00,49.684
1175.00,49.686
1176.00,49.693
1177.00,49.693
1178.00,49.685
1179.00,49.697
1180.00,49.683
1181.00,49.706
1182.00,49.693
1183.00,49.699
1184.00,49.682
1185.00,49.695
1186.00,49.707
1187.00,49.686
1188.00,49.680
1189.00,49.696
1190.00,49.674
1191.00,49.688
1192.00,49.707
1193.00,49.666
1194.00,49.692
1195.00,49.667
1196.00,49.686
1197.00,49.696
1198.00,49.685
1199.00,49.678
1200.00,49.693
1201.00,49.680
1202.00,49.671
1203.00,49.659
1204.00,49.649
1205.00,49.693
1206.00,49.668
1207.00,49.693
1208.00,49.692
1209.00,49.678
1210.00,49.688
1211.00,49.677
1212.00,49.699
1213.00,49.660
1214.00,49.694
1215.00,49.681
1216.00,49.689
1217.00,49.688
1218.00,49.672
1219.00,49.707
1220.00,49.679
1221.00,49.696
1222.00,49.684
1223.00,49.703
1224.00,49.707
1225.00,49.679
1226.00,49.683
1227.00,49.691
1228.00,49.709
1229.00,49.701
1230.00,49.736
1231.00,49.728
1232.00,49.755
1233.00,49.755
1234.00,49.753
1235.00,49.770
1236.00,49.749
1237.00,49.742
1238.00,49.754
1239.00,49.755
1240.00,49.742
1241.00,49.761
1242.00,49.763
1243.00,49.785
1244.00,49.761
1245.00,49.774
1246.00,49.795
1247.00,49.793
1248.00,49.789
1249.00,49.808
1250.00,49.814
1251.00,49.793
1252.00,49.836
1253.00,49.820
1254.00,49.830
1255.00,49.817
1256.00,49.793
1257.00,49.799
1258.00,49.826
1259.00,49.815
1260.00,49.839
1261.00,49.846
1262.00,49.842
1263.00,49.840
1264.00,49.838
1265.00,49.854
1266.00,49.853
1267.00,49.865
1268.00,49.898
1269.00,49.871
1270.00,49.893
1271.00,49.910
1272.00,49.905
1273.00,49.921
1274.00,49.918
1275.00,49.927
1276.00,49.933
1277.00,49.944
1278.00,49.953
1279.00,49.971
1280.00,49.964
1281.00,49.965
1282.00,49.987
1283.00,49.971
1284.00,49.962
1285.00,49.967
1286.00,49.977
1287.00,49.974
1288.00,49.981
1289.00,49.981
1290.00,50.025
1291.00,50.007
1292.00,50.003
1293.00,50.024
1294.00,50.035
1295.00,50.053
1296.00,50.040
1297.00,50.053
1298.00,50.098
1299.00,50.059
1300.00,50.082
1301.00,50.083
1302.00,50.084
1303.00,50.094
1304.00,50.082
1305.00,50.116
1306.00,50.116
1307.00,50.129
1308.00,50.129
1309.00,50.143
1310.00,50.152
1311.00,50.129
1312.00,50.138
1313.00,50.130
1314.00,50.160
1315.00,50.183
1316.00,50.182
1317.00,50.208
1318.00,50.223
1319.00,50.214
1320.00,50.235
1321.00,50.385
1322.00,50.367
1323.00,50.377
1324.00,50.362
1325.00,50.347
1326.00,50.386
1327.00,50.374
1328.00,50.379
1329.00,50.388
1330.00,50.376
1331.00,50.384
1332.00,50.385
1333.00,50.381
1334.00,50.420
1335.00,50.428
1336.00,50.449
1337.00,50.491
1338.00,50.545
1339.00,50.592
1340.00,50.656
1341.00,50.718
1342.00,50.788
1343.00,50.845
1344.00,50.861
1345.00,50.947
1346.00,50.991
1347.00,50.970
1348.00,51.021
1349.00,51.026
1350.00,51.056
1351.00,51.079
1352.00,51.081
1353.00,51.190
1354.00,51.095
1355.00,51.067
1356.00,51.109
1357.00,51.160
1358.00,51.128
1359.00,51.182
1360.00,51.180
1361.00,51.209
1362.00,51.063
1363.00,51.181
1364.00,51.235
1365.00,51.168
1366.00,51.183
1367.00,51.177
1368.00,51.154
1369.00,51.149
1370.00,51.153
1371.00,51.117
1372.00,51.105
1373.00,51.115
1374.00,51.181
1375.00,51.157
1376.00,51.153
1377.00,51.127
1378.00,51.222
1379.00,51.181
1380.00,51.196
1381.00,51.206
1382.00,51.215
1383.00,51.221
1384.00,51.144
1385.00,51.152
1386.00,51.153
1387.00,51.112
1388.00,51.159
1389.00,51.176
1390.00,51.167
1391.00,51.103
1392.00,51.155
1393.00,51.171
1394.00,51.196
1395.00,51.081
1396.00,51.092
1397.00,51.143
1398.00,51.190
1399.00,51.202
1400.00,51.182
1401.00,51.104
1402.00,51.225
1403.00,51.257
1404.00,51.170
1405.00,51.220
1406.00,51.229
1407.00,51.211
1408.00,51.190
1409.00,51.213
1410.00,51.244
1411.00,51.229
1412.00,51.311
1413.00,51.206
1414.00,51.269
1415.00,51.269
1416.00,51.264
1417.00,51.309
1418.00,51.303
1419.00,51.312
1420.00,51.340
1421.00,51.383
1422.00,51.361
1423.00,51.373
1424.00,51.380
1425.00,51.429
1426.00,51.408
1427.00,51.432
1428.00,51.448
1429.00,51.459
1430.00,51.466
1431.00,51.495
1432.00,51.509
1433.00,51.542
1434.00,51.513
1435.00,51.569
1436.00,51.606
1437.00,51.599
1438.00,51.628
1439.00,51.675
1440.00,51.681
1441.00,51.685
1442.00,51.709
1443.00,51.722
1444.00,51.781
1445.00,51.760
1446.00,51.765
1447.00,51.817
1448.00,51.828
1449.00,51.802
1450.00,51.793
1451.00,51.862
1452.00,51.895
1453.00,51.890
1454.00,51.897
1455.00,51.952
1456.00,51.950
1457.00,51.952
1458.00,51.994
1459.00,51.989
1460.00,52.011
1461.00,52.027
1462.00,52.044
1463.00,52.071
1464.00,52.071
1465.00,52.094
1466.00,52.125
1467.00,52.135
1468.00,52.177
1469.00,52.165
1470.00,52.175
1471.00,52.193
1472.00,52.204
1473.00,52.226
1474.00,52.272
1475.00,52.274
1476.00,52.278
1477.00,52.284
1478.00,52.295
1479.00,52.315
1480.00,52.323
1481.00,52.317
1482.00,52.347
1483.00,52.373
1484.00,52.387
1485.00,52.417
1486.00,52.396
1487.00,52.417
1488.00,52.454
1489.00,52.449
1490.00,52.469
1491.00,52.495
1492.00,52.506
1493.00,52.497
1494.00,52.542
1495.00,52.512
1496.00,52.561
1497.00,52.551
1498.00,52.554
1499.00,52.602
1500.00,52.606
1501.00, 
1502.00, 
1503.00, 
1504.00, 
1505.00, 
1506.00, 
1507.00, 
1508.00, 
1509.00, 
1510.00, 
1511.00, 
1512.00, 
1513.00, 
1514.00, 
1515.00, 
1516.00, 
1517.00, 
1518.00, 
1519.00, 
1520.00, 
1521.00, 
1522.00, 
1523.00, 
1524.00, 
1525.00, 
1526.00, 
1527.00, 
1528.00, 
1529.00, 
1530.00, 
1531.00, 
1532.00, 
1533.00, 
1534.00, 
1535.00, 
1536.00, 
1537.00, 
1538.00, 
1539.00, 
1540.00, 
1541.00, 
1542.00, 
1543.00, 
1544.00, 
1545.00, 
1546.00, 
1547.00, 
1548.00, 
1549.00, 
1550.00, 
1551.00, 
1552.00, 
1553.00, 
1554.00, 
1555.00, 
1556.00, 
1557.00, 
1558.00, 
1559.00, 
1560.00, 
1561.00, 
1562.00, 
1563.00, 
1564.00, 
1565.00, 
1566.00, 
1567.00, 
1568.00, 
1569.00, 
1570.00, 
1571.00, 
1572.00, 
1573.00, 
1574.00, 
1575.00, 
1576.00, 
1577.00, 
1578.00, 
1579.00, 
1580.00, 
1581.00, 
1582.00, 
1583.00, 
1584.00, 
1585.00, 
1586.00, 
1587.00, 
1588.00, 
1589.00, 
1590.00, 
1591.00, 
1592.00, 
1593.00, 
1594.00, 
1595.00, 
1596.00, 
1597.00, 
1598.00, 
1599.00, 
1600.00, 
1601.00, 
1602.00, 
1603.00, 
1604.00, 
1605.00, 
1606.00, 
1607.00, 
1608.00, 
1609.00, 
1610.00, 
1611.00, 
1612.00, 
1613.00, 
1614.00, 
1615.00, 
1616.00, 
1617.00, 
1618.00, 
1619.00, 
1620.00, 
1621.00, 
1622.00, 
1623.00, 
1624.00, 
1625.00, 
1626.00, 
1627.00, 
1628.00, 
1629.00, 
1630.00, 
1631.00, 
1632.00, 
1633.00, 
1634.00, 
1635.00, 
1636.00, 
1637.00, 
1638.00, 
1639.00, 
1640.00, 
1641.00, 
1642.00, 
1643.00, 
1644.00, 
1645.00, 
1646.00, 
1647.00, 
1648.00, 
1649.00, 
1650.00, 
1651.00, 
1652.00, 
1653.00, 
1654.00, 
1655.00, 
1656.00, 
1657.00, 
1658.00, 
1659.00, 
1660.00, 
1661.00, 
1662.00, 
1663.00, 
1664.00, 
1665.00, 
1666.00, 
1667.00, 
1668.00, 
1669.00, 
1670.00, 
1671.00, 
1672.00, 
1673.00, 
1674.00, 
1675.00, 
1676.00, 
1677.00, 
1678.00, 
1679.00, 
1680.00, 
1681.00, 
1682.00, 
1683.00, 
1684.00, 
1685.00, 
1686.00, 
1687.00, 
1688.00, 
1689.00, 
1690.00, 
1691.00, 
1692.00, 
1693.00, 
1694.00, 
1695.00, 
1696.00, 
1697.00, 
1698.00, 
1699.00, 
1700.00, 
1701.00, 
1702.00, 
1703.00, 
1704.00, 
1705.00, 
1706.00, 
1707.00, 
1708.00, 
1709.00, 
1710.00, 
1711.00, 
1712.00, 
1713.00, 
1714.00, 
1715.00, 
1716.00, 
1717.00, 
1718.00, 
1719.00, 
1720.00, 
1721.00, 
1722.00, 
1723.00, 
1724.00, 
1725.00, 
1726.00, 
1727.00, 
1728.00, 
1729.00, 
1730.00, 
1731.00, 
1732.00, 
1733.00, 
1734.00, 
1735.00, 
1736.00, 
1737.00, 
1738.00, 
1739.00, 
1740.00, 
1741.00, 
1742.00, 
1743.00, 
1744.00, 
1745.00, 
1746.00, 
1747.00, 
1748.00, 
1749.00, 
1750.00, 
1751.00, 
1752.00, 
1753.00, 
1754.00, 
1755.00, 
1756.00, 
1757.00, 
1758.00, 
1759.00, 
1760.00, 
1761.00, 
1762.00, 
1763.00, 
1764.00, 
1765.00, 
1766.00, 
1767.00, 
1768.00, 
1769.00, 
1770.00, 
1771.00, 
1772.00, 
1773.00, 
1774.00, 
1775.00, 
1776.00, 
1777.00, 
1778.00, 
1779.00, 
1780.00, 
1781.00, 
1782.00, 
1783.00, 
1784.00, 
1785.00, 
1786.00, 
1787.00, 
1788.00, 
1789.00, 
1790.00, 
1791.00, 
1792.00, 
1793.00, 
1794.00, 
1795.00, 
1796.00, 
1797.00, 
1798.00, 
1799.00, 
1800.00, 
1801.00, 
1802.00, 
1803.00, 
1804.00, 
1805.00, 
1806.00, 
1807.00, 
1808.00, 
1809.00, 
1810.00, 
1811.00, 
1812.00, 
1813.00, 
1814.00, 
1815.00, 
1816.00, 
1817.00, 
1818.00, 
1819.00, 
1820.00, 
1821.00, 
1822.00, 
1823.00, 
1824.00, 
1825.00, 
1826.00, 
1827.00, 
1828.00, 
1829.00, 
1830.00, 
1831.00, 
1832.00, 
1833.00, 
1834.00, 
1835.00, 
1836.00, 
1837.00, 
1838.00, 
1839.00, 
1840.00, 
1841.00, 
1842.00, 
1843.00, 
1844.00, 
1845.00, 
1846.00, 
1847.00, 
1848.00, 
1849.00, 
1850.00, 
1851.00, 
1852.00, 
1853.00, 
1854.00, 
1855.00, 
1856.00, 
1857.00, 
1858.00, 
1859.00, 
1860.00, 
1861.00, 
1862.00, 
1863.00, 
1864.00, 
1865.00, 
1866.00, 
1867.00, 
1868.00, 
1869.00, 
1870.00, 
1871.00, 
1872.00, 
1873.00, 
1874.00, 
1875.00, 
1876.00, 
1877.00, 
1878.00, 
1879.00, 
1880.00, 
1881.00, 
1882.00, 
1883.00, 
1884.00, 
1885.00, 
1886.00, 
1887.00, 
1888.00, 
1889.00, 
1890.00, 
1891.00, 
1892.00, 
1893.00, 
1894.00, 
1895.00, 
1896.00, 
1897.00, 
1898.00, 
1899.00, 
1900.00, 
1901.00, 
1902.00, 
1903.00, 
1904.00, 
1905.00, 
1906.00, 
1907.00, 
1908.00, 
1909.00, 
1910.00, 
1911.00, 
1912.00, 
1913.00, 
1914.00, 
1915.00, 
1916.00, 
1917.00, 
1918.00, 
1919.00, 
1920.00, 
1921.00, 
1922.00, 
1923.00, 
1924.00, 
1925.00, 
1926.00, 
1927.00, 
1928.00, 
1929.00, 
1930.00, 
1931.00, 
1932.00, 
1933.00, 
1934.00, 
1935.00, 
1936.00, 
1937.00, 
1938.00, 
1939.00, 
1940.00, 
1941.00, 
1942.00, 
1943.00, 
1944.00, 
1945.00, 
1946.00, 
1947.00, 
1948.00, 
1949.00, 
1950.00, 
1951.00, 
1952.00, 
1953.00, 
1954.00, 
1955.00, 
1956.00, 
1957.00, 
1958.00, 
1959.00, 
1960.00, 
1961.00, 
1962.00, 
1963.00, 
1964.00, 
1965.00, 
1966.00, 
1967.00, 
1968.00, 
1969.00, 
1970.00, 
1971.00, 
1972.00, 
1973.00, 
1974.00, 
1975.00, 
1976.00, 
1977.00, 
1978.00, 
1979.00, 
1980.00, 
1981.00, 
1982.00, 
1983.00, 
1984.00, 
1985.00, 
1986.00, 
1987.00, 
1988.00, 
1989.00, 
1990.00, 
1991.00, 
1992.00, 
1993.00, 
1994.00, 
1995.00, 
1996.00, 
1997.00, 
1998.00, 
1999.00, 
2000.00, 
2001.00, 
2002.00, 
2003.00, 
2004.00, 
2005.00, 
2006.00, 
2007.00, 
2008.00, 
2009.00, 
2010.00, 
2011.00, 
2012.00, 
2013.00, 
2014.00, 
2015.00, 
2016.00, 
2017.00, 
2018.00, 
2019.00, 
2020.00, 
2021.00, 
2022.00, 
2023.00, 
2024.00, 
2025.00, 
2026.00, 
2027.00, 
2028.00, 
2029.00, 
2030.00, 
2031.00, 
2032.00, 
2033.00, 
2034.00, 
2035.00, 
2036.00, 
2037.00, 
2038.00, 
2039.00, 
2040.00, 
2041.00, 
2042.00, 
2043.00, 
2044.00, 
2045.00, 
2046.00, 
2047.00, 
2048.00, 
2049.00, 
2050.00, 
2051.00, 
2052.00, 
2053.00, 
2054.00, 
2055.00, 
2056.00, 
2057.00, 
2058.00, 
2059.00, 
2060.00, 
2061.00, 
2062.00, 
2063.00, 
2064.00, 
2065.00, 
2066.00, 
2067.00, 
2068.00, 
2069.00, 
2070.00, 
2071.00, 
2072.00, 
2073.00, 
2074.00, 
2075.00, 
2076.00, 
2077.00, 
2078.00, 
2079.00, 
2080.00, 
2081.00, 
2082.00, 
2083.00, 
2084.00, 
2085.00, 
2086.00, 
2087.00, 
2088.00, 
2089.00, 
2090.00, 
2091.00, 
2092.00, 
2093.00, 
2094.00, 
2095.00, 
2096.00, 
2097.00, 
2098.00, 
2099.00, 
2100.00, 
2101.00, 
2102.00, 
2103.00, 
2104.00, 
2105.00, 
2106.00, 
2107.00, 
2108.00, 
2109.00, 
2110.00, 
2111.00, 
2112.00, 
2113.00, 
2114.00, 
2115.00, 
2116.00, 
2117.00, 
2118.00, 
2119.00, 
2120.00, 
2121.00, 
2122.00, 
2123.00, 
2124.00, 
2125.00, 
2126.00, 
2127.00, 
2128.00, 
2129.00, 
2130.00, 
2131.00, 
2132.00, 
2133.00, 
2134.00, 
2135.00, 
2136.00, 
2137.00, 
2138.00, 
2139.00, 
2140.00, 
2141.00, 
2142.00, 
2143.00, 
2144.00, 
2145.00, 
2146.00, 
2147.00, 
2148.00, 
2149.00, 
2150.00, 
2151.00, 
2152.00, 
2153.00, 
2154.00, 
2155.00, 
2156.00, 
2157.00, 
2158.00, 
2159.00, 
2160.00, 
2161.00, 
2162.00, 
2163.00, 
2164.00, 
2165.00, 
2166.00, 
2167.00, 
2168.00, 
2169.00, 
2170.00, 
2171.00, 
2172.00, 
2173.00, 
2174.00, 
2175.00, 
2176.00, 
2177.00, 
2178.00, 
2179.00, 
2180.00, 
2181.00, 
2182.00, 
2183.00, 
2184.00, 
2185.00, 
2186.00, 
2187.00, 
2188.00, 
2189.00, 
2190.00, 
2191.00, 
2192.00, 
2193.00, 
2194.00, 
2195.00, 
2196.00, 
2197.00, 
2198.00, 
2199.00, 
2200.00, 
2201.00, 
2202.00, 
2203.00, 
2204.00, 
2205.00, 
2206.00, 
2207.00, 
2208.00, 
2209.00, 
2210.00, 
2211.00, 
2212.00, 
2213.00, 
2214.00, 
2215.00, 
2216.00, 
2217.00, 
2218.00, 
2219.00, 
2220.00, 
2221.00, 
2222.00, 
2223.00, 
2224.00, 
2225.00, 
2226.00, 
2227.00, 
2228.00, 
2229.00, 
2230.00, 
2231.00, 
2232.00, 
2233.00, 
2234.00, 
2235.00, 
2236.00, 
2237.00, 
2238.00, 
2239.00, 
2240.00, 
2241.00, 
2242.00, 
2243.00, 
2244.00, 
2245.00, 
2246.00, 
2247.00, 
2248.00, 
2249.00, 
2250.00, 
2251.00, 
2252.00, 
2253.00, 
2254.00, 
2255.00, 
2256.00, 
2257.00, 
2258.00, 
2259.00, 
2260.00, 
2261.00, 
2262.00, 
2263.00, 
2264.00, 
2265.00, 
2266.00, 
2267.00, 
2268.00, 
2269.00, 
2270.00, 
2271.00, 
2272.00, 
2273.00, 
2274.00, 
2275.00, 
2276.00, 
2277.00, 
2278.00, 
2279.00, 
2280.00, 
2281.00, 
2282.00, 
2283.00, 
2284.00, 
2285.00, 
2286.00, 
2287.00, 
2288.00, 
2289.00, 
2290.00, 
2291.00, 
2292.00, 
2293.00, 
2294.00, 
2295.00, 
2296.00, 
2297.00, 
2298.00, 
2299.00, 
2300.00, 
2301.00, 
2302.00, 
2303.00, 
2304.00, 
2305.00, 
2306.00, 
2307.00, 
2308.00, 
2309.00, 
2310.00, 
2311.00, 
2312.00, 
2313.00, 
2314.00, 
2315.00, 
2316.00, 
2317.00, 
2318.00, 
2319.00, 
2320.00, 
2321.00, 
2322.00, 
2323.00, 
2324.00, 
2325.00, 
2326.00, 
2327.00, 
2328.00, 
2329.00, 
2330.00, 
2331.00, 
2332.00, 
2333.00, 
2334.00, 
2335.00, 
2336.00, 
2337.00, 
2338.00, 
2339.00, 
2340.00, 
2341.00, 
2342.00, 
2343.00, 
2344.00, 
2345.00, 
2346.00, 
2347.00, 
2348.00, 
2349.00, 
2350.00, 
2351.00, 
2352.00, 
2353.00, 
2354.00, 
2355.00, 
2356.00, 
2357.00, 
2358.00, 
2359.00, 
2360.00, 
2361.00, 
2362.00, 
2363.00, 
2364.00, 
2365.00, 
2366.00, 
2367.00, 
2368.00, 
2369.00, 
2370.00, 
2371.00, 
2372.00, 
2373.00, 
2374.00, 
2375.00, 
2376.00, 
2377.00, 
2378.00, 
2379.00, 
2380.00, 
2381.00, 
2382.00, 
2383.00, 
2384.00, 
2385.00, 
2386.00, 
2387.00, 
2388.00, 
2389.00, 
2390.00, 
2391.00, 
2392.00, 
2393.00, 
2394.00, 
2395.00, 
2396.00, 
2397.00, 
2398.00, 
2399.00, 
2400.00, 
2401.00, 
2402.00, 
2403.00, 
2404.00, 
2405.00, 
2406.00, 
2407.00, 
2408.00, 
2409.00, 
2410.00, 
2411.00, 
2412.00, 
2413.00, 
2414.00, 
2415.00, 
2416.00, 
2417.00, 
2418.00, 
2419.00, 
2420.00, 
2421.00, 
2422.00, 
2423.00, 
2424.00, 
2425.00, 
2426.00, 
2427.00, 
2428.00, 
2429.00, 
2430.00, 
2431.00, 
2432.00, 
2433.00, 
2434.00, 
2435.00, 
2436.00, 
2437.00, 
2438.00, 
2439.00, 
2440.00, 
2441.00, 
2442.00, 
2443.00, 
2444.00, 
2445.00, 
2446.00, 
2447.00, 
2448.00, 
2449.00, 
2450.00, 
2451.00, 
2452.00, 
2453.00, 
2454.00, 
2455.00, 
2456.00, 
2457.00, 
2458.00, 
2459.00, 
2460.00, 
2461.00, 
2462.00, 
2463.00, 
2464.00, 
2465.00, 
2466.00, 
2467.00, 
2468.00, 
2469.00, 
2470.00, 
2471.00, 
2472.00, 
2473.00, 
2474.00, 
2475.00, 
2476.00, 
2477.00, 
2478.00, 
2479.00, 
2480.00, 
2481.00, 
2482.00, 
2483.00, 
2484.00, 
2485.00, 
2486.00, 
2487.00, 
2488.00, 
2489.00, 
2490.00, 
2491.00, 
2492.00, 
2493.00, 
2494.00, 
2495.00, 
2496.00, 
2497.00, 
2498.00, 
2499.00, 
2500.00, 
2501.00, 
2502.00, 
2503.00, 
2504.00, 
2505.00, 
2506.00, 
2507.00, 
2508.00, 
2509.00, 
2510.00, 
2511.00, 
2512.00, 
2513.00, 
2514.00, 
2515.00, 
2516.00, 
2517.00, 
2518.00, 
2519.00, 
2520.00, 
2521.00, 
2522.00, 
2523.00, 
2524.00, 
2525.00, 
2526.00, 
2527.00, 
2528.00, 
2529.00, 
2530.00, 
2531.00, 
2532.00, 
2533.00, 
2534.00, 
2535.00, 
2536.00, 
2537.00, 
2538.00, 
2539.00, 
2540.00, 
2541.00, 
2542.00, 
2543.00, 
2544.00, 
2545.00, 
2546.00, 
2547.00, 
2548.00, 
2549.00, 
2550.00, 
2551.00, 
2552.00, 
2553.00, 
2554.00, 
2555.00, 
2556.00, 
2557.00, 
2558.00, 
2559.00, 
2560.00, 
2561.00, 
2562.00, 
2563.00, 
2564.00, 
2565.00, 
2566.00, 
2567.00, 
2568.00, 
2569.00, 
2570.00, 
2571.00, 
2572.00, 
2573.00, 
2574.00, 
2575.00, 
2576.00, 
2577.00, 
2578.00, 
2579.00, 
2580.00, 
2581.00, 
2582.00, 
2583.00, 
2584.00, 
2585.00, 
2586.00, 
2587.00, 
2588.00, 
2589.00, 
2590.00, 
2591.00, 
2592.00, 
2593.00, 
2594.00, 
2595.00, 
2596.00, 
2597.00, 
2598.00, 
2599.00, 
2600.00, 
