"2cP1 - RawData"
"Wavelength nm.","T%"
200.00,0.002
201.00,0.003
202.00,-0.000
203.00,0.003
204.00,0.001
205.00,0.002
206.00,0.002
207.00,0.002
208.00,0.004
209.00,0.000
210.00,0.003
211.00,0.000
212.00,0.001
213.00,0.002
214.00,0.004
215.00,0.003
216.00,-0.001
217.00,0.003
218.00,0.003
219.00,0.005
220.00,-0.001
221.00,0.002
222.00,0.001
223.00,0.001
224.00,0.002
225.00,0.004
226.00,0.002
227.00,0.001
228.00,0.000
229.00,0.001
230.00,0.000
231.00,0.002
232.00,-0.001
233.00,-0.001
234.00,0.001
235.00,0.000
236.00,0.001
237.00,0.000
238.00,0.001
239.00,-0.001
240.00,0.001
241.00,0.000
242.00,0.002
243.00,0.000
244.00,0.002
245.00,0.002
246.00,-0.001
247.00,0.001
248.00,-0.000
249.00,0.002
250.00,0.001
251.00,0.000
252.00,0.002
253.00,-0.000
254.00,0.000
255.00,-0.000
256.00,0.001
257.00,-0.000
258.00,0.002
259.00,0.002
260.00,0.002
261.00,-0.000
262.00,-0.001
263.00,0.000
264.00,-0.000
265.00,0.000
266.00,0.001
267.00,-0.002
268.00,0.001
269.00,0.000
270.00,0.000
271.00,0.000
272.00,0.000
273.00,-0.000
274.00,-0.000
275.00,0.002
276.00,0.002
277.00,-0.001
278.00,-0.001
279.00,-0.001
280.00,0.000
281.00,0.001
282.00,0.000
283.00,0.001
284.00,0.002
285.00,0.000
286.00,-0.001
287.00,0.000
288.00,0.001
289.00,0.000
290.00,0.001
291.00,0.000
292.00,-0.001
293.00,-0.000
294.00,-0.000
295.00,-0.001
296.00,0.000
297.00,0.002
298.00,0.000
299.00,0.001
300.00,0.001
301.00,0.003
302.00,0.005
303.00,0.007
304.00,0.012
305.00,0.020
306.00,0.031
307.00,0.047
308.00,0.074
309.00,0.113
310.00,0.160
311.00,0.216
312.00,0.291
313.00,0.397
314.00,0.528
315.00,0.696
316.00,0.895
317.00,1.127
318.00,1.375
319.00,1.697
320.00,2.058
321.00,2.462
322.00,2.921
323.00,3.441
324.00,3.991
325.00,4.564
326.00,5.148
327.00,5.820
328.00,6.498
329.00,7.176
330.00,7.928
331.00,8.650
332.00,9.392
333.00,10.233
334.00,10.995
335.00,11.795
336.00,12.530
337.00,13.331
338.00,14.056
339.00,14.777
340.00,15.476
341.00,16.202
342.00,16.903
343.00,17.546
344.00,18.197
345.00,18.763
346.00,19.348
347.00,19.856
348.00,20.351
349.00,20.881
350.00,21.301
351.00,21.692
352.00,22.074
353.00,22.491
354.00,22.849
355.00,23.185
356.00,23.494
357.00,23.816
358.00,24.039
359.00,24.296
360.00,24.559
361.00,24.780
362.00,24.977
363.00,25.189
364.00,25.372
365.00,25.533
366.00,25.672
367.00,25.775
368.00,25.974
369.00,25.970
370.00,26.036
371.00,26.091
372.00,26.131
373.00,26.129
374.00,26.136
375.00,26.158
376.00,26.141
377.00,26.107
378.00,26.055
379.00,26.039
380.00,25.987
381.00,26.028
382.00,26.001
383.00,26.030
384.00,26.141
385.00,26.192
386.00,26.236
387.00,26.315
388.00,26.357
389.00,26.375
390.00,26.461
391.00,26.513
392.00,26.527
393.00,26.593
394.00,26.620
395.00,26.663
396.00,26.632
397.00,26.662
398.00,26.705
399.00,26.698
400.00,26.709
401.00,26.749
402.00,26.752
403.00,26.740
404.00,26.760
405.00,26.838
406.00,26.723
407.00,26.677
408.00,26.709
409.00,26.664
410.00,26.620
411.00,26.576
412.00,26.623
413.00,26.592
414.00,26.614
415.00,26.591
416.00,26.628
417.00,26.640
418.00,26.649
419.00,26.686
420.00,26.676
421.00,26.794
422.00,26.815
423.00,26.916
424.00,26.834
425.00,26.870
426.00,26.924
427.00,26.913
428.00,27.055
429.00,27.123
430.00,27.107
431.00,27.155
432.00,27.179
433.00,27.264
434.00,27.299
435.00,27.352
436.00,27.396
437.00,27.456
438.00,27.538
439.00,27.596
440.00,27.664
441.00,27.755
442.00,27.848
443.00,27.890
444.00,27.982
445.00,28.060
446.00,28.149
447.00,28.229
448.00,28.329
449.00,28.431
450.00,28.480
451.00,28.550
452.00,28.691
453.00,28.806
454.00,28.882
455.00,29.002
456.00,29.102
457.00,29.197
458.00,29.328
459.00,29.421
460.00,29.527
461.00,29.631
462.00,29.767
463.00,29.864
464.00,30.043
465.00,30.125
466.00,30.176
467.00,30.316
468.00,30.410
469.00,30.506
470.00,30.602
471.00,30.705
472.00,30.821
473.00,30.896
474.00,31.006
475.00,31.120
476.00,31.205
477.00,31.307
478.00,31.464
479.00,31.558
480.00,31.691
481.00,31.839
482.00,31.933
483.00,32.086
484.00,32.209
485.00,32.352
486.00,32.490
487.00,32.607
488.00,32.768
489.00,32.939
490.00,33.036
491.00,33.150
492.00,33.290
493.00,33.427
494.00,33.510
495.00,33.599
496.00,33.710
497.00,33.781
498.00,33.950
499.00,34.078
500.00,34.139
501.00,34.295
502.00,34.400
503.00,34.518
504.00,34.652
505.00,34.753
506.00,34.889
507.00,34.964
508.00,35.067
509.00,35.183
510.00,35.283
511.00,35.417
512.00,35.569
513.00,35.741
514.00,35.720
515.00,35.854
516.00,35.920
517.00,36.043
518.00,36.173
519.00,36.220
520.00,36.311
521.00,36.385
522.00,36.439
523.00,36.529
524.00,36.574
525.00,36.683
526.00,36.774
527.00,36.829
528.00,36.886
529.00,37.011
530.00,37.091
531.00,37.250
532.00,37.316
533.00,37.471
534.00,37.514
535.00,37.549
536.00,37.655
537.00,37.651
538.00,37.871
539.00,37.906
540.00,37.989
541.00,38.065
542.00,38.069
543.00,38.134
544.00,38.233
545.00,38.267
546.00,38.298
547.00,38.429
548.00,38.530
549.00,38.518
550.00,38.671
551.00,38.733
552.00,38.686
553.00,38.868
554.00,38.948
555.00,38.904
556.00,38.947
557.00,38.990
558.00,39.072
559.00,39.179
560.00,39.203
561.00,39.296
562.00,39.390
563.00,39.383
564.00,39.472
565.00,39.492
566.00,39.485
567.00,39.528
568.00,39.569
569.00,39.681
570.00,39.589
571.00,39.726
572.00,39.733
573.00,39.654
574.00,39.828
575.00,39.847
576.00,39.877
577.00,39.910
578.00,39.973
579.00,40.095
580.00,40.157
581.00,40.215
582.00,40.262
583.00,40.391
584.00,40.452
585.00,40.454
586.00,40.528
587.00,40.644
588.00,40.599
589.00,40.616
590.00,40.777
591.00,40.771
592.00,40.682
593.00,40.836
594.00,40.883
595.00,40.813
596.00,40.919
597.00,40.981
598.00,40.942
599.00,41.055
600.00,41.194
601.00,41.216
602.00,41.107
603.00,41.190
604.00,41.359
605.00,41.356
606.00,41.442
607.00,41.462
608.00,41.497
609.00,41.511
610.00,41.515
611.00,41.581
612.00,41.586
613.00,41.642
614.00,41.551
615.00,41.704
616.00,41.839
617.00,41.830
618.00,41.917
619.00,41.977
620.00,41.979
621.00,42.038
622.00,42.122
623.00,42.164
624.00,42.186
625.00,42.262
626.00,42.272
627.00,42.369
628.00,42.386
629.00,42.479
630.00,42.491
631.00,42.501
632.00,42.543
633.00,42.624
634.00,42.698
635.00,42.759
636.00,42.855
637.00,42.929
638.00,42.929
639.00,43.014
640.00,43.105
641.00,43.053
642.00,43.128
643.00,43.175
644.00,43.287
645.00,43.270
646.00,43.436
647.00,43.471
648.00,43.537
649.00,43.602
650.00,43.622
651.00,43.747
652.00,43.749
653.00,43.810
654.00,43.937
655.00,43.876
656.00,43.926
657.00,43.285
658.00,44.153
659.00,44.331
660.00,44.358
661.00,44.269
662.00,44.433
663.00,44.486
664.00,44.631
665.00,44.633
666.00,44.537
667.00,44.642
668.00,45.225
669.00,44.908
670.00,45.005
671.00,45.051
672.00,45.120
673.00,45.191
674.00,45.326
675.00,45.370
676.00,45.449
677.00,45.421
678.00,45.497
679.00,45.598
680.00,45.662
681.00,45.717
682.00,45.870
683.00,45.887
684.00,45.962
685.00,46.035
686.00,46.057
687.00,46.149
688.00,46.105
689.00,46.084
690.00,46.180
691.00,46.367
692.00,46.439
693.00,46.517
694.00,46.525
695.00,46.579
696.00,46.604
697.00,46.778
698.00,46.901
699.00,46.933
700.00,47.014
701.00,46.935
702.00,47.115
703.00,47.256
704.00,47.232
705.00,47.146
706.00,47.320
707.00,47.406
708.00,47.220
709.00,47.469
710.00,47.594
711.00,47.487
712.00,47.543
713.00,47.729
714.00,47.442
715.00,47.619
716.00,47.782
717.00,47.623
718.00,47.783
719.00,47.835
720.00,47.837
721.00,52.154
722.00,52.152
723.00,52.167
724.00,52.160
725.00,52.139
726.00,52.153
727.00,52.097
728.00,52.162
729.00,52.155
730.00,52.111
731.00,52.166
732.00,52.182
733.00,52.242
734.00,52.242
735.00,52.305
736.00,52.162
737.00,52.226
738.00,52.299
739.00,52.295
740.00,52.268
741.00,52.311
742.00,52.348
743.00,52.306
744.00,52.300
745.00,52.256
746.00,52.286
747.00,52.287
748.00,52.277
749.00,52.302
750.00,52.231
751.00,52.149
752.00,52.195
753.00,52.225
754.00,52.203
755.00,52.134
756.00,52.126
757.00,52.213
758.00,52.111
759.00,52.160
760.00,52.134
761.00,52.181
762.00,52.074
763.00,52.205
764.00,52.214
765.00,52.180
766.00,52.164
767.00,52.105
768.00,52.159
769.00,52.124
770.00,52.178
771.00,52.180
772.00,52.170
773.00,52.196
774.00,52.227
775.00,52.242
776.00,52.188
777.00,52.180
778.00,52.198
779.00,52.238
780.00,52.135
781.00,52.141
782.00,52.151
783.00,52.087
784.00,52.095
785.00,52.043
786.00,52.063
787.00,52.123
788.00,52.048
789.00,51.993
790.00,51.983
791.00,52.001
792.00,51.938
793.00,51.935
794.00,51.971
795.00,51.939
796.00,51.889
797.00,51.930
798.00,51.955
799.00,51.828
800.00,51.938
801.00,51.859
802.00,51.795
803.00,51.813
804.00,51.719
805.00,51.682
806.00,51.786
807.00,51.804
808.00,51.682
809.00,51.712
810.00,51.668
811.00,51.579
812.00,51.631
813.00,51.596
814.00,51.540
815.00,51.606
816.00,51.550
817.00,51.577
818.00,51.485
819.00,51.449
820.00,51.458
821.00,51.400
822.00,51.472
823.00,51.363
824.00,51.373
825.00,51.385
826.00,51.309
827.00,51.336
828.00,51.441
829.00,51.292
830.00,51.240
831.00,53.801
832.00,53.828
833.00,53.752
834.00,53.779
835.00,53.757
836.00,53.746
837.00,53.724
838.00,53.660
839.00,53.681
840.00,53.631
841.00,53.619
842.00,53.575
843.00,53.577
844.00,53.581
845.00,53.516
846.00,53.525
847.00,53.525
848.00,53.441
849.00,53.428
850.00,53.404
851.00,53.343
852.00,53.298
853.00,53.282
854.00,53.249
855.00,53.197
856.00,53.140
857.00,53.161
858.00,53.163
859.00,53.101
860.00,53.088
861.00,53.247
862.00,53.052
863.00,53.083
864.00,52.992
865.00,53.032
866.00,52.988
867.00,52.984
868.00,52.968
869.00,52.994
870.00,52.921
871.00,52.933
872.00,52.908
873.00,52.898
874.00,52.905
875.00,52.872
876.00,52.866
877.00,52.856
878.00,52.836
879.00,52.820
880.00,52.808
881.00,52.796
882.00,52.753
883.00,52.787
884.00,52.742
885.00,52.673
886.00,52.673
887.00,52.671
888.00,52.686
889.00,52.475
890.00,52.606
891.00,52.583
892.00,52.576
893.00,52.564
894.00,52.545
895.00,52.507
896.00,52.495
897.00,52.466
898.00,52.429
899.00,52.424
900.00,52.428
901.00,52.412
902.00,52.387
903.00,52.368
904.00,52.370
905.00,52.336
906.00,52.314
907.00,52.295
908.00,52.268
909.00,52.226
910.00,52.213
911.00,52.203
912.00,52.222
913.00,52.150
914.00,52.138
915.00,52.134
916.00,52.121
917.00,52.086
918.00,52.054
919.00,52.038
920.00,52.037
921.00,52.003
922.00,51.976
923.00,51.988
924.00,51.948
925.00,51.930
926.00,51.894
927.00,51.885
928.00,51.892
929.00,51.863
930.00,51.797
931.00,51.882
932.00,51.779
933.00,51.796
934.00,51.741
935.00,51.747
936.00,51.733
937.00,51.694
938.00,51.682
939.00,51.687
940.00,51.653
941.00,51.624
942.00,51.631
943.00,51.608
944.00,51.569
945.00,51.554
946.00,51.644
947.00,51.535
948.00,51.503
949.00,51.481
950.00,51.462
951.00,51.429
952.00,51.407
953.00,51.387
954.00,51.361
955.00,51.328
956.00,51.314
957.00,51.276
958.00,51.274
959.00,51.261
960.00,51.222
961.00,51.190
962.00,51.213
963.00,51.173
964.00,51.162
965.00,51.132
966.00,51.147
967.00,51.141
968.00,51.115
969.00,51.135
970.00,51.117
971.00,51.132
972.00,51.097
973.00,51.115
974.00,51.124
975.00,51.105
976.00,51.105
977.00,51.003
978.00,51.125
979.00,51.086
980.00,51.110
981.00,51.110
982.00,51.127
983.00,51.090
984.00,51.086
985.00,51.095
986.00,51.057
987.00,51.078
988.00,51.046
989.00,51.037
990.00,51.028
991.00,50.987
992.00,51.050
993.00,50.990
994.00,50.976
995.00,50.956
996.00,50.964
997.00,50.933
998.00,50.903
999.00,50.929
1000.00,50.880
1001.00,50.887
1002.00,50.873
1003.00,50.872
1004.00,50.852
1005.00,50.833
1006.00,50.857
1007.00,50.859
1008.00,50.808
1009.00,50.781
1010.00,50.776
1011.00,50.759
1012.00,50.735
1013.00,50.730
1014.00,50.701
1015.00,50.724
1016.00,50.674
1017.00,50.676
1018.00,50.659
1019.00,50.633
1020.00,50.627
1021.00,50.612
1022.00,50.598
1023.00,50.604
1024.00,50.567
1025.00,50.542
1026.00,50.545
1027.00,50.503
1028.00,50.504
1029.00,50.493
1030.00,50.468
1031.00,50.456
1032.00,50.454
1033.00,50.436
1034.00,50.400
1035.00,50.381
1036.00,50.345
1037.00,50.337
1038.00,50.338
1039.00,50.290
1040.00,50.293
1041.00,50.245
1042.00,50.239
1043.00,50.212
1044.00,50.229
1045.00,50.223
1046.00,50.201
1047.00,50.213
1048.00,50.236
1049.00,50.236
1050.00,50.262
1051.00,50.273
1052.00,50.281
1053.00,50.302
1054.00,50.297
1055.00,50.309
1056.00,50.275
1057.00,50.327
1058.00,50.298
1059.00,50.299
1060.00,50.297
1061.00,50.288
1062.00,50.282
1063.00,50.294
1064.00,50.266
1065.00,50.275
1066.00,50.262
1067.00,50.252
1068.00,50.278
1069.00,50.239
1070.00,50.214
1071.00,50.199
1072.00,50.206
1073.00,50.184
1074.00,50.182
1075.00,50.158
1076.00,50.149
1077.00,50.131
1078.00,50.126
1079.00,50.114
1080.00,50.121
1081.00,50.102
1082.00,50.095
1083.00,50.077
1084.00,50.084
1085.00,50.063
1086.00,50.075
1087.00,50.076
1088.00,50.044
1089.00,50.023
1090.00,50.041
1091.00,50.017
1092.00,50.017
1093.00,49.986
1094.00,49.983
1095.00,49.968
1096.00,49.971
1097.00,49.952
1098.00,49.955
1099.00,49.966
1100.00,49.930
1101.00,49.915
1102.00,49.916
1103.00,49.904
1104.00,49.895
1105.00,49.868
1106.00,49.873
1107.00,49.856
1108.00,49.849
1109.00,49.842
1110.00,49.838
1111.00,49.821
1112.00,49.817
1113.00,49.819
1114.00,49.828
1115.00,49.807
1116.00,49.801
1117.00,49.790
1118.00,49.787
1119.00,49.772
1120.00,49.776
1121.00,49.761
1122.00,49.745
1123.00,49.741
1124.00,49.727
1125.00,49.714
1126.00,49.717
1127.00,49.706
1128.00,49.704
1129.00,49.672
1130.00,49.681
1131.00,49.677
1132.00,49.687
1133.00,49.675
1134.00,49.660
1135.00,49.643
1136.00,49.642
1137.00,49.639
1138.00,49.633
1139.00,49.638
1140.00,49.618
1141.00,49.602
1142.00,49.610
1143.00,49.625
1144.00,49.599
1145.00,49.596
1146.00,49.611
1147.00,49.587
1148.00,49.589
1149.00,49.589
1150.00,49.601
1151.00,49.589
1152.00,49.557
1153.00,49.573
1154.00,49.554
1155.00,49.555
1156.00,49.543
1157.00,49.557
1158.00,49.563
1159.00,49.540
1160.00,49.541
1161.00,49.544
1162.00,49.533
1163.00,49.535
1164.00,49.525
1165.00,49.521
1166.00,49.508
1167.00,49.510
1168.00,49.523
1169.00,49.522
1170.00,49.514
1171.00,49.485
1172.00,49.500
1173.00,49.492
1174.00,49.504
1175.00,49.514
1176.00,49.509
1177.00,49.489
1178.00,49.490
1179.00,49.514
1180.00,49.492
1181.00,49.501
1182.00,49.502
1183.00,49.489
1184.00,49.476
1185.00,49.480
1186.00,49.474
1187.00,49.487
1188.00,49.468
1189.00,49.478
1190.00,49.472
1191.00,49.476
1192.00,49.468
1193.00,49.459
1194.00,49.481
1195.00,49.452
1196.00,49.459
1197.00,49.458
1198.00,49.460
1199.00,49.444
1200.00,49.450
1201.00,49.452
1202.00,49.441
1203.00,49.447
1204.00,49.426
1205.00,49.464
1206.00,49.440
1207.00,49.443
1208.00,49.425
1209.00,49.435
1210.00,49.436
1211.00,49.426
1212.00,49.448
1213.00,49.414
1214.00,49.439
1215.00,49.420
1216.00,49.431
1217.00,49.423
1218.00,49.410
1219.00,49.436
1220.00,49.420
1221.00,49.425
1222.00,49.409
1223.00,49.432
1224.00,49.428
1225.00,49.417
1226.00,49.422
1227.00,49.412
1228.00,49.422
1229.00,49.422
1230.00,49.468
1231.00,49.449
1232.00,49.459
1233.00,49.464
1234.00,49.460
1235.00,49.461
1236.00,49.458
1237.00,49.450
1238.00,49.468
1239.00,49.461
1240.00,49.463
1241.00,49.466
1242.00,49.466
1243.00,49.484
1244.00,49.460
1245.00,49.476
1246.00,49.490
1247.00,49.484
1248.00,49.468
1249.00,49.476
1250.00,49.481
1251.00,49.474
1252.00,49.493
1253.00,49.482
1254.00,49.505
1255.00,49.509
1256.00,49.487
1257.00,49.476
1258.00,49.515
1259.00,49.509
1260.00,49.526
1261.00,49.532
1262.00,49.520
1263.00,49.518
1264.00,49.522
1265.00,49.525
1266.00,49.543
1267.00,49.528
1268.00,49.560
1269.00,49.525
1270.00,49.545
1271.00,49.552
1272.00,49.556
1273.00,49.557
1274.00,49.555
1275.00,49.560
1276.00,49.568
1277.00,49.567
1278.00,49.579
1279.00,49.580
1280.00,49.583
1281.00,49.583
1282.00,49.611
1283.00,49.587
1284.00,49.586
1285.00,49.571
1286.00,49.588
1287.00,49.583
1288.00,49.590
1289.00,49.592
1290.00,49.612
1291.00,49.615
1292.00,49.627
1293.00,49.622
1294.00,49.630
1295.00,49.646
1296.00,49.639
1297.00,49.652
1298.00,49.657
1299.00,49.648
1300.00,49.658
1301.00,49.666
1302.00,49.664
1303.00,49.688
1304.00,49.668
1305.00,49.690
1306.00,49.687
1307.00,49.704
1308.00,49.706
1309.00,49.706
1310.00,49.716
1311.00,49.704
1312.00,49.713
1313.00,49.706
1314.00,49.719
1315.00,49.729
1316.00,49.724
1317.00,49.741
1318.00,49.734
1319.00,49.742
1320.00,49.768
1321.00,49.910
1322.00,49.927
1323.00,49.911
1324.00,49.904
1325.00,49.915
1326.00,49.932
1327.00,49.921
1328.00,49.917
1329.00,49.928
1330.00,49.922
1331.00,49.930
1332.00,49.916
1333.00,49.914
1334.00,49.950
1335.00,49.952
1336.00,49.986
1337.00,50.024
1338.00,50.076
1339.00,50.133
1340.00,50.194
1341.00,50.254
1342.00,50.334
1343.00,50.366
1344.00,50.407
1345.00,50.486
1346.00,50.507
1347.00,50.514
1348.00,50.564
1349.00,50.567
1350.00,50.588
1351.00,50.610
1352.00,50.612
1353.00,50.700
1354.00,50.611
1355.00,50.567
1356.00,50.621
1357.00,50.631
1358.00,50.646
1359.00,50.697
1360.00,50.696
1361.00,50.582
1362.00,50.592
1363.00,50.703
1364.00,50.594
1365.00,50.637
1366.00,50.581
1367.00,50.560
1368.00,50.615
1369.00,50.602
1370.00,50.625
1371.00,50.486
1372.00,50.577
1373.00,50.617
1374.00,50.626
1375.00,50.614
1376.00,50.610
1377.00,50.599
1378.00,50.677
1379.00,50.599
1380.00,50.608
1381.00,50.550
1382.00,50.520
1383.00,50.587
1384.00,50.559
1385.00,50.562
1386.00,50.597
1387.00,50.529
1388.00,50.536
1389.00,50.532
1390.00,50.643
1391.00,50.522
1392.00,50.607
1393.00,50.663
1394.00,50.562
1395.00,50.550
1396.00,50.522
1397.00,50.567
1398.00,50.600
1399.00,50.563
1400.00,50.557
1401.00,50.540
1402.00,50.616
1403.00,50.590
1404.00,50.572
1405.00,50.624
1406.00,50.598
1407.00,50.650
1408.00,50.590
1409.00,50.585
1410.00,50.634
1411.00,50.666
1412.00,50.662
1413.00,50.588
1414.00,50.667
1415.00,50.671
1416.00,50.674
1417.00,50.675
1418.00,50.678
1419.00,50.681
1420.00,50.721
1421.00,50.726
1422.00,50.744
1423.00,50.741
1424.00,50.793
1425.00,50.771
1426.00,50.775
1427.00,50.804
1428.00,50.816
1429.00,50.818
1430.00,50.833
1431.00,50.829
1432.00,50.853
1433.00,50.890
1434.00,50.881
1435.00,50.916
1436.00,50.928
1437.00,50.921
1438.00,50.937
1439.00,50.976
1440.00,50.980
1441.00,50.984
1442.00,50.996
1443.00,51.035
1444.00,51.046
1445.00,51.034
1446.00,51.036
1447.00,51.095
1448.00,51.083
1449.00,51.090
1450.00,51.058
1451.00,51.116
1452.00,51.136
1453.00,51.155
1454.00,51.147
1455.00,51.184
1456.00,51.190
1457.00,51.194
1458.00,51.220
1459.00,51.232
1460.00,51.252
1461.00,51.258
1462.00,51.266
1463.00,51.296
1464.00,51.294
1465.00,51.317
1466.00,51.328
1467.00,51.350
1468.00,51.386
1469.00,51.406
1470.00,51.393
1471.00,51.395
1472.00,51.403
1473.00,51.405
1474.00,51.446
1475.00,51.443
1476.00,51.461
1477.00,51.470
1478.00,51.473
1479.00,51.504
1480.00,51.519
1481.00,51.508
1482.00,51.544
1483.00,51.551
1484.00,51.570
1485.00,51.592
1486.00,51.566
1487.00,51.582
1488.00,51.600
1489.00,51.607
1490.00,51.623
1491.00,51.637
1492.00,51.637
1493.00,51.651
1494.00,51.674
1495.00,51.664
1496.00,51.680
1497.00,51.676
1498.00,51.680
1499.00,51.714
1500.00,51.720
1501.00, 
1502.00, 
1503.00, 
1504.00, 
1505.00, 
1506.00, 
1507.00, 
1508.00, 
1509.00, 
1510.00, 
1511.00, 
1512.00, 
1513.00, 
1514.00, 
1515.00, 
1516.00, 
1517.00, 
1518.00, 
1519.00, 
1520.00, 
1521.00, 
1522.00, 
1523.00, 
1524.00, 
1525.00, 
1526.00, 
1527.00, 
1528.00, 
1529.00, 
1530.00, 
1531.00, 
1532.00, 
1533.00, 
1534.00, 
1535.00, 
1536.00, 
1537.00, 
1538.00, 
1539.00, 
1540.00, 
1541.00, 
1542.00, 
1543.00, 
1544.00, 
1545.00, 
1546.00, 
1547.00, 
1548.00, 
1549.00, 
1550.00, 
1551.00, 
1552.00, 
1553.00, 
1554.00, 
1555.00, 
1556.00, 
1557.00, 
1558.00, 
1559.00, 
1560.00, 
1561.00, 
1562.00, 
1563.00, 
1564.00, 
1565.00, 
1566.00, 
1567.00, 
1568.00, 
1569.00, 
1570.00, 
1571.00, 
1572.00, 
1573.00, 
1574.00, 
1575.00, 
1576.00, 
1577.00, 
1578.00, 
1579.00, 
1580.00, 
1581.00, 
1582.00, 
1583.00, 
1584.00, 
1585.00, 
1586.00, 
1587.00, 
1588.00, 
1589.00, 
1590.00, 
1591.00, 
1592.00, 
1593.00, 
1594.00, 
1595.00, 
1596.00, 
1597.00, 
1598.00, 
1599.00, 
1600.00, 
1601.00, 
1602.00, 
1603.00, 
1604.00, 
1605.00, 
1606.00, 
1607.00, 
1608.00, 
1609.00, 
1610.00, 
1611.00, 
1612.00, 
1613.00, 
1614.00, 
1615.00, 
1616.00, 
1617.00, 
1618.00, 
1619.00, 
1620.00, 
1621.00, 
1622.00, 
1623.00, 
1624.00, 
1625.00, 
1626.00, 
1627.00, 
1628.00, 
1629.00, 
1630.00, 
1631.00, 
1632.00, 
1633.00, 
1634.00, 
1635.00, 
1636.00, 
1637.00, 
1638.00, 
1639.00, 
1640.00, 
1641.00, 
1642.00, 
1643.00, 
1644.00, 
1645.00, 
1646.00, 
1647.00, 
1648.00, 
1649.00, 
1650.00, 
1651.00, 
1652.00, 
1653.00, 
1654.00, 
1655.00, 
1656.00, 
1657.00, 
1658.00, 
1659.00, 
1660.00, 
1661.00, 
1662.00, 
1663.00, 
1664.00, 
1665.00, 
1666.00, 
1667.00, 
1668.00, 
1669.00, 
1670.00, 
1671.00, 
1672.00, 
1673.00, 
1674.00, 
1675.00, 
1676.00, 
1677.00, 
1678.00, 
1679.00, 
1680.00, 
1681.00, 
1682.00, 
1683.00, 
1684.00, 
1685.00, 
1686.00, 
1687.00, 
1688.00, 
1689.00, 
1690.00, 
1691.00, 
1692.00, 
1693.00, 
1694.00, 
1695.00, 
1696.00, 
1697.00, 
1698.00, 
1699.00, 
1700.00, 
1701.00, 
1702.00, 
1703.00, 
1704.00, 
1705.00, 
1706.00, 
1707.00, 
1708.00, 
1709.00, 
1710.00, 
1711.00, 
1712.00, 
1713.00, 
1714.00, 
1715.00, 
1716.00, 
1717.00, 
1718.00, 
1719.00, 
1720.00, 
1721.00, 
1722.00, 
1723.00, 
1724.00, 
1725.00, 
1726.00, 
1727.00, 
1728.00, 
1729.00, 
1730.00, 
1731.00, 
1732.00, 
1733.00, 
1734.00, 
1735.00, 
1736.00, 
1737.00, 
1738.00, 
1739.00, 
1740.00, 
1741.00, 
1742.00, 
1743.00, 
1744.00, 
1745.00, 
1746.00, 
1747.00, 
1748.00, 
1749.00, 
1750.00, 
1751.00, 
1752.00, 
1753.00, 
1754.00, 
1755.00, 
1756.00, 
1757.00, 
1758.00, 
1759.00, 
1760.00, 
1761.00, 
1762.00, 
1763.00, 
1764.00, 
1765.00, 
1766.00, 
1767.00, 
1768.00, 
1769.00, 
1770.00, 
1771.00, 
1772.00, 
1773.00, 
1774.00, 
1775.00, 
1776.00, 
1777.00, 
1778.00, 
1779.00, 
1780.00, 
1781.00, 
1782.00, 
1783.00, 
1784.00, 
1785.00, 
1786.00, 
1787.00, 
1788.00, 
1789.00, 
1790.00, 
1791.00, 
1792.00, 
1793.00, 
1794.00, 
1795.00, 
1796.00, 
1797.00, 
1798.00, 
1799.00, 
1800.00, 
1801.00, 
1802.00, 
1803.00, 
1804.00, 
1805.00, 
1806.00, 
1807.00, 
1808.00, 
1809.00, 
1810.00, 
1811.00, 
1812.00, 
1813.00, 
1814.00, 
1815.00, 
1816.00, 
1817.00, 
1818.00, 
1819.00, 
1820.00, 
1821.00, 
1822.00, 
1823.00, 
1824.00, 
1825.00, 
1826.00, 
1827.00, 
1828.00, 
1829.00, 
1830.00, 
1831.00, 
1832.00, 
1833.00, 
1834.00, 
1835.00, 
1836.00, 
1837.00, 
1838.00, 
1839.00, 
1840.00, 
1841.00, 
1842.00, 
1843.00, 
1844.00, 
1845.00, 
1846.00, 
1847.00, 
1848.00, 
1849.00, 
1850.00, 
1851.00, 
1852.00, 
1853.00, 
1854.00, 
1855.00, 
1856.00, 
1857.00, 
1858.00, 
1859.00, 
1860.00, 
1861.00, 
1862.00, 
1863.00, 
1864.00, 
1865.00, 
1866.00, 
1867.00, 
1868.00, 
1869.00, 
1870.00, 
1871.00, 
1872.00, 
1873.00, 
1874.00, 
1875.00, 
1876.00, 
1877.00, 
1878.00, 
1879.00, 
1880.00, 
1881.00, 
1882.00, 
1883.00, 
1884.00, 
1885.00, 
1886.00, 
1887.00, 
1888.00, 
1889.00, 
1890.00, 
1891.00, 
1892.00, 
1893.00, 
1894.00, 
1895.00, 
1896.00, 
1897.00, 
1898.00, 
1899.00, 
1900.00, 
1901.00, 
1902.00, 
1903.00, 
1904.00, 
1905.00, 
1906.00, 
1907.00, 
1908.00, 
1909.00, 
1910.00, 
1911.00, 
1912.00, 
1913.00, 
1914.00, 
1915.00, 
1916.00, 
1917.00, 
1918.00, 
1919.00, 
1920.00, 
1921.00, 
1922.00, 
1923.00, 
1924.00, 
1925.00, 
1926.00, 
1927.00, 
1928.00, 
1929.00, 
1930.00, 
1931.00, 
1932.00, 
1933.00, 
1934.00, 
1935.00, 
1936.00, 
1937.00, 
1938.00, 
1939.00, 
1940.00, 
1941.00, 
1942.00, 
1943.00, 
1944.00, 
1945.00, 
1946.00, 
1947.00, 
1948.00, 
1949.00, 
1950.00, 
1951.00, 
1952.00, 
1953.00, 
1954.00, 
1955.00, 
1956.00, 
1957.00, 
1958.00, 
1959.00, 
1960.00, 
1961.00, 
1962.00, 
1963.00, 
1964.00, 
1965.00, 
1966.00, 
1967.00, 
1968.00, 
1969.00, 
1970.00, 
1971.00, 
1972.00, 
1973.00, 
1974.00, 
1975.00, 
1976.00, 
1977.00, 
1978.00, 
1979.00, 
1980.00, 
1981.00, 
1982.00, 
1983.00, 
1984.00, 
1985.00, 
1986.00, 
1987.00, 
1988.00, 
1989.00, 
1990.00, 
1991.00, 
1992.00, 
1993.00, 
1994.00, 
1995.00, 
1996.00, 
1997.00, 
1998.00, 
1999.00, 
2000.00, 
2001.00, 
2002.00, 
2003.00, 
2004.00, 
2005.00, 
2006.00, 
2007.00, 
2008.00, 
2009.00, 
2010.00, 
2011.00, 
2012.00, 
2013.00, 
2014.00, 
2015.00, 
2016.00, 
2017.00, 
2018.00, 
2019.00, 
2020.00, 
2021.00, 
2022.00, 
2023.00, 
2024.00, 
2025.00, 
2026.00, 
2027.00, 
2028.00, 
2029.00, 
2030.00, 
2031.00, 
2032.00, 
2033.00, 
2034.00, 
2035.00, 
2036.00, 
2037.00, 
2038.00, 
2039.00, 
2040.00, 
2041.00, 
2042.00, 
2043.00, 
2044.00, 
2045.00, 
2046.00, 
2047.00, 
2048.00, 
2049.00, 
2050.00, 
2051.00, 
2052.00, 
2053.00, 
2054.00, 
2055.00, 
2056.00, 
2057.00, 
2058.00, 
2059.00, 
2060.00, 
2061.00, 
2062.00, 
2063.00, 
2064.00, 
2065.00, 
2066.00, 
2067.00, 
2068.00, 
2069.00, 
2070.00, 
2071.00, 
2072.00, 
2073.00, 
2074.00, 
2075.00, 
2076.00, 
2077.00, 
2078.00, 
2079.00, 
2080.00, 
2081.00, 
2082.00, 
2083.00, 
2084.00, 
2085.00, 
2086.00, 
2087.00, 
2088.00, 
2089.00, 
2090.00, 
2091.00, 
2092.00, 
2093.00, 
2094.00, 
2095.00, 
2096.00, 
2097.00, 
2098.00, 
2099.00, 
2100.00, 
2101.00, 
2102.00, 
2103.00, 
2104.00, 
2105.00, 
2106.00, 
2107.00, 
2108.00, 
2109.00, 
2110.00, 
2111.00, 
2112.00, 
2113.00, 
2114.00, 
2115.00, 
2116.00, 
2117.00, 
2118.00, 
2119.00, 
2120.00, 
2121.00, 
2122.00, 
2123.00, 
2124.00, 
2125.00, 
2126.00, 
2127.00, 
2128.00, 
2129.00, 
2130.00, 
2131.00, 
2132.00, 
2133.00, 
2134.00, 
2135.00, 
2136.00, 
2137.00, 
2138.00, 
2139.00, 
2140.00, 
2141.00, 
2142.00, 
2143.00, 
2144.00, 
2145.00, 
2146.00, 
2147.00, 
2148.00, 
2149.00, 
2150.00, 
2151.00, 
2152.00, 
2153.00, 
2154.00, 
2155.00, 
2156.00, 
2157.00, 
2158.00, 
2159.00, 
2160.00, 
2161.00, 
2162.00, 
2163.00, 
2164.00, 
2165.00, 
2166.00, 
2167.00, 
2168.00, 
2169.00, 
2170.00, 
2171.00, 
2172.00, 
2173.00, 
2174.00, 
2175.00, 
2176.00, 
2177.00, 
2178.00, 
2179.00, 
2180.00, 
2181.00, 
2182.00, 
2183.00, 
2184.00, 
2185.00, 
2186.00, 
2187.00, 
2188.00, 
2189.00, 
2190.00, 
2191.00, 
2192.00, 
2193.00, 
2194.00, 
2195.00, 
2196.00, 
2197.00, 
2198.00, 
2199.00, 
2200.00, 
2201.00, 
2202.00, 
2203.00, 
2204.00, 
2205.00, 
2206.00, 
2207.00, 
2208.00, 
2209.00, 
2210.00, 
2211.00, 
2212.00, 
2213.00, 
2214.00, 
2215.00, 
2216.00, 
2217.00, 
2218.00, 
2219.00, 
2220.00, 
2221.00, 
2222.00, 
2223.00, 
2224.00, 
2225.00, 
2226.00, 
2227.00, 
2228.00, 
2229.00, 
2230.00, 
2231.00, 
2232.00, 
2233.00, 
2234.00, 
2235.00, 
2236.00, 
2237.00, 
2238.00, 
2239.00, 
2240.00, 
2241.00, 
2242.00, 
2243.00, 
2244.00, 
2245.00, 
2246.00, 
2247.00, 
2248.00, 
2249.00, 
2250.00, 
2251.00, 
2252.00, 
2253.00, 
2254.00, 
2255.00, 
2256.00, 
2257.00, 
2258.00, 
2259.00, 
2260.00, 
2261.00, 
2262.00, 
2263.00, 
2264.00, 
2265.00, 
2266.00, 
2267.00, 
2268.00, 
2269.00, 
2270.00, 
2271.00, 
2272.00, 
2273.00, 
2274.00, 
2275.00, 
2276.00, 
2277.00, 
2278.00, 
2279.00, 
2280.00, 
2281.00, 
2282.00, 
2283.00, 
2284.00, 
2285.00, 
2286.00, 
2287.00, 
2288.00, 
2289.00, 
2290.00, 
2291.00, 
2292.00, 
2293.00, 
2294.00, 
2295.00, 
2296.00, 
2297.00, 
2298.00, 
2299.00, 
2300.00, 
2301.00, 
2302.00, 
2303.00, 
2304.00, 
2305.00, 
2306.00, 
2307.00, 
2308.00, 
2309.00, 
2310.00, 
2311.00, 
2312.00, 
2313.00, 
2314.00, 
2315.00, 
2316.00, 
2317.00, 
2318.00, 
2319.00, 
2320.00, 
2321.00, 
2322.00, 
2323.00, 
2324.00, 
2325.00, 
2326.00, 
2327.00, 
2328.00, 
2329.00, 
2330.00, 
2331.00, 
2332.00, 
2333.00, 
2334.00, 
2335.00, 
2336.00, 
2337.00, 
2338.00, 
2339.00, 
2340.00, 
2341.00, 
2342.00, 
2343.00, 
2344.00, 
2345.00, 
2346.00, 
2347.00, 
2348.00, 
2349.00, 
2350.00, 
2351.00, 
2352.00, 
2353.00, 
2354.00, 
2355.00, 
2356.00, 
2357.00, 
2358.00, 
2359.00, 
2360.00, 
2361.00, 
2362.00, 
2363.00, 
2364.00, 
2365.00, 
2366.00, 
2367.00, 
2368.00, 
2369.00, 
2370.00, 
2371.00, 
2372.00, 
2373.00, 
2374.00, 
2375.00, 
2376.00, 
2377.00, 
2378.00, 
2379.00, 
2380.00, 
2381.00, 
2382.00, 
2383.00, 
2384.00, 
2385.00, 
2386.00, 
2387.00, 
2388.00, 
2389.00, 
2390.00, 
2391.00, 
2392.00, 
2393.00, 
2394.00, 
2395.00, 
2396.00, 
2397.00, 
2398.00, 
2399.00, 
2400.00, 
2401.00, 
2402.00, 
2403.00, 
2404.00, 
2405.00, 
2406.00, 
2407.00, 
2408.00, 
2409.00, 
2410.00, 
2411.00, 
2412.00, 
2413.00, 
2414.00, 
2415.00, 
2416.00, 
2417.00, 
2418.00, 
2419.00, 
2420.00, 
2421.00, 
2422.00, 
2423.00, 
2424.00, 
2425.00, 
2426.00, 
2427.00, 
2428.00, 
2429.00, 
2430.00, 
2431.00, 
2432.00, 
2433.00, 
2434.00, 
2435.00, 
2436.00, 
2437.00, 
2438.00, 
2439.00, 
2440.00, 
2441.00, 
2442.00, 
2443.00, 
2444.00, 
2445.00, 
2446.00, 
2447.00, 
2448.00, 
2449.00, 
2450.00, 
2451.00, 
2452.00, 
2453.00, 
2454.00, 
2455.00, 
2456.00, 
2457.00, 
2458.00, 
2459.00, 
2460.00, 
2461.00, 
2462.00, 
2463.00, 
2464.00, 
2465.00, 
2466.00, 
2467.00, 
2468.00, 
2469.00, 
2470.00, 
2471.00, 
2472.00, 
2473.00, 
2474.00, 
2475.00, 
2476.00, 
2477.00, 
2478.00, 
2479.00, 
2480.00, 
2481.00, 
2482.00, 
2483.00, 
2484.00, 
2485.00, 
2486.00, 
2487.00, 
2488.00, 
2489.00, 
2490.00, 
2491.00, 
2492.00, 
2493.00, 
2494.00, 
2495.00, 
2496.00, 
2497.00, 
2498.00, 
2499.00, 
2500.00, 
2501.00, 
2502.00, 
2503.00, 
2504.00, 
2505.00, 
2506.00, 
2507.00, 
2508.00, 
2509.00, 
2510.00, 
2511.00, 
2512.00, 
2513.00, 
2514.00, 
2515.00, 
2516.00, 
2517.00, 
2518.00, 
2519.00, 
2520.00, 
2521.00, 
2522.00, 
2523.00, 
2524.00, 
2525.00, 
2526.00, 
2527.00, 
2528.00, 
2529.00, 
2530.00, 
2531.00, 
2532.00, 
2533.00, 
2534.00, 
2535.00, 
2536.00, 
2537.00, 
2538.00, 
2539.00, 
2540.00, 
2541.00, 
2542.00, 
2543.00, 
2544.00, 
2545.00, 
2546.00, 
2547.00, 
2548.00, 
2549.00, 
2550.00, 
2551.00, 
2552.00, 
2553.00, 
2554.00, 
2555.00, 
2556.00, 
2557.00, 
2558.00, 
2559.00, 
2560.00, 
2561.00, 
2562.00, 
2563.00, 
2564.00, 
2565.00, 
2566.00, 
2567.00, 
2568.00, 
2569.00, 
2570.00, 
2571.00, 
2572.00, 
2573.00, 
2574.00, 
2575.00, 
2576.00, 
2577.00, 
2578.00, 
2579.00, 
2580.00, 
2581.00, 
2582.00, 
2583.00, 
2584.00, 
2585.00, 
2586.00, 
2587.00, 
2588.00, 
2589.00, 
2590.00, 
2591.00, 
2592.00, 
2593.00, 
2594.00, 
2595.00, 
2596.00, 
2597.00, 
2598.00, 
2599.00, 
2600.00, 
