"2cP2 - RawData"
"Wavelength nm.","T%"
200.00,0.001
201.00,0.000
202.00,0.003
203.00,0.003
204.00,0.001
205.00,0.003
206.00,0.004
207.00,0.003
208.00,-0.000
209.00,0.002
210.00,0.003
211.00,0.001
212.00,0.001
213.00,0.001
214.00,0.000
215.00,0.002
216.00,0.004
217.00,-0.001
218.00,-0.002
219.00,0.003
220.00,0.001
221.00,0.003
222.00,0.003
223.00,0.000
224.00,0.001
225.00,0.002
226.00,0.003
227.00,0.001
228.00,0.002
229.00,0.003
230.00,0.002
231.00,-0.000
232.00,0.001
233.00,0.000
234.00,0.001
235.00,0.001
236.00,0.001
237.00,0.002
238.00,0.001
239.00,-0.001
240.00,0.000
241.00,0.001
242.00,0.002
243.00,0.002
244.00,0.000
245.00,0.001
246.00,0.001
247.00,0.001
248.00,-0.001
249.00,0.001
250.00,0.000
251.00,-0.002
252.00,-0.001
253.00,0.002
254.00,0.001
255.00,0.000
256.00,0.002
257.00,-0.000
258.00,0.001
259.00,0.002
260.00,0.002
261.00,0.001
262.00,-0.000
263.00,-0.001
264.00,0.001
265.00,0.000
266.00,0.001
267.00,-0.000
268.00,0.000
269.00,0.001
270.00,0.001
271.00,0.001
272.00,-0.000
273.00,0.002
274.00,0.000
275.00,-0.000
276.00,-0.000
277.00,-0.000
278.00,0.001
279.00,0.001
280.00,0.000
281.00,0.000
282.00,-0.000
283.00,-0.002
284.00,-0.000
285.00,-0.001
286.00,0.000
287.00,0.001
288.00,0.000
289.00,0.001
290.00,-0.001
291.00,-0.002
292.00,-0.001
293.00,0.001
294.00,0.002
295.00,-0.001
296.00,0.001
297.00,0.000
298.00,0.001
299.00,0.001
300.00,0.004
301.00,0.005
302.00,0.010
303.00,0.016
304.00,0.020
305.00,0.034
306.00,0.054
307.00,0.083
308.00,0.124
309.00,0.194
310.00,0.269
311.00,0.370
312.00,0.517
313.00,0.695
314.00,0.908
315.00,1.186
316.00,1.504
317.00,1.897
318.00,2.337
319.00,2.884
320.00,3.474
321.00,4.169
322.00,4.963
323.00,5.850
324.00,6.756
325.00,7.705
326.00,8.709
327.00,9.829
328.00,10.978
329.00,12.142
330.00,13.304
331.00,14.464
332.00,15.835
333.00,17.170
334.00,18.441
335.00,19.773
336.00,21.059
337.00,22.354
338.00,23.586
339.00,24.820
340.00,26.032
341.00,27.279
342.00,28.335
343.00,29.492
344.00,30.560
345.00,31.467
346.00,32.437
347.00,33.312
348.00,34.256
349.00,35.018
350.00,35.806
351.00,36.504
352.00,37.085
353.00,37.842
354.00,38.437
355.00,39.007
356.00,39.662
357.00,40.138
358.00,40.507
359.00,41.161
360.00,41.575
361.00,41.931
362.00,42.298
363.00,42.704
364.00,43.025
365.00,43.345
366.00,43.624
367.00,43.914
368.00,44.153
369.00,44.275
370.00,44.482
371.00,44.453
372.00,44.753
373.00,44.836
374.00,44.837
375.00,44.892
376.00,44.973
377.00,44.904
378.00,44.884
379.00,44.880
380.00,44.929
381.00,44.973
382.00,45.131
383.00,45.161
384.00,45.321
385.00,45.470
386.00,45.604
387.00,45.767
388.00,45.911
389.00,46.050
390.00,46.165
391.00,46.314
392.00,46.265
393.00,46.562
394.00,46.685
395.00,46.762
396.00,46.768
397.00,46.907
398.00,47.008
399.00,47.069
400.00,47.108
401.00,47.180
402.00,47.220
403.00,47.256
404.00,47.309
405.00,47.525
406.00,47.343
407.00,47.278
408.00,47.272
409.00,47.213
410.00,47.167
411.00,47.107
412.00,47.110
413.00,47.100
414.00,47.134
415.00,47.116
416.00,47.161
417.00,47.182
418.00,47.188
419.00,47.260
420.00,47.288
421.00,47.376
422.00,47.394
423.00,47.442
424.00,47.405
425.00,47.427
426.00,47.456
427.00,47.563
428.00,47.534
429.00,47.592
430.00,47.589
431.00,47.539
432.00,47.588
433.00,47.648
434.00,47.651
435.00,47.679
436.00,47.671
437.00,47.727
438.00,47.754
439.00,47.765
440.00,47.868
441.00,47.858
442.00,47.846
443.00,47.935
444.00,48.002
445.00,48.028
446.00,48.032
447.00,48.129
448.00,48.196
449.00,48.283
450.00,48.225
451.00,48.309
452.00,48.365
453.00,48.369
454.00,48.426
455.00,48.485
456.00,48.527
457.00,48.619
458.00,48.585
459.00,48.662
460.00,48.734
461.00,48.782
462.00,48.819
463.00,48.836
464.00,48.928
465.00,48.938
466.00,48.974
467.00,49.105
468.00,49.105
469.00,49.123
470.00,49.118
471.00,49.138
472.00,49.048
473.00,49.127
474.00,49.188
475.00,49.204
476.00,49.170
477.00,49.204
478.00,49.283
479.00,49.316
480.00,49.384
481.00,49.470
482.00,49.510
483.00,49.515
484.00,49.595
485.00,49.727
486.00,49.750
487.00,49.773
488.00,49.864
489.00,49.950
490.00,50.025
491.00,50.059
492.00,50.108
493.00,50.255
494.00,50.192
495.00,50.251
496.00,50.275
497.00,50.261
498.00,50.347
499.00,50.367
500.00,50.413
501.00,50.461
502.00,50.504
503.00,50.518
504.00,50.591
505.00,50.631
506.00,50.647
507.00,50.660
508.00,50.735
509.00,50.768
510.00,50.803
511.00,50.878
512.00,50.946
513.00,51.030
514.00,51.011
515.00,51.018
516.00,51.084
517.00,51.105
518.00,51.216
519.00,51.137
520.00,51.151
521.00,51.147
522.00,51.157
523.00,51.145
524.00,51.112
525.00,51.159
526.00,51.231
527.00,51.257
528.00,51.288
529.00,51.391
530.00,51.343
531.00,51.492
532.00,51.552
533.00,51.646
534.00,51.617
535.00,51.653
536.00,51.658
537.00,51.702
538.00,51.760
539.00,51.700
540.00,51.692
541.00,51.683
542.00,51.532
543.00,51.764
544.00,51.795
545.00,51.816
546.00,51.807
547.00,51.884
548.00,51.948
549.00,51.931
550.00,52.021
551.00,52.016
552.00,52.034
553.00,52.116
554.00,52.122
555.00,52.060
556.00,52.042
557.00,52.126
558.00,52.197
559.00,52.186
560.00,52.157
561.00,52.236
562.00,52.235
563.00,52.205
564.00,52.258
565.00,52.260
566.00,52.195
567.00,52.222
568.00,52.189
569.00,52.176
570.00,52.072
571.00,52.009
572.00,52.245
573.00,52.194
574.00,52.282
575.00,52.234
576.00,52.215
577.00,52.231
578.00,52.323
579.00,52.357
580.00,52.414
581.00,52.481
582.00,52.507
583.00,52.525
584.00,52.609
585.00,52.630
586.00,52.629
587.00,52.689
588.00,52.643
589.00,52.666
590.00,52.712
591.00,52.715
592.00,52.644
593.00,52.754
594.00,52.741
595.00,52.713
596.00,52.764
597.00,52.776
598.00,52.897
599.00,52.841
600.00,52.888
601.00,52.938
602.00,52.863
603.00,52.823
604.00,52.813
605.00,52.831
606.00,52.908
607.00,52.863
608.00,52.900
609.00,52.880
610.00,52.884
611.00,52.791
612.00,52.835
613.00,52.766
614.00,52.762
615.00,52.823
616.00,52.884
617.00,52.914
618.00,52.858
619.00,52.905
620.00,52.849
621.00,52.867
622.00,52.888
623.00,52.909
624.00,52.936
625.00,52.876
626.00,52.946
627.00,52.901
628.00,52.851
629.00,52.943
630.00,52.839
631.00,52.815
632.00,52.825
633.00,52.961
634.00,52.929
635.00,52.893
636.00,53.000
637.00,52.962
638.00,52.938
639.00,52.957
640.00,52.905
641.00,52.853
642.00,52.938
643.00,52.962
644.00,52.949
645.00,52.937
646.00,52.922
647.00,52.966
648.00,52.946
649.00,52.928
650.00,52.894
651.00,52.831
652.00,52.914
653.00,52.937
654.00,52.788
655.00,52.927
656.00,52.926
657.00,53.018
658.00,52.948
659.00,53.029
660.00,52.989
661.00,52.819
662.00,52.883
663.00,52.931
664.00,52.977
665.00,52.900
666.00,52.914
667.00,52.983
668.00,52.921
669.00,52.981
670.00,52.941
671.00,52.843
672.00,52.910
673.00,52.923
674.00,53.003
675.00,52.882
676.00,52.929
677.00,52.847
678.00,52.725
679.00,52.806
680.00,52.806
681.00,52.797
682.00,52.825
683.00,52.823
684.00,52.779
685.00,52.734
686.00,52.675
687.00,52.763
688.00,52.730
689.00,52.597
690.00,52.691
691.00,52.796
692.00,52.594
693.00,52.527
694.00,52.652
695.00,52.561
696.00,52.687
697.00,52.633
698.00,52.699
699.00,52.603
700.00,52.543
701.00,52.679
702.00,52.639
703.00,52.728
704.00,52.594
705.00,52.507
706.00,52.633
707.00,52.726
708.00,52.437
709.00,52.549
710.00,52.828
711.00,52.497
712.00,52.433
713.00,52.529
714.00,52.342
715.00,52.395
716.00,52.427
717.00,52.377
718.00,52.500
719.00,52.281
720.00,52.453
721.00,56.792
722.00,56.650
723.00,56.628
724.00,56.602
725.00,56.522
726.00,56.433
727.00,56.347
728.00,56.309
729.00,56.239
730.00,56.155
731.00,56.230
732.00,56.086
733.00,56.049
734.00,55.978
735.00,55.984
736.00,55.853
737.00,55.872
738.00,55.858
739.00,55.847
740.00,55.793
741.00,55.719
742.00,55.742
743.00,55.650
744.00,55.564
745.00,55.483
746.00,55.398
747.00,55.333
748.00,55.298
749.00,55.168
750.00,55.163
751.00,55.092
752.00,55.062
753.00,54.963
754.00,54.991
755.00,54.908
756.00,54.854
757.00,54.867
758.00,54.784
759.00,54.679
760.00,54.671
761.00,54.692
762.00,54.546
763.00,54.639
764.00,54.579
765.00,54.481
766.00,54.476
767.00,54.394
768.00,54.356
769.00,54.344
770.00,54.339
771.00,54.352
772.00,54.345
773.00,54.183
774.00,54.168
775.00,54.192
776.00,54.226
777.00,54.061
778.00,54.123
779.00,54.050
780.00,54.015
781.00,53.923
782.00,53.941
783.00,53.870
784.00,53.813
785.00,53.733
786.00,53.844
787.00,53.712
788.00,53.679
789.00,53.646
790.00,53.611
791.00,53.711
792.00,53.603
793.00,53.456
794.00,53.466
795.00,53.393
796.00,53.348
797.00,53.364
798.00,53.257
799.00,53.195
800.00,53.245
801.00,53.242
802.00,53.086
803.00,53.138
804.00,53.055
805.00,52.997
806.00,52.932
807.00,52.996
808.00,52.949
809.00,52.876
810.00,52.880
811.00,52.808
812.00,52.770
813.00,52.747
814.00,52.672
815.00,52.745
816.00,52.634
817.00,52.661
818.00,52.519
819.00,52.558
820.00,52.522
821.00,52.494
822.00,52.454
823.00,52.290
824.00,52.427
825.00,52.310
826.00,52.311
827.00,52.249
828.00,52.246
829.00,52.183
830.00,52.138
831.00,54.790
832.00,54.766
833.00,54.678
834.00,54.683
835.00,54.653
836.00,54.624
837.00,54.618
838.00,54.566
839.00,54.549
840.00,54.491
841.00,54.476
842.00,54.422
843.00,54.404
844.00,54.406
845.00,54.320
846.00,54.314
847.00,54.303
848.00,54.234
849.00,54.218
850.00,54.170
851.00,54.089
852.00,54.068
853.00,54.019
854.00,53.993
855.00,53.922
856.00,53.892
857.00,53.885
858.00,53.863
859.00,53.802
860.00,53.789
861.00,53.792
862.00,53.712
863.00,53.737
864.00,53.690
865.00,53.689
866.00,53.659
867.00,53.658
868.00,53.628
869.00,53.609
870.00,53.585
871.00,53.574
872.00,53.538
873.00,53.515
874.00,53.516
875.00,53.470
876.00,53.450
877.00,53.416
878.00,53.397
879.00,53.387
880.00,53.348
881.00,53.375
882.00,53.341
883.00,53.304
884.00,53.259
885.00,53.239
886.00,53.201
887.00,53.218
888.00,53.217
889.00,52.957
890.00,53.163
891.00,53.084
892.00,53.094
893.00,53.059
894.00,53.050
895.00,53.010
896.00,52.994
897.00,52.964
898.00,52.920
899.00,52.933
900.00,52.910
901.00,52.904
902.00,52.884
903.00,52.834
904.00,52.845
905.00,52.812
906.00,52.795
907.00,52.775
908.00,52.731
909.00,52.691
910.00,52.664
911.00,52.646
912.00,52.677
913.00,52.594
914.00,52.607
915.00,52.575
916.00,52.574
917.00,52.521
918.00,52.475
919.00,52.462
920.00,52.440
921.00,52.415
922.00,52.399
923.00,52.412
924.00,52.383
925.00,52.342
926.00,52.330
927.00,52.324
928.00,52.286
929.00,52.256
930.00,52.241
931.00,52.234
932.00,52.179
933.00,52.202
934.00,52.136
935.00,52.145
936.00,52.141
937.00,52.091
938.00,52.090
939.00,52.084
940.00,52.046
941.00,52.010
942.00,52.025
943.00,51.983
944.00,51.934
945.00,51.942
946.00,51.925
947.00,51.916
948.00,51.873
949.00,51.856
950.00,51.836
951.00,51.797
952.00,51.784
953.00,51.747
954.00,51.728
955.00,51.684
956.00,51.691
957.00,51.647
958.00,51.660
959.00,51.610
960.00,51.594
961.00,51.559
962.00,51.566
963.00,51.533
964.00,51.527
965.00,51.487
966.00,51.505
967.00,51.489
968.00,51.461
969.00,51.481
970.00,51.456
971.00,51.466
972.00,51.437
973.00,51.449
974.00,51.471
975.00,51.450
976.00,51.447
977.00,51.360
978.00,51.478
979.00,51.430
980.00,51.471
981.00,51.451
982.00,51.441
983.00,51.429
984.00,51.415
985.00,51.452
986.00,51.392
987.00,51.395
988.00,51.381
989.00,51.357
990.00,51.343
991.00,51.336
992.00,51.340
993.00,51.313
994.00,51.297
995.00,51.277
996.00,51.281
997.00,51.252
998.00,51.233
999.00,51.257
1000.00,51.200
1001.00,51.222
1002.00,51.200
1003.00,51.201
1004.00,51.175
1005.00,51.158
1006.00,51.164
1007.00,51.141
1008.00,51.126
1009.00,51.098
1010.00,51.097
1011.00,51.061
1012.00,51.047
1013.00,51.063
1014.00,51.030
1015.00,51.044
1016.00,51.002
1017.00,51.004
1018.00,50.988
1019.00,50.961
1020.00,50.944
1021.00,50.948
1022.00,50.912
1023.00,50.869
1024.00,50.886
1025.00,50.849
1026.00,50.861
1027.00,50.828
1028.00,50.821
1029.00,50.817
1030.00,50.781
1031.00,50.761
1032.00,50.742
1033.00,50.746
1034.00,50.713
1035.00,50.688
1036.00,50.657
1037.00,50.646
1038.00,50.633
1039.00,50.586
1040.00,50.601
1041.00,50.558
1042.00,50.554
1043.00,50.544
1044.00,50.550
1045.00,50.529
1046.00,50.524
1047.00,50.524
1048.00,50.541
1049.00,50.551
1050.00,50.546
1051.00,50.578
1052.00,50.596
1053.00,50.597
1054.00,50.606
1055.00,50.620
1056.00,50.587
1057.00,50.643
1058.00,50.623
1059.00,50.620
1060.00,50.610
1061.00,50.597
1062.00,50.592
1063.00,50.606
1064.00,50.580
1065.00,50.582
1066.00,50.569
1067.00,50.556
1068.00,50.581
1069.00,50.555
1070.00,50.527
1071.00,50.505
1072.00,50.509
1073.00,50.495
1074.00,50.484
1075.00,50.469
1076.00,50.467
1077.00,50.444
1078.00,50.441
1079.00,50.432
1080.00,50.444
1081.00,50.420
1082.00,50.429
1083.00,50.437
1084.00,50.408
1085.00,50.387
1086.00,50.393
1087.00,50.398
1088.00,50.368
1089.00,50.359
1090.00,50.371
1091.00,50.340
1092.00,50.338
1093.00,50.301
1094.00,50.293
1095.00,50.290
1096.00,50.274
1097.00,50.263
1098.00,50.272
1099.00,50.263
1100.00,50.253
1101.00,50.245
1102.00,50.237
1103.00,50.231
1104.00,50.227
1105.00,50.192
1106.00,50.203
1107.00,50.181
1108.00,50.166
1109.00,50.175
1110.00,50.164
1111.00,50.152
1112.00,50.149
1113.00,50.135
1114.00,50.135
1115.00,50.133
1116.00,50.118
1117.00,50.102
1118.00,50.108
1119.00,50.086
1120.00,50.105
1121.00,50.088
1122.00,50.071
1123.00,50.073
1124.00,50.058
1125.00,50.056
1126.00,50.049
1127.00,50.025
1128.00,50.027
1129.00,50.001
1130.00,50.006
1131.00,50.006
1132.00,50.012
1133.00,49.992
1134.00,49.986
1135.00,49.979
1136.00,49.979
1137.00,49.971
1138.00,49.961
1139.00,49.979
1140.00,49.969
1141.00,49.952
1142.00,49.976
1143.00,50.001
1144.00,49.966
1145.00,49.949
1146.00,49.955
1147.00,49.936
1148.00,49.936
1149.00,49.926
1150.00,49.948
1151.00,49.944
1152.00,49.910
1153.00,49.919
1154.00,49.888
1155.00,49.890
1156.00,49.894
1157.00,49.899
1158.00,49.902
1159.00,49.882
1160.00,49.863
1161.00,49.878
1162.00,49.870
1163.00,49.866
1164.00,49.869
1165.00,49.865
1166.00,49.859
1167.00,49.884
1168.00,49.884
1169.00,49.878
1170.00,49.879
1171.00,49.845
1172.00,49.862
1173.00,49.842
1174.00,49.843
1175.00,49.850
1176.00,49.846
1177.00,49.838
1178.00,49.846
1179.00,49.850
1180.00,49.837
1181.00,49.855
1182.00,49.844
1183.00,49.841
1184.00,49.830
1185.00,49.837
1186.00,49.840
1187.00,49.835
1188.00,49.816
1189.00,49.843
1190.00,49.815
1191.00,49.819
1192.00,49.824
1193.00,49.802
1194.00,49.836
1195.00,49.809
1196.00,49.821
1197.00,49.827
1198.00,49.821
1199.00,49.798
1200.00,49.822
1201.00,49.809
1202.00,49.812
1203.00,49.815
1204.00,49.790
1205.00,49.831
1206.00,49.792
1207.00,49.800
1208.00,49.790
1209.00,49.791
1210.00,49.791
1211.00,49.792
1212.00,49.819
1213.00,49.783
1214.00,49.815
1215.00,49.788
1216.00,49.804
1217.00,49.804
1218.00,49.792
1219.00,49.824
1220.00,49.792
1221.00,49.795
1222.00,49.799
1223.00,49.813
1224.00,49.804
1225.00,49.787
1226.00,49.784
1227.00,49.794
1228.00,49.811
1229.00,49.808
1230.00,49.850
1231.00,49.828
1232.00,49.840
1233.00,49.857
1234.00,49.849
1235.00,49.845
1236.00,49.841
1237.00,49.818
1238.00,49.841
1239.00,49.841
1240.00,49.830
1241.00,49.842
1242.00,49.848
1243.00,49.869
1244.00,49.855
1245.00,49.866
1246.00,49.881
1247.00,49.889
1248.00,49.865
1249.00,49.885
1250.00,49.898
1251.00,49.868
1252.00,49.900
1253.00,49.874
1254.00,49.893
1255.00,49.906
1256.00,49.881
1257.00,49.869
1258.00,49.907
1259.00,49.891
1260.00,49.930
1261.00,49.930
1262.00,49.908
1263.00,49.929
1264.00,49.922
1265.00,49.931
1266.00,49.956
1267.00,49.923
1268.00,49.955
1269.00,49.936
1270.00,49.940
1271.00,49.956
1272.00,49.952
1273.00,49.955
1274.00,49.975
1275.00,49.973
1276.00,49.975
1277.00,49.985
1278.00,49.988
1279.00,49.993
1280.00,49.997
1281.00,49.984
1282.00,50.016
1283.00,49.995
1284.00,49.991
1285.00,49.989
1286.00,49.993
1287.00,49.992
1288.00,50.009
1289.00,50.008
1290.00,50.035
1291.00,50.043
1292.00,50.030
1293.00,50.040
1294.00,50.061
1295.00,50.069
1296.00,50.074
1297.00,50.070
1298.00,50.083
1299.00,50.080
1300.00,50.078
1301.00,50.090
1302.00,50.087
1303.00,50.097
1304.00,50.088
1305.00,50.114
1306.00,50.116
1307.00,50.129
1308.00,50.131
1309.00,50.135
1310.00,50.154
1311.00,50.129
1312.00,50.140
1313.00,50.128
1314.00,50.136
1315.00,50.154
1316.00,50.159
1317.00,50.170
1318.00,50.171
1319.00,50.165
1320.00,50.188
1321.00,50.336
1322.00,50.346
1323.00,50.337
1324.00,50.333
1325.00,50.321
1326.00,50.354
1327.00,50.349
1328.00,50.335
1329.00,50.350
1330.00,50.343
1331.00,50.345
1332.00,50.348
1333.00,50.335
1334.00,50.351
1335.00,50.384
1336.00,50.402
1337.00,50.447
1338.00,50.488
1339.00,50.529
1340.00,50.610
1341.00,50.654
1342.00,50.737
1343.00,50.794
1344.00,50.821
1345.00,50.890
1346.00,50.931
1347.00,50.951
1348.00,50.981
1349.00,50.974
1350.00,50.995
1351.00,51.029
1352.00,51.009
1353.00,51.090
1354.00,51.040
1355.00,51.065
1356.00,51.079
1357.00,51.053
1358.00,51.055
1359.00,51.100
1360.00,51.076
1361.00,51.071
1362.00,51.075
1363.00,51.099
1364.00,51.142
1365.00,51.095
1366.00,51.070
1367.00,51.075
1368.00,51.094
1369.00,51.079
1370.00,51.013
1371.00,51.425
1372.00,51.048
1373.00,51.043
1374.00,51.059
1375.00,51.038
1376.00,51.049
1377.00,51.023
1378.00,51.060
1379.00,51.056
1380.00,51.056
1381.00,51.010
1382.00,51.023
1383.00,51.029
1384.00,50.995
1385.00,51.012
1386.00,51.041
1387.00,50.992
1388.00,50.964
1389.00,50.986
1390.00,51.063
1391.00,50.999
1392.00,51.042
1393.00,51.015
1394.00,51.025
1395.00,51.017
1396.00,50.981
1397.00,51.019
1398.00,51.068
1399.00,51.022
1400.00,51.013
1401.00,51.016
1402.00,51.056
1403.00,51.055
1404.00,51.041
1405.00,51.060
1406.00,51.065
1407.00,51.086
1408.00,51.065
1409.00,51.037
1410.00,51.087
1411.00,51.093
1412.00,51.115
1413.00,51.040
1414.00,51.113
1415.00,51.139
1416.00,51.127
1417.00,51.131
1418.00,51.126
1419.00,51.141
1420.00,51.180
1421.00,51.189
1422.00,51.198
1423.00,51.204
1424.00,51.219
1425.00,51.228
1426.00,51.235
1427.00,51.245
1428.00,51.266
1429.00,51.281
1430.00,51.291
1431.00,51.304
1432.00,51.321
1433.00,51.352
1434.00,51.343
1435.00,51.373
1436.00,51.389
1437.00,51.373
1438.00,51.386
1439.00,51.438
1440.00,51.441
1441.00,51.436
1442.00,51.459
1443.00,51.481
1444.00,51.483
1445.00,51.489
1446.00,51.488
1447.00,51.542
1448.00,51.547
1449.00,51.544
1450.00,51.528
1451.00,51.590
1452.00,51.593
1453.00,51.617
1454.00,51.618
1455.00,51.647
1456.00,51.660
1457.00,51.664
1458.00,51.687
1459.00,51.710
1460.00,51.714
1461.00,51.744
1462.00,51.748
1463.00,51.766
1464.00,51.778
1465.00,51.779
1466.00,51.802
1467.00,51.814
1468.00,51.837
1469.00,51.849
1470.00,51.842
1471.00,51.854
1472.00,51.879
1473.00,51.892
1474.00,51.918
1475.00,51.921
1476.00,51.923
1477.00,51.934
1478.00,51.958
1479.00,51.961
1480.00,51.979
1481.00,51.983
1482.00,52.009
1483.00,52.030
1484.00,52.036
1485.00,52.061
1486.00,52.050
1487.00,52.072
1488.00,52.087
1489.00,52.098
1490.00,52.088
1491.00,52.111
1492.00,52.124
1493.00,52.128
1494.00,52.146
1495.00,52.130
1496.00,52.148
1497.00,52.160
1498.00,52.151
1499.00,52.192
1500.00,52.204
1501.00, 
1502.00, 
1503.00, 
1504.00, 
1505.00, 
1506.00, 
1507.00, 
1508.00, 
1509.00, 
1510.00, 
1511.00, 
1512.00, 
1513.00, 
1514.00, 
1515.00, 
1516.00, 
1517.00, 
1518.00, 
1519.00, 
1520.00, 
1521.00, 
1522.00, 
1523.00, 
1524.00, 
1525.00, 
1526.00, 
1527.00, 
1528.00, 
1529.00, 
1530.00, 
1531.00, 
1532.00, 
1533.00, 
1534.00, 
1535.00, 
1536.00, 
1537.00, 
1538.00, 
1539.00, 
1540.00, 
1541.00, 
1542.00, 
1543.00, 
1544.00, 
1545.00, 
1546.00, 
1547.00, 
1548.00, 
1549.00, 
1550.00, 
1551.00, 
1552.00, 
1553.00, 
1554.00, 
1555.00, 
1556.00, 
1557.00, 
1558.00, 
1559.00, 
1560.00, 
1561.00, 
1562.00, 
1563.00, 
1564.00, 
1565.00, 
1566.00, 
1567.00, 
1568.00, 
1569.00, 
1570.00, 
1571.00, 
1572.00, 
1573.00, 
1574.00, 
1575.00, 
1576.00, 
1577.00, 
1578.00, 
1579.00, 
1580.00, 
1581.00, 
1582.00, 
1583.00, 
1584.00, 
1585.00, 
1586.00, 
1587.00, 
1588.00, 
1589.00, 
1590.00, 
1591.00, 
1592.00, 
1593.00, 
1594.00, 
1595.00, 
1596.00, 
1597.00, 
1598.00, 
1599.00, 
1600.00, 
1601.00, 
1602.00, 
1603.00, 
1604.00, 
1605.00, 
1606.00, 
1607.00, 
1608.00, 
1609.00, 
1610.00, 
1611.00, 
1612.00, 
1613.00, 
1614.00, 
1615.00, 
1616.00, 
1617.00, 
1618.00, 
1619.00, 
1620.00, 
1621.00, 
1622.00, 
1623.00, 
1624.00, 
1625.00, 
1626.00, 
1627.00, 
1628.00, 
1629.00, 
1630.00, 
1631.00, 
1632.00, 
1633.00, 
1634.00, 
1635.00, 
1636.00, 
1637.00, 
1638.00, 
1639.00, 
1640.00, 
1641.00, 
1642.00, 
1643.00, 
1644.00, 
1645.00, 
1646.00, 
1647.00, 
1648.00, 
1649.00, 
1650.00, 
1651.00, 
1652.00, 
1653.00, 
1654.00, 
1655.00, 
1656.00, 
1657.00, 
1658.00, 
1659.00, 
1660.00, 
1661.00, 
1662.00, 
1663.00, 
1664.00, 
1665.00, 
1666.00, 
1667.00, 
1668.00, 
1669.00, 
1670.00, 
1671.00, 
1672.00, 
1673.00, 
1674.00, 
1675.00, 
1676.00, 
1677.00, 
1678.00, 
1679.00, 
1680.00, 
1681.00, 
1682.00, 
1683.00, 
1684.00, 
1685.00, 
1686.00, 
1687.00, 
1688.00, 
1689.00, 
1690.00, 
1691.00, 
1692.00, 
1693.00, 
1694.00, 
1695.00, 
1696.00, 
1697.00, 
1698.00, 
1699.00, 
1700.00, 
1701.00, 
1702.00, 
1703.00, 
1704.00, 
1705.00, 
1706.00, 
1707.00, 
1708.00, 
1709.00, 
1710.00, 
1711.00, 
1712.00, 
1713.00, 
1714.00, 
1715.00, 
1716.00, 
1717.00, 
1718.00, 
1719.00, 
1720.00, 
1721.00, 
1722.00, 
1723.00, 
1724.00, 
1725.00, 
1726.00, 
1727.00, 
1728.00, 
1729.00, 
1730.00, 
1731.00, 
1732.00, 
1733.00, 
1734.00, 
1735.00, 
1736.00, 
1737.00, 
1738.00, 
1739.00, 
1740.00, 
1741.00, 
1742.00, 
1743.00, 
1744.00, 
1745.00, 
1746.00, 
1747.00, 
1748.00, 
1749.00, 
1750.00, 
1751.00, 
1752.00, 
1753.00, 
1754.00, 
1755.00, 
1756.00, 
1757.00, 
1758.00, 
1759.00, 
1760.00, 
1761.00, 
1762.00, 
1763.00, 
1764.00, 
1765.00, 
1766.00, 
1767.00, 
1768.00, 
1769.00, 
1770.00, 
1771.00, 
1772.00, 
1773.00, 
1774.00, 
1775.00, 
1776.00, 
1777.00, 
1778.00, 
1779.00, 
1780.00, 
1781.00, 
1782.00, 
1783.00, 
1784.00, 
1785.00, 
1786.00, 
1787.00, 
1788.00, 
1789.00, 
1790.00, 
1791.00, 
1792.00, 
1793.00, 
1794.00, 
1795.00, 
1796.00, 
1797.00, 
1798.00, 
1799.00, 
1800.00, 
1801.00, 
1802.00, 
1803.00, 
1804.00, 
1805.00, 
1806.00, 
1807.00, 
1808.00, 
1809.00, 
1810.00, 
1811.00, 
1812.00, 
1813.00, 
1814.00, 
1815.00, 
1816.00, 
1817.00, 
1818.00, 
1819.00, 
1820.00, 
1821.00, 
1822.00, 
1823.00, 
1824.00, 
1825.00, 
1826.00, 
1827.00, 
1828.00, 
1829.00, 
1830.00, 
1831.00, 
1832.00, 
1833.00, 
1834.00, 
1835.00, 
1836.00, 
1837.00, 
1838.00, 
1839.00, 
1840.00, 
1841.00, 
1842.00, 
1843.00, 
1844.00, 
1845.00, 
1846.00, 
1847.00, 
1848.00, 
1849.00, 
1850.00, 
1851.00, 
1852.00, 
1853.00, 
1854.00, 
1855.00, 
1856.00, 
1857.00, 
1858.00, 
1859.00, 
1860.00, 
1861.00, 
1862.00, 
1863.00, 
1864.00, 
1865.00, 
1866.00, 
1867.00, 
1868.00, 
1869.00, 
1870.00, 
1871.00, 
1872.00, 
1873.00, 
1874.00, 
1875.00, 
1876.00, 
1877.00, 
1878.00, 
1879.00, 
1880.00, 
1881.00, 
1882.00, 
1883.00, 
1884.00, 
1885.00, 
1886.00, 
1887.00, 
1888.00, 
1889.00, 
1890.00, 
1891.00, 
1892.00, 
1893.00, 
1894.00, 
1895.00, 
1896.00, 
1897.00, 
1898.00, 
1899.00, 
1900.00, 
1901.00, 
1902.00, 
1903.00, 
1904.00, 
1905.00, 
1906.00, 
1907.00, 
1908.00, 
1909.00, 
1910.00, 
1911.00, 
1912.00, 
1913.00, 
1914.00, 
1915.00, 
1916.00, 
1917.00, 
1918.00, 
1919.00, 
1920.00, 
1921.00, 
1922.00, 
1923.00, 
1924.00, 
1925.00, 
1926.00, 
1927.00, 
1928.00, 
1929.00, 
1930.00, 
1931.00, 
1932.00, 
1933.00, 
1934.00, 
1935.00, 
1936.00, 
1937.00, 
1938.00, 
1939.00, 
1940.00, 
1941.00, 
1942.00, 
1943.00, 
1944.00, 
1945.00, 
1946.00, 
1947.00, 
1948.00, 
1949.00, 
1950.00, 
1951.00, 
1952.00, 
1953.00, 
1954.00, 
1955.00, 
1956.00, 
1957.00, 
1958.00, 
1959.00, 
1960.00, 
1961.00, 
1962.00, 
1963.00, 
1964.00, 
1965.00, 
1966.00, 
1967.00, 
1968.00, 
1969.00, 
1970.00, 
1971.00, 
1972.00, 
1973.00, 
1974.00, 
1975.00, 
1976.00, 
1977.00, 
1978.00, 
1979.00, 
1980.00, 
1981.00, 
1982.00, 
1983.00, 
1984.00, 
1985.00, 
1986.00, 
1987.00, 
1988.00, 
1989.00, 
1990.00, 
1991.00, 
1992.00, 
1993.00, 
1994.00, 
1995.00, 
1996.00, 
1997.00, 
1998.00, 
1999.00, 
2000.00, 
2001.00, 
2002.00, 
2003.00, 
2004.00, 
2005.00, 
2006.00, 
2007.00, 
2008.00, 
2009.00, 
2010.00, 
2011.00, 
2012.00, 
2013.00, 
2014.00, 
2015.00, 
2016.00, 
2017.00, 
2018.00, 
2019.00, 
2020.00, 
2021.00, 
2022.00, 
2023.00, 
2024.00, 
2025.00, 
2026.00, 
2027.00, 
2028.00, 
2029.00, 
2030.00, 
2031.00, 
2032.00, 
2033.00, 
2034.00, 
2035.00, 
2036.00, 
2037.00, 
2038.00, 
2039.00, 
2040.00, 
2041.00, 
2042.00, 
2043.00, 
2044.00, 
2045.00, 
2046.00, 
2047.00, 
2048.00, 
2049.00, 
2050.00, 
2051.00, 
2052.00, 
2053.00, 
2054.00, 
2055.00, 
2056.00, 
2057.00, 
2058.00, 
2059.00, 
2060.00, 
2061.00, 
2062.00, 
2063.00, 
2064.00, 
2065.00, 
2066.00, 
2067.00, 
2068.00, 
2069.00, 
2070.00, 
2071.00, 
2072.00, 
2073.00, 
2074.00, 
2075.00, 
2076.00, 
2077.00, 
2078.00, 
2079.00, 
2080.00, 
2081.00, 
2082.00, 
2083.00, 
2084.00, 
2085.00, 
2086.00, 
2087.00, 
2088.00, 
2089.00, 
2090.00, 
2091.00, 
2092.00, 
2093.00, 
2094.00, 
2095.00, 
2096.00, 
2097.00, 
2098.00, 
2099.00, 
2100.00, 
2101.00, 
2102.00, 
2103.00, 
2104.00, 
2105.00, 
2106.00, 
2107.00, 
2108.00, 
2109.00, 
2110.00, 
2111.00, 
2112.00, 
2113.00, 
2114.00, 
2115.00, 
2116.00, 
2117.00, 
2118.00, 
2119.00, 
2120.00, 
2121.00, 
2122.00, 
2123.00, 
2124.00, 
2125.00, 
2126.00, 
2127.00, 
2128.00, 
2129.00, 
2130.00, 
2131.00, 
2132.00, 
2133.00, 
2134.00, 
2135.00, 
2136.00, 
2137.00, 
2138.00, 
2139.00, 
2140.00, 
2141.00, 
2142.00, 
2143.00, 
2144.00, 
2145.00, 
2146.00, 
2147.00, 
2148.00, 
2149.00, 
2150.00, 
2151.00, 
2152.00, 
2153.00, 
2154.00, 
2155.00, 
2156.00, 
2157.00, 
2158.00, 
2159.00, 
2160.00, 
2161.00, 
2162.00, 
2163.00, 
2164.00, 
2165.00, 
2166.00, 
2167.00, 
2168.00, 
2169.00, 
2170.00, 
2171.00, 
2172.00, 
2173.00, 
2174.00, 
2175.00, 
2176.00, 
2177.00, 
2178.00, 
2179.00, 
2180.00, 
2181.00, 
2182.00, 
2183.00, 
2184.00, 
2185.00, 
2186.00, 
2187.00, 
2188.00, 
2189.00, 
2190.00, 
2191.00, 
2192.00, 
2193.00, 
2194.00, 
2195.00, 
2196.00, 
2197.00, 
2198.00, 
2199.00, 
2200.00, 
2201.00, 
2202.00, 
2203.00, 
2204.00, 
2205.00, 
2206.00, 
2207.00, 
2208.00, 
2209.00, 
2210.00, 
2211.00, 
2212.00, 
2213.00, 
2214.00, 
2215.00, 
2216.00, 
2217.00, 
2218.00, 
2219.00, 
2220.00, 
2221.00, 
2222.00, 
2223.00, 
2224.00, 
2225.00, 
2226.00, 
2227.00, 
2228.00, 
2229.00, 
2230.00, 
2231.00, 
2232.00, 
2233.00, 
2234.00, 
2235.00, 
2236.00, 
2237.00, 
2238.00, 
2239.00, 
2240.00, 
2241.00, 
2242.00, 
2243.00, 
2244.00, 
2245.00, 
2246.00, 
2247.00, 
2248.00, 
2249.00, 
2250.00, 
2251.00, 
2252.00, 
2253.00, 
2254.00, 
2255.00, 
2256.00, 
2257.00, 
2258.00, 
2259.00, 
2260.00, 
2261.00, 
2262.00, 
2263.00, 
2264.00, 
2265.00, 
2266.00, 
2267.00, 
2268.00, 
2269.00, 
2270.00, 
2271.00, 
2272.00, 
2273.00, 
2274.00, 
2275.00, 
2276.00, 
2277.00, 
2278.00, 
2279.00, 
2280.00, 
2281.00, 
2282.00, 
2283.00, 
2284.00, 
2285.00, 
2286.00, 
2287.00, 
2288.00, 
2289.00, 
2290.00, 
2291.00, 
2292.00, 
2293.00, 
2294.00, 
2295.00, 
2296.00, 
2297.00, 
2298.00, 
2299.00, 
2300.00, 
2301.00, 
2302.00, 
2303.00, 
2304.00, 
2305.00, 
2306.00, 
2307.00, 
2308.00, 
2309.00, 
2310.00, 
2311.00, 
2312.00, 
2313.00, 
2314.00, 
2315.00, 
2316.00, 
2317.00, 
2318.00, 
2319.00, 
2320.00, 
2321.00, 
2322.00, 
2323.00, 
2324.00, 
2325.00, 
2326.00, 
2327.00, 
2328.00, 
2329.00, 
2330.00, 
2331.00, 
2332.00, 
2333.00, 
2334.00, 
2335.00, 
2336.00, 
2337.00, 
2338.00, 
2339.00, 
2340.00, 
2341.00, 
2342.00, 
2343.00, 
2344.00, 
2345.00, 
2346.00, 
2347.00, 
2348.00, 
2349.00, 
2350.00, 
2351.00, 
2352.00, 
2353.00, 
2354.00, 
2355.00, 
2356.00, 
2357.00, 
2358.00, 
2359.00, 
2360.00, 
2361.00, 
2362.00, 
2363.00, 
2364.00, 
2365.00, 
2366.00, 
2367.00, 
2368.00, 
2369.00, 
2370.00, 
2371.00, 
2372.00, 
2373.00, 
2374.00, 
2375.00, 
2376.00, 
2377.00, 
2378.00, 
2379.00, 
2380.00, 
2381.00, 
2382.00, 
2383.00, 
2384.00, 
2385.00, 
2386.00, 
2387.00, 
2388.00, 
2389.00, 
2390.00, 
2391.00, 
2392.00, 
2393.00, 
2394.00, 
2395.00, 
2396.00, 
2397.00, 
2398.00, 
2399.00, 
2400.00, 
2401.00, 
2402.00, 
2403.00, 
2404.00, 
2405.00, 
2406.00, 
2407.00, 
2408.00, 
2409.00, 
2410.00, 
2411.00, 
2412.00, 
2413.00, 
2414.00, 
2415.00, 
2416.00, 
2417.00, 
2418.00, 
2419.00, 
2420.00, 
2421.00, 
2422.00, 
2423.00, 
2424.00, 
2425.00, 
2426.00, 
2427.00, 
2428.00, 
2429.00, 
2430.00, 
2431.00, 
2432.00, 
2433.00, 
2434.00, 
2435.00, 
2436.00, 
2437.00, 
2438.00, 
2439.00, 
2440.00, 
2441.00, 
2442.00, 
2443.00, 
2444.00, 
2445.00, 
2446.00, 
2447.00, 
2448.00, 
2449.00, 
2450.00, 
2451.00, 
2452.00, 
2453.00, 
2454.00, 
2455.00, 
2456.00, 
2457.00, 
2458.00, 
2459.00, 
2460.00, 
2461.00, 
2462.00, 
2463.00, 
2464.00, 
2465.00, 
2466.00, 
2467.00, 
2468.00, 
2469.00, 
2470.00, 
2471.00, 
2472.00, 
2473.00, 
2474.00, 
2475.00, 
2476.00, 
2477.00, 
2478.00, 
2479.00, 
2480.00, 
2481.00, 
2482.00, 
2483.00, 
2484.00, 
2485.00, 
2486.00, 
2487.00, 
2488.00, 
2489.00, 
2490.00, 
2491.00, 
2492.00, 
2493.00, 
2494.00, 
2495.00, 
2496.00, 
2497.00, 
2498.00, 
2499.00, 
2500.00, 
2501.00, 
2502.00, 
2503.00, 
2504.00, 
2505.00, 
2506.00, 
2507.00, 
2508.00, 
2509.00, 
2510.00, 
2511.00, 
2512.00, 
2513.00, 
2514.00, 
2515.00, 
2516.00, 
2517.00, 
2518.00, 
2519.00, 
2520.00, 
2521.00, 
2522.00, 
2523.00, 
2524.00, 
2525.00, 
2526.00, 
2527.00, 
2528.00, 
2529.00, 
2530.00, 
2531.00, 
2532.00, 
2533.00, 
2534.00, 
2535.00, 
2536.00, 
2537.00, 
2538.00, 
2539.00, 
2540.00, 
2541.00, 
2542.00, 
2543.00, 
2544.00, 
2545.00, 
2546.00, 
2547.00, 
2548.00, 
2549.00, 
2550.00, 
2551.00, 
2552.00, 
2553.00, 
2554.00, 
2555.00, 
2556.00, 
2557.00, 
2558.00, 
2559.00, 
2560.00, 
2561.00, 
2562.00, 
2563.00, 
2564.00, 
2565.00, 
2566.00, 
2567.00, 
2568.00, 
2569.00, 
2570.00, 
2571.00, 
2572.00, 
2573.00, 
2574.00, 
2575.00, 
2576.00, 
2577.00, 
2578.00, 
2579.00, 
2580.00, 
2581.00, 
2582.00, 
2583.00, 
2584.00, 
2585.00, 
2586.00, 
2587.00, 
2588.00, 
2589.00, 
2590.00, 
2591.00, 
2592.00, 
2593.00, 
2594.00, 
2595.00, 
2596.00, 
2597.00, 
2598.00, 
2599.00, 
2600.00, 
