"2cP4 - RawData"
"Wavelength nm.","T%"
200.00,-0.001
201.00,0.004
202.00,0.000
203.00,-0.004
204.00,-0.000
205.00,0.004
206.00,0.002
207.00,0.002
208.00,0.002
209.00,-0.001
210.00,0.002
211.00,0.002
212.00,0.001
213.00,0.002
214.00,0.003
215.00,0.001
216.00,0.002
217.00,0.001
218.00,-0.001
219.00,-0.000
220.00,0.001
221.00,-0.000
222.00,0.002
223.00,-0.000
224.00,0.000
225.00,0.002
226.00,0.001
227.00,0.001
228.00,0.001
229.00,-0.000
230.00,0.000
231.00,0.003
232.00,0.000
233.00,-0.002
234.00,0.003
235.00,0.000
236.00,0.000
237.00,-0.000
238.00,0.000
239.00,-0.000
240.00,-0.001
241.00,0.002
242.00,0.002
243.00,0.001
244.00,0.000
245.00,-0.002
246.00,0.000
247.00,0.001
248.00,0.001
249.00,0.000
250.00,0.000
251.00,0.000
252.00,-0.001
253.00,0.002
254.00,0.001
255.00,0.001
256.00,0.001
257.00,-0.000
258.00,0.001
259.00,-0.000
260.00,-0.001
261.00,0.001
262.00,0.001
263.00,0.001
264.00,-0.000
265.00,-0.001
266.00,0.000
267.00,0.001
268.00,-0.001
269.00,-0.000
270.00,-0.000
271.00,0.000
272.00,0.001
273.00,0.000
274.00,-0.000
275.00,-0.001
276.00,0.001
277.00,0.002
278.00,0.001
279.00,0.001
280.00,0.000
281.00,-0.001
282.00,-0.000
283.00,0.001
284.00,0.001
285.00,0.001
286.00,0.001
287.00,-0.000
288.00,-0.001
289.00,0.000
290.00,0.002
291.00,-0.002
292.00,-0.002
293.00,-0.001
294.00,-0.001
295.00,-0.001
296.00,-0.001
297.00,0.000
298.00,0.001
299.00,0.002
300.00,0.001
301.00,0.003
302.00,0.004
303.00,0.009
304.00,0.014
305.00,0.018
306.00,0.029
307.00,0.042
308.00,0.065
309.00,0.104
310.00,0.148
311.00,0.199
312.00,0.273
313.00,0.368
314.00,0.469
315.00,0.622
316.00,0.801
317.00,1.023
318.00,1.248
319.00,1.535
320.00,1.876
321.00,2.240
322.00,2.651
323.00,3.123
324.00,3.629
325.00,4.134
326.00,4.647
327.00,5.244
328.00,5.854
329.00,6.501
330.00,7.159
331.00,7.807
332.00,8.466
333.00,9.208
334.00,9.846
335.00,10.530
336.00,11.224
337.00,11.945
338.00,12.637
339.00,13.249
340.00,13.873
341.00,14.425
342.00,15.099
343.00,15.672
344.00,16.290
345.00,16.776
346.00,17.247
347.00,17.715
348.00,18.181
349.00,18.582
350.00,18.991
351.00,19.353
352.00,19.657
353.00,19.984
354.00,20.299
355.00,20.599
356.00,20.855
357.00,21.130
358.00,21.339
359.00,21.577
360.00,21.800
361.00,21.981
362.00,22.128
363.00,22.326
364.00,22.412
365.00,22.511
366.00,22.641
367.00,22.759
368.00,22.849
369.00,22.863
370.00,22.949
371.00,22.941
372.00,22.971
373.00,23.007
374.00,22.997
375.00,22.978
376.00,22.951
377.00,22.908
378.00,22.840
379.00,22.830
380.00,22.796
381.00,22.802
382.00,22.806
383.00,22.816
384.00,22.888
385.00,22.921
386.00,22.960
387.00,23.007
388.00,23.070
389.00,23.064
390.00,23.118
391.00,23.144
392.00,23.149
393.00,23.190
394.00,23.209
395.00,23.237
396.00,23.196
397.00,23.235
398.00,23.269
399.00,23.257
400.00,23.277
401.00,23.285
402.00,23.325
403.00,23.319
404.00,23.348
405.00,23.351
406.00,23.259
407.00,23.228
408.00,23.280
409.00,23.228
410.00,23.188
411.00,23.168
412.00,23.155
413.00,23.194
414.00,23.212
415.00,23.200
416.00,23.256
417.00,23.199
418.00,23.253
419.00,23.319
420.00,23.383
421.00,23.431
422.00,23.451
423.00,23.520
424.00,23.521
425.00,23.566
426.00,23.602
427.00,23.683
428.00,23.718
429.00,23.763
430.00,23.790
431.00,23.853
432.00,23.957
433.00,23.968
434.00,24.014
435.00,24.085
436.00,24.120
437.00,24.245
438.00,24.349
439.00,24.408
440.00,24.492
441.00,24.555
442.00,24.630
443.00,24.728
444.00,24.845
445.00,24.952
446.00,25.022
447.00,25.103
448.00,25.230
449.00,25.324
450.00,25.389
451.00,25.508
452.00,25.624
453.00,25.742
454.00,25.830
455.00,25.961
456.00,26.088
457.00,26.203
458.00,26.276
459.00,26.433
460.00,26.582
461.00,26.701
462.00,26.781
463.00,26.925
464.00,27.086
465.00,27.206
466.00,27.362
467.00,27.495
468.00,27.602
469.00,27.663
470.00,27.754
471.00,27.903
472.00,28.012
473.00,28.101
474.00,28.238
475.00,28.347
476.00,28.451
477.00,28.567
478.00,28.739
479.00,28.853
480.00,28.990
481.00,29.102
482.00,29.294
483.00,29.429
484.00,29.597
485.00,29.756
486.00,29.885
487.00,30.016
488.00,30.186
489.00,30.320
490.00,30.492
491.00,30.574
492.00,30.756
493.00,30.912
494.00,31.056
495.00,31.138
496.00,31.232
497.00,31.332
498.00,31.474
499.00,31.629
500.00,31.781
501.00,31.895
502.00,32.022
503.00,32.130
504.00,32.207
505.00,32.338
506.00,32.472
507.00,32.583
508.00,32.703
509.00,32.839
510.00,32.955
511.00,33.070
512.00,33.266
513.00,33.435
514.00,33.421
515.00,33.574
516.00,33.665
517.00,33.751
518.00,33.910
519.00,33.923
520.00,33.935
521.00,34.064
522.00,34.182
523.00,34.216
524.00,34.304
525.00,34.415
526.00,34.549
527.00,34.562
528.00,34.658
529.00,34.822
530.00,34.941
531.00,35.088
532.00,35.162
533.00,35.300
534.00,35.339
535.00,35.428
536.00,35.509
537.00,35.572
538.00,35.634
539.00,35.675
540.00,35.763
541.00,35.833
542.00,35.890
543.00,35.903
544.00,36.028
545.00,36.064
546.00,36.101
547.00,36.255
548.00,36.355
549.00,36.356
550.00,36.469
551.00,36.546
552.00,36.599
553.00,36.647
554.00,36.732
555.00,36.701
556.00,36.767
557.00,36.914
558.00,36.947
559.00,36.992
560.00,37.012
561.00,37.101
562.00,37.171
563.00,37.180
564.00,37.277
565.00,37.270
566.00,37.286
567.00,37.349
568.00,37.399
569.00,37.468
570.00,37.453
571.00,37.516
572.00,37.522
573.00,37.498
574.00,37.573
575.00,37.610
576.00,37.621
577.00,37.670
578.00,37.829
579.00,37.820
580.00,37.781
581.00,38.069
582.00,38.076
583.00,38.132
584.00,38.214
585.00,38.263
586.00,38.287
587.00,38.378
588.00,38.395
589.00,38.385
590.00,38.520
591.00,38.595
592.00,38.469
593.00,38.547
594.00,38.636
595.00,38.718
596.00,38.785
597.00,38.816
598.00,38.964
599.00,38.949
600.00,38.977
601.00,39.020
602.00,38.960
603.00,39.010
604.00,39.099
605.00,39.127
606.00,39.198
607.00,39.186
608.00,39.216
609.00,39.350
610.00,39.493
611.00,39.363
612.00,39.404
613.00,39.438
614.00,39.528
615.00,39.586
616.00,39.664
617.00,39.662
618.00,39.634
619.00,39.737
620.00,39.819
621.00,39.846
622.00,39.858
623.00,40.086
624.00,40.154
625.00,40.185
626.00,40.227
627.00,40.318
628.00,40.315
629.00,40.388
630.00,40.374
631.00,40.417
632.00,40.570
633.00,40.639
634.00,40.781
635.00,40.826
636.00,40.865
637.00,40.920
638.00,40.940
639.00,41.093
640.00,41.115
641.00,41.191
642.00,41.251
643.00,41.243
644.00,41.438
645.00,41.516
646.00,41.553
647.00,41.612
648.00,41.730
649.00,41.714
650.00,41.724
651.00,41.978
652.00,42.093
653.00,42.084
654.00,42.112
655.00,42.339
656.00,42.595
657.00,42.468
658.00,42.455
659.00,42.699
660.00,42.676
661.00,42.655
662.00,42.775
663.00,42.930
664.00,43.165
665.00,43.301
666.00,43.252
667.00,43.310
668.00,43.339
669.00,43.459
670.00,43.756
671.00,43.668
672.00,43.823
673.00,43.867
674.00,43.977
675.00,44.025
676.00,44.189
677.00,44.337
678.00,44.207
679.00,44.389
680.00,44.490
681.00,44.729
682.00,44.711
683.00,44.598
684.00,44.779
685.00,44.953
686.00,44.921
687.00,45.011
688.00,45.123
689.00,45.088
690.00,45.250
691.00,45.578
692.00,45.283
693.00,45.232
694.00,45.655
695.00,45.959
696.00,45.832
697.00,45.792
698.00,45.903
699.00,46.093
700.00,46.188
701.00,46.139
702.00,46.204
703.00,46.475
704.00,46.442
705.00,46.389
706.00,46.502
707.00,46.635
708.00,46.498
709.00,46.911
710.00,47.246
711.00,46.771
712.00,46.933
713.00,47.039
714.00,47.060
715.00,47.169
716.00,47.167
717.00,47.298
718.00,47.557
719.00,47.416
720.00,47.520
721.00,52.061
722.00,52.045
723.00,52.057
724.00,52.118
725.00,52.108
726.00,52.080
727.00,52.148
728.00,52.168
729.00,52.172
730.00,52.183
731.00,52.286
732.00,52.283
733.00,52.277
734.00,52.367
735.00,52.404
736.00,52.387
737.00,52.356
738.00,52.496
739.00,52.508
740.00,52.450
741.00,52.574
742.00,52.568
743.00,52.578
744.00,52.604
745.00,52.569
746.00,52.572
747.00,52.571
748.00,52.556
749.00,52.560
750.00,52.612
751.00,52.555
752.00,52.579
753.00,52.656
754.00,52.669
755.00,52.630
756.00,52.567
757.00,52.640
758.00,52.622
759.00,52.626
760.00,52.668
761.00,52.743
762.00,52.648
763.00,52.741
764.00,52.746
765.00,52.740
766.00,52.730
767.00,52.762
768.00,52.760
769.00,52.709
770.00,52.784
771.00,52.787
772.00,52.753
773.00,52.785
774.00,52.788
775.00,52.881
776.00,52.890
777.00,52.853
778.00,52.891
779.00,52.815
780.00,52.790
781.00,52.819
782.00,52.839
783.00,52.791
784.00,52.772
785.00,52.786
786.00,52.910
787.00,52.801
788.00,52.851
789.00,52.764
790.00,52.715
791.00,52.783
792.00,52.751
793.00,52.704
794.00,52.744
795.00,52.813
796.00,52.719
797.00,52.638
798.00,52.726
799.00,52.673
800.00,52.704
801.00,52.668
802.00,52.614
803.00,52.656
804.00,52.569
805.00,52.501
806.00,52.578
807.00,52.556
808.00,52.558
809.00,52.529
810.00,52.570
811.00,52.490
812.00,52.510
813.00,52.485
814.00,52.420
815.00,52.472
816.00,52.486
817.00,52.502
818.00,52.415
819.00,52.407
820.00,52.385
821.00,52.440
822.00,52.385
823.00,52.299
824.00,52.349
825.00,52.365
826.00,52.228
827.00,52.227
828.00,52.263
829.00,52.219
830.00,52.204
831.00,54.404
832.00,54.376
833.00,54.336
834.00,54.380
835.00,54.314
836.00,54.304
837.00,54.400
838.00,54.303
839.00,54.316
840.00,54.265
841.00,54.223
842.00,54.139
843.00,54.235
844.00,54.194
845.00,54.128
846.00,54.102
847.00,54.097
848.00,54.086
849.00,54.071
850.00,54.030
851.00,54.018
852.00,53.968
853.00,53.866
854.00,53.953
855.00,53.866
856.00,53.823
857.00,53.854
858.00,53.791
859.00,53.751
860.00,53.758
861.00,53.747
862.00,53.696
863.00,53.724
864.00,53.679
865.00,53.704
866.00,53.667
867.00,53.696
868.00,53.633
869.00,53.684
870.00,53.611
871.00,53.638
872.00,53.599
873.00,53.589
874.00,53.594
875.00,53.535
876.00,53.546
877.00,53.541
878.00,53.514
879.00,53.510
880.00,53.494
881.00,53.508
882.00,53.488
883.00,53.461
884.00,53.427
885.00,53.409
886.00,53.390
887.00,53.380
888.00,53.405
889.00,53.181
890.00,53.308
891.00,53.286
892.00,53.291
893.00,53.262
894.00,53.287
895.00,53.235
896.00,53.226
897.00,53.204
898.00,53.156
899.00,53.158
900.00,53.152
901.00,53.157
902.00,53.152
903.00,53.097
904.00,53.101
905.00,53.090
906.00,53.063
907.00,53.049
908.00,53.009
909.00,52.968
910.00,52.956
911.00,52.949
912.00,52.967
913.00,52.880
914.00,52.881
915.00,52.859
916.00,52.850
917.00,52.819
918.00,52.782
919.00,52.770
920.00,52.777
921.00,52.749
922.00,52.724
923.00,52.685
924.00,52.718
925.00,52.677
926.00,52.650
927.00,52.640
928.00,52.614
929.00,52.615
930.00,52.583
931.00,52.595
932.00,52.516
933.00,52.553
934.00,52.499
935.00,52.512
936.00,52.478
937.00,52.446
938.00,52.444
939.00,52.446
940.00,52.412
941.00,52.398
942.00,52.415
943.00,52.374
944.00,52.331
945.00,52.337
946.00,52.298
947.00,52.282
948.00,52.259
949.00,52.249
950.00,52.221
951.00,52.196
952.00,52.183
953.00,52.138
954.00,52.117
955.00,52.083
956.00,52.077
957.00,52.032
958.00,52.048
959.00,52.000
960.00,51.976
961.00,51.966
962.00,51.977
963.00,51.935
964.00,51.945
965.00,51.911
966.00,51.918
967.00,51.903
968.00,51.886
969.00,51.904
970.00,51.870
971.00,51.892
972.00,51.855
973.00,51.883
974.00,51.899
975.00,51.891
976.00,51.883
977.00,51.781
978.00,51.909
979.00,51.863
980.00,51.899
981.00,51.864
982.00,51.873
983.00,51.854
984.00,51.824
985.00,51.843
986.00,51.884
987.00,51.833
988.00,51.809
989.00,51.793
990.00,51.778
991.00,51.774
992.00,51.772
993.00,51.754
994.00,51.748
995.00,51.740
996.00,51.750
997.00,51.712
998.00,51.716
999.00,51.704
1000.00,51.641
1001.00,51.662
1002.00,51.655
1003.00,51.639
1004.00,51.613
1005.00,51.599
1006.00,51.629
1007.00,51.604
1008.00,51.600
1009.00,51.569
1010.00,51.566
1011.00,51.549
1012.00,51.518
1013.00,51.530
1014.00,51.483
1015.00,51.499
1016.00,51.464
1017.00,51.453
1018.00,51.440
1019.00,51.415
1020.00,51.412
1021.00,51.393
1022.00,51.375
1023.00,51.332
1024.00,51.347
1025.00,51.311
1026.00,51.298
1027.00,51.274
1028.00,51.268
1029.00,51.271
1030.00,51.249
1031.00,51.240
1032.00,51.198
1033.00,51.203
1034.00,51.187
1035.00,51.145
1036.00,51.106
1037.00,51.089
1038.00,51.095
1039.00,51.043
1040.00,51.064
1041.00,51.043
1042.00,51.013
1043.00,51.000
1044.00,51.020
1045.00,51.003
1046.00,50.983
1047.00,51.002
1048.00,51.014
1049.00,51.033
1050.00,51.016
1051.00,51.052
1052.00,51.074
1053.00,51.077
1054.00,51.079
1055.00,51.109
1056.00,51.085
1057.00,51.116
1058.00,51.085
1059.00,51.097
1060.00,51.093
1061.00,51.063
1062.00,51.093
1063.00,51.076
1064.00,51.058
1065.00,51.041
1066.00,51.036
1067.00,51.025
1068.00,51.046
1069.00,51.006
1070.00,50.981
1071.00,50.980
1072.00,50.986
1073.00,50.968
1074.00,50.961
1075.00,50.937
1076.00,50.943
1077.00,50.920
1078.00,50.909
1079.00,50.912
1080.00,50.909
1081.00,50.899
1082.00,50.890
1083.00,50.873
1084.00,50.879
1085.00,50.862
1086.00,50.864
1087.00,50.857
1088.00,50.831
1089.00,50.817
1090.00,50.823
1091.00,50.806
1092.00,50.805
1093.00,50.781
1094.00,50.753
1095.00,50.752
1096.00,50.744
1097.00,50.734
1098.00,50.730
1099.00,50.723
1100.00,50.720
1101.00,50.709
1102.00,50.689
1103.00,50.689
1104.00,50.686
1105.00,50.666
1106.00,50.666
1107.00,50.672
1108.00,50.673
1109.00,50.643
1110.00,50.638
1111.00,50.629
1112.00,50.629
1113.00,50.610
1114.00,50.602
1115.00,50.605
1116.00,50.598
1117.00,50.578
1118.00,50.570
1119.00,50.559
1120.00,50.569
1121.00,50.553
1122.00,50.519
1123.00,50.528
1124.00,50.493
1125.00,50.500
1126.00,50.499
1127.00,50.493
1128.00,50.493
1129.00,50.477
1130.00,50.474
1131.00,50.467
1132.00,50.448
1133.00,50.444
1134.00,50.449
1135.00,50.438
1136.00,50.442
1137.00,50.449
1138.00,50.434
1139.00,50.450
1140.00,50.433
1141.00,50.422
1142.00,50.415
1143.00,50.417
1144.00,50.380
1145.00,50.390
1146.00,50.396
1147.00,50.373
1148.00,50.372
1149.00,50.380
1150.00,50.388
1151.00,50.386
1152.00,50.363
1153.00,50.379
1154.00,50.340
1155.00,50.337
1156.00,50.345
1157.00,50.349
1158.00,50.352
1159.00,50.344
1160.00,50.328
1161.00,50.335
1162.00,50.337
1163.00,50.334
1164.00,50.325
1165.00,50.321
1166.00,50.316
1167.00,50.320
1168.00,50.331
1169.00,50.321
1170.00,50.337
1171.00,50.304
1172.00,50.314
1173.00,50.303
1174.00,50.299
1175.00,50.303
1176.00,50.299
1177.00,50.285
1178.00,50.290
1179.00,50.297
1180.00,50.277
1181.00,50.301
1182.00,50.288
1183.00,50.276
1184.00,50.277
1185.00,50.282
1186.00,50.274
1187.00,50.270
1188.00,50.254
1189.00,50.276
1190.00,50.261
1191.00,50.261
1192.00,50.284
1193.00,50.258
1194.00,50.269
1195.00,50.247
1196.00,50.270
1197.00,50.265
1198.00,50.241
1199.00,50.234
1200.00,50.253
1201.00,50.253
1202.00,50.241
1203.00,50.257
1204.00,50.225
1205.00,50.252
1206.00,50.255
1207.00,50.242
1208.00,50.225
1209.00,50.230
1210.00,50.238
1211.00,50.238
1212.00,50.247
1213.00,50.215
1214.00,50.266
1215.00,50.240
1216.00,50.224
1217.00,50.237
1218.00,50.208
1219.00,50.237
1220.00,50.212
1221.00,50.212
1222.00,50.216
1223.00,50.226
1224.00,50.221
1225.00,50.218
1226.00,50.213
1227.00,50.229
1228.00,50.232
1229.00,50.212
1230.00,50.264
1231.00,50.248
1232.00,50.255
1233.00,50.275
1234.00,50.259
1235.00,50.257
1236.00,50.268
1237.00,50.260
1238.00,50.269
1239.00,50.267
1240.00,50.250
1241.00,50.265
1242.00,50.266
1243.00,50.292
1244.00,50.279
1245.00,50.288
1246.00,50.298
1247.00,50.300
1248.00,50.289
1249.00,50.295
1250.00,50.308
1251.00,50.275
1252.00,50.295
1253.00,50.269
1254.00,50.299
1255.00,50.297
1256.00,50.257
1257.00,50.275
1258.00,50.325
1259.00,50.308
1260.00,50.340
1261.00,50.357
1262.00,50.318
1263.00,50.317
1264.00,50.318
1265.00,50.311
1266.00,50.317
1267.00,50.310
1268.00,50.331
1269.00,50.327
1270.00,50.321
1271.00,50.333
1272.00,50.332
1273.00,50.343
1274.00,50.339
1275.00,50.357
1276.00,50.368
1277.00,50.357
1278.00,50.366
1279.00,50.357
1280.00,50.374
1281.00,50.369
1282.00,50.391
1283.00,50.387
1284.00,50.378
1285.00,50.385
1286.00,50.382
1287.00,50.396
1288.00,50.453
1289.00,50.425
1290.00,50.435
1291.00,50.424
1292.00,50.416
1293.00,50.415
1294.00,50.438
1295.00,50.446
1296.00,50.450
1297.00,50.463
1298.00,50.467
1299.00,50.455
1300.00,50.465
1301.00,50.463
1302.00,50.466
1303.00,50.460
1304.00,50.469
1305.00,50.514
1306.00,50.498
1307.00,50.512
1308.00,50.511
1309.00,50.515
1310.00,50.541
1311.00,50.526
1312.00,50.535
1313.00,50.551
1314.00,50.561
1315.00,50.574
1316.00,50.569
1317.00,50.588
1318.00,50.582
1319.00,50.576
1320.00,50.596
1321.00,50.728
1322.00,50.718
1323.00,50.701
1324.00,50.696
1325.00,50.678
1326.00,50.709
1327.00,50.714
1328.00,50.696
1329.00,50.715
1330.00,50.702
1331.00,50.752
1332.00,50.748
1333.00,50.688
1334.00,50.740
1335.00,50.753
1336.00,50.745
1337.00,50.791
1338.00,50.863
1339.00,50.911
1340.00,50.965
1341.00,51.021
1342.00,51.107
1343.00,51.136
1344.00,51.170
1345.00,51.253
1346.00,51.293
1347.00,51.278
1348.00,51.313
1349.00,51.352
1350.00,51.357
1351.00,51.386
1352.00,51.378
1353.00,51.481
1354.00,51.386
1355.00,51.334
1356.00,51.430
1357.00,51.406
1358.00,51.451
1359.00,51.491
1360.00,51.443
1361.00,51.302
1362.00,51.382
1363.00,51.470
1364.00,51.454
1365.00,51.478
1366.00,51.682
1367.00,51.378
1368.00,51.444
1369.00,51.420
1370.00,51.435
1371.00,51.365
1372.00,51.394
1373.00,51.402
1374.00,51.410
1375.00,51.407
1376.00,51.391
1377.00,51.389
1378.00,51.393
1379.00,51.458
1380.00,51.422
1381.00,51.570
1382.00,51.367
1383.00,51.402
1384.00,51.387
1385.00,51.333
1386.00,51.421
1387.00,51.357
1388.00,51.322
1389.00,51.305
1390.00,51.443
1391.00,51.312
1392.00,51.367
1393.00,51.423
1394.00,51.399
1395.00,51.335
1396.00,51.319
1397.00,51.331
1398.00,51.449
1399.00,51.451
1400.00,51.359
1401.00,51.339
1402.00,51.451
1403.00,51.401
1404.00,51.388
1405.00,51.415
1406.00,51.431
1407.00,51.446
1408.00,51.477
1409.00,51.439
1410.00,51.456
1411.00,51.420
1412.00,51.460
1413.00,51.453
1414.00,51.489
1415.00,51.482
1416.00,51.468
1417.00,51.501
1418.00,51.518
1419.00,51.532
1420.00,51.524
1421.00,51.557
1422.00,51.569
1423.00,51.583
1424.00,51.585
1425.00,51.595
1426.00,51.620
1427.00,51.663
1428.00,51.636
1429.00,51.628
1430.00,51.649
1431.00,51.674
1432.00,51.680
1433.00,51.693
1434.00,51.687
1435.00,51.719
1436.00,51.743
1437.00,51.727
1438.00,51.754
1439.00,51.783
1440.00,51.802
1441.00,51.819
1442.00,51.841
1443.00,51.806
1444.00,51.874
1445.00,51.900
1446.00,51.885
1447.00,51.902
1448.00,51.903
1449.00,51.903
1450.00,51.900
1451.00,51.944
1452.00,51.965
1453.00,51.949
1454.00,51.975
1455.00,52.011
1456.00,52.022
1457.00,52.011
1458.00,52.035
1459.00,52.066
1460.00,52.078
1461.00,52.081
1462.00,52.121
1463.00,52.124
1464.00,52.125
1465.00,52.134
1466.00,52.154
1467.00,52.150
1468.00,52.201
1469.00,52.200
1470.00,52.211
1471.00,52.228
1472.00,52.261
1473.00,52.277
1474.00,52.283
1475.00,52.286
1476.00,52.294
1477.00,52.286
1478.00,52.304
1479.00,52.320
1480.00,52.330
1481.00,52.330
1482.00,52.350
1483.00,52.372
1484.00,52.391
1485.00,52.412
1486.00,52.402
1487.00,52.423
1488.00,52.429
1489.00,52.437
1490.00,52.442
1491.00,52.447
1492.00,52.476
1493.00,52.461
1494.00,52.494
1495.00,52.494
1496.00,52.524
1497.00,52.510
1498.00,52.510
1499.00,52.555
1500.00,52.570
1501.00, 
1502.00, 
1503.00, 
1504.00, 
1505.00, 
1506.00, 
1507.00, 
1508.00, 
1509.00, 
1510.00, 
1511.00, 
1512.00, 
1513.00, 
1514.00, 
1515.00, 
1516.00, 
1517.00, 
1518.00, 
1519.00, 
1520.00, 
1521.00, 
1522.00, 
1523.00, 
1524.00, 
1525.00, 
1526.00, 
1527.00, 
1528.00, 
1529.00, 
1530.00, 
1531.00, 
1532.00, 
1533.00, 
1534.00, 
1535.00, 
1536.00, 
1537.00, 
1538.00, 
1539.00, 
1540.00, 
1541.00, 
1542.00, 
1543.00, 
1544.00, 
1545.00, 
1546.00, 
1547.00, 
1548.00, 
1549.00, 
1550.00, 
1551.00, 
1552.00, 
1553.00, 
1554.00, 
1555.00, 
1556.00, 
1557.00, 
1558.00, 
1559.00, 
1560.00, 
1561.00, 
1562.00, 
1563.00, 
1564.00, 
1565.00, 
1566.00, 
1567.00, 
1568.00, 
1569.00, 
1570.00, 
1571.00, 
1572.00, 
1573.00, 
1574.00, 
1575.00, 
1576.00, 
1577.00, 
1578.00, 
1579.00, 
1580.00, 
1581.00, 
1582.00, 
1583.00, 
1584.00, 
1585.00, 
1586.00, 
1587.00, 
1588.00, 
1589.00, 
1590.00, 
1591.00, 
1592.00, 
1593.00, 
1594.00, 
1595.00, 
1596.00, 
1597.00, 
1598.00, 
1599.00, 
1600.00, 
1601.00, 
1602.00, 
1603.00, 
1604.00, 
1605.00, 
1606.00, 
1607.00, 
1608.00, 
1609.00, 
1610.00, 
1611.00, 
1612.00, 
1613.00, 
1614.00, 
1615.00, 
1616.00, 
1617.00, 
1618.00, 
1619.00, 
1620.00, 
1621.00, 
1622.00, 
1623.00, 
1624.00, 
1625.00, 
1626.00, 
1627.00, 
1628.00, 
1629.00, 
1630.00, 
1631.00, 
1632.00, 
1633.00, 
1634.00, 
1635.00, 
1636.00, 
1637.00, 
1638.00, 
1639.00, 
1640.00, 
1641.00, 
1642.00, 
1643.00, 
1644.00, 
1645.00, 
1646.00, 
1647.00, 
1648.00, 
1649.00, 
1650.00, 
1651.00, 
1652.00, 
1653.00, 
1654.00, 
1655.00, 
1656.00, 
1657.00, 
1658.00, 
1659.00, 
1660.00, 
1661.00, 
1662.00, 
1663.00, 
1664.00, 
1665.00, 
1666.00, 
1667.00, 
1668.00, 
1669.00, 
1670.00, 
1671.00, 
1672.00, 
1673.00, 
1674.00, 
1675.00, 
1676.00, 
1677.00, 
1678.00, 
1679.00, 
1680.00, 
1681.00, 
1682.00, 
1683.00, 
1684.00, 
1685.00, 
1686.00, 
1687.00, 
1688.00, 
1689.00, 
1690.00, 
1691.00, 
1692.00, 
1693.00, 
1694.00, 
1695.00, 
1696.00, 
1697.00, 
1698.00, 
1699.00, 
1700.00, 
1701.00, 
1702.00, 
1703.00, 
1704.00, 
1705.00, 
1706.00, 
1707.00, 
1708.00, 
1709.00, 
1710.00, 
1711.00, 
1712.00, 
1713.00, 
1714.00, 
1715.00, 
1716.00, 
1717.00, 
1718.00, 
1719.00, 
1720.00, 
1721.00, 
1722.00, 
1723.00, 
1724.00, 
1725.00, 
1726.00, 
1727.00, 
1728.00, 
1729.00, 
1730.00, 
1731.00, 
1732.00, 
1733.00, 
1734.00, 
1735.00, 
1736.00, 
1737.00, 
1738.00, 
1739.00, 
1740.00, 
1741.00, 
1742.00, 
1743.00, 
1744.00, 
1745.00, 
1746.00, 
1747.00, 
1748.00, 
1749.00, 
1750.00, 
1751.00, 
1752.00, 
1753.00, 
1754.00, 
1755.00, 
1756.00, 
1757.00, 
1758.00, 
1759.00, 
1760.00, 
1761.00, 
1762.00, 
1763.00, 
1764.00, 
1765.00, 
1766.00, 
1767.00, 
1768.00, 
1769.00, 
1770.00, 
1771.00, 
1772.00, 
1773.00, 
1774.00, 
1775.00, 
1776.00, 
1777.00, 
1778.00, 
1779.00, 
1780.00, 
1781.00, 
1782.00, 
1783.00, 
1784.00, 
1785.00, 
1786.00, 
1787.00, 
1788.00, 
1789.00, 
1790.00, 
1791.00, 
1792.00, 
1793.00, 
1794.00, 
1795.00, 
1796.00, 
1797.00, 
1798.00, 
1799.00, 
1800.00, 
1801.00, 
1802.00, 
1803.00, 
1804.00, 
1805.00, 
1806.00, 
1807.00, 
1808.00, 
1809.00, 
1810.00, 
1811.00, 
1812.00, 
1813.00, 
1814.00, 
1815.00, 
1816.00, 
1817.00, 
1818.00, 
1819.00, 
1820.00, 
1821.00, 
1822.00, 
1823.00, 
1824.00, 
1825.00, 
1826.00, 
1827.00, 
1828.00, 
1829.00, 
1830.00, 
1831.00, 
1832.00, 
1833.00, 
1834.00, 
1835.00, 
1836.00, 
1837.00, 
1838.00, 
1839.00, 
1840.00, 
1841.00, 
1842.00, 
1843.00, 
1844.00, 
1845.00, 
1846.00, 
1847.00, 
1848.00, 
1849.00, 
1850.00, 
1851.00, 
1852.00, 
1853.00, 
1854.00, 
1855.00, 
1856.00, 
1857.00, 
1858.00, 
1859.00, 
1860.00, 
1861.00, 
1862.00, 
1863.00, 
1864.00, 
1865.00, 
1866.00, 
1867.00, 
1868.00, 
1869.00, 
1870.00, 
1871.00, 
1872.00, 
1873.00, 
1874.00, 
1875.00, 
1876.00, 
1877.00, 
1878.00, 
1879.00, 
1880.00, 
1881.00, 
1882.00, 
1883.00, 
1884.00, 
1885.00, 
1886.00, 
1887.00, 
1888.00, 
1889.00, 
1890.00, 
1891.00, 
1892.00, 
1893.00, 
1894.00, 
1895.00, 
1896.00, 
1897.00, 
1898.00, 
1899.00, 
1900.00, 
1901.00, 
1902.00, 
1903.00, 
1904.00, 
1905.00, 
1906.00, 
1907.00, 
1908.00, 
1909.00, 
1910.00, 
1911.00, 
1912.00, 
1913.00, 
1914.00, 
1915.00, 
1916.00, 
1917.00, 
1918.00, 
1919.00, 
1920.00, 
1921.00, 
1922.00, 
1923.00, 
1924.00, 
1925.00, 
1926.00, 
1927.00, 
1928.00, 
1929.00, 
1930.00, 
1931.00, 
1932.00, 
1933.00, 
1934.00, 
1935.00, 
1936.00, 
1937.00, 
1938.00, 
1939.00, 
1940.00, 
1941.00, 
1942.00, 
1943.00, 
1944.00, 
1945.00, 
1946.00, 
1947.00, 
1948.00, 
1949.00, 
1950.00, 
1951.00, 
1952.00, 
1953.00, 
1954.00, 
1955.00, 
1956.00, 
1957.00, 
1958.00, 
1959.00, 
1960.00, 
1961.00, 
1962.00, 
1963.00, 
1964.00, 
1965.00, 
1966.00, 
1967.00, 
1968.00, 
1969.00, 
1970.00, 
1971.00, 
1972.00, 
1973.00, 
1974.00, 
1975.00, 
1976.00, 
1977.00, 
1978.00, 
1979.00, 
1980.00, 
1981.00, 
1982.00, 
1983.00, 
1984.00, 
1985.00, 
1986.00, 
1987.00, 
1988.00, 
1989.00, 
1990.00, 
1991.00, 
1992.00, 
1993.00, 
1994.00, 
1995.00, 
1996.00, 
1997.00, 
1998.00, 
1999.00, 
2000.00, 
2001.00, 
2002.00, 
2003.00, 
2004.00, 
2005.00, 
2006.00, 
2007.00, 
2008.00, 
2009.00, 
2010.00, 
2011.00, 
2012.00, 
2013.00, 
2014.00, 
2015.00, 
2016.00, 
2017.00, 
2018.00, 
2019.00, 
2020.00, 
2021.00, 
2022.00, 
2023.00, 
2024.00, 
2025.00, 
2026.00, 
2027.00, 
2028.00, 
2029.00, 
2030.00, 
2031.00, 
2032.00, 
2033.00, 
2034.00, 
2035.00, 
2036.00, 
2037.00, 
2038.00, 
2039.00, 
2040.00, 
2041.00, 
2042.00, 
2043.00, 
2044.00, 
2045.00, 
2046.00, 
2047.00, 
2048.00, 
2049.00, 
2050.00, 
2051.00, 
2052.00, 
2053.00, 
2054.00, 
2055.00, 
2056.00, 
2057.00, 
2058.00, 
2059.00, 
2060.00, 
2061.00, 
2062.00, 
2063.00, 
2064.00, 
2065.00, 
2066.00, 
2067.00, 
2068.00, 
2069.00, 
2070.00, 
2071.00, 
2072.00, 
2073.00, 
2074.00, 
2075.00, 
2076.00, 
2077.00, 
2078.00, 
2079.00, 
2080.00, 
2081.00, 
2082.00, 
2083.00, 
2084.00, 
2085.00, 
2086.00, 
2087.00, 
2088.00, 
2089.00, 
2090.00, 
2091.00, 
2092.00, 
2093.00, 
2094.00, 
2095.00, 
2096.00, 
2097.00, 
2098.00, 
2099.00, 
2100.00, 
2101.00, 
2102.00, 
2103.00, 
2104.00, 
2105.00, 
2106.00, 
2107.00, 
2108.00, 
2109.00, 
2110.00, 
2111.00, 
2112.00, 
2113.00, 
2114.00, 
2115.00, 
2116.00, 
2117.00, 
2118.00, 
2119.00, 
2120.00, 
2121.00, 
2122.00, 
2123.00, 
2124.00, 
2125.00, 
2126.00, 
2127.00, 
2128.00, 
2129.00, 
2130.00, 
2131.00, 
2132.00, 
2133.00, 
2134.00, 
2135.00, 
2136.00, 
2137.00, 
2138.00, 
2139.00, 
2140.00, 
2141.00, 
2142.00, 
2143.00, 
2144.00, 
2145.00, 
2146.00, 
2147.00, 
2148.00, 
2149.00, 
2150.00, 
2151.00, 
2152.00, 
2153.00, 
2154.00, 
2155.00, 
2156.00, 
2157.00, 
2158.00, 
2159.00, 
2160.00, 
2161.00, 
2162.00, 
2163.00, 
2164.00, 
2165.00, 
2166.00, 
2167.00, 
2168.00, 
2169.00, 
2170.00, 
2171.00, 
2172.00, 
2173.00, 
2174.00, 
2175.00, 
2176.00, 
2177.00, 
2178.00, 
2179.00, 
2180.00, 
2181.00, 
2182.00, 
2183.00, 
2184.00, 
2185.00, 
2186.00, 
2187.00, 
2188.00, 
2189.00, 
2190.00, 
2191.00, 
2192.00, 
2193.00, 
2194.00, 
2195.00, 
2196.00, 
2197.00, 
2198.00, 
2199.00, 
2200.00, 
2201.00, 
2202.00, 
2203.00, 
2204.00, 
2205.00, 
2206.00, 
2207.00, 
2208.00, 
2209.00, 
2210.00, 
2211.00, 
2212.00, 
2213.00, 
2214.00, 
2215.00, 
2216.00, 
2217.00, 
2218.00, 
2219.00, 
2220.00, 
2221.00, 
2222.00, 
2223.00, 
2224.00, 
2225.00, 
2226.00, 
2227.00, 
2228.00, 
2229.00, 
2230.00, 
2231.00, 
2232.00, 
2233.00, 
2234.00, 
2235.00, 
2236.00, 
2237.00, 
2238.00, 
2239.00, 
2240.00, 
2241.00, 
2242.00, 
2243.00, 
2244.00, 
2245.00, 
2246.00, 
2247.00, 
2248.00, 
2249.00, 
2250.00, 
2251.00, 
2252.00, 
2253.00, 
2254.00, 
2255.00, 
2256.00, 
2257.00, 
2258.00, 
2259.00, 
2260.00, 
2261.00, 
2262.00, 
2263.00, 
2264.00, 
2265.00, 
2266.00, 
2267.00, 
2268.00, 
2269.00, 
2270.00, 
2271.00, 
2272.00, 
2273.00, 
2274.00, 
2275.00, 
2276.00, 
2277.00, 
2278.00, 
2279.00, 
2280.00, 
2281.00, 
2282.00, 
2283.00, 
2284.00, 
2285.00, 
2286.00, 
2287.00, 
2288.00, 
2289.00, 
2290.00, 
2291.00, 
2292.00, 
2293.00, 
2294.00, 
2295.00, 
2296.00, 
2297.00, 
2298.00, 
2299.00, 
2300.00, 
2301.00, 
2302.00, 
2303.00, 
2304.00, 
2305.00, 
2306.00, 
2307.00, 
2308.00, 
2309.00, 
2310.00, 
2311.00, 
2312.00, 
2313.00, 
2314.00, 
2315.00, 
2316.00, 
2317.00, 
2318.00, 
2319.00, 
2320.00, 
2321.00, 
2322.00, 
2323.00, 
2324.00, 
2325.00, 
2326.00, 
2327.00, 
2328.00, 
2329.00, 
2330.00, 
2331.00, 
2332.00, 
2333.00, 
2334.00, 
2335.00, 
2336.00, 
2337.00, 
2338.00, 
2339.00, 
2340.00, 
2341.00, 
2342.00, 
2343.00, 
2344.00, 
2345.00, 
2346.00, 
2347.00, 
2348.00, 
2349.00, 
2350.00, 
2351.00, 
2352.00, 
2353.00, 
2354.00, 
2355.00, 
2356.00, 
2357.00, 
2358.00, 
2359.00, 
2360.00, 
2361.00, 
2362.00, 
2363.00, 
2364.00, 
2365.00, 
2366.00, 
2367.00, 
2368.00, 
2369.00, 
2370.00, 
2371.00, 
2372.00, 
2373.00, 
2374.00, 
2375.00, 
2376.00, 
2377.00, 
2378.00, 
2379.00, 
2380.00, 
2381.00, 
2382.00, 
2383.00, 
2384.00, 
2385.00, 
2386.00, 
2387.00, 
2388.00, 
2389.00, 
2390.00, 
2391.00, 
2392.00, 
2393.00, 
2394.00, 
2395.00, 
2396.00, 
2397.00, 
2398.00, 
2399.00, 
2400.00, 
2401.00, 
2402.00, 
2403.00, 
2404.00, 
2405.00, 
2406.00, 
2407.00, 
2408.00, 
2409.00, 
2410.00, 
2411.00, 
2412.00, 
2413.00, 
2414.00, 
2415.00, 
2416.00, 
2417.00, 
2418.00, 
2419.00, 
2420.00, 
2421.00, 
2422.00, 
2423.00, 
2424.00, 
2425.00, 
2426.00, 
2427.00, 
2428.00, 
2429.00, 
2430.00, 
2431.00, 
2432.00, 
2433.00, 
2434.00, 
2435.00, 
2436.00, 
2437.00, 
2438.00, 
2439.00, 
2440.00, 
2441.00, 
2442.00, 
2443.00, 
2444.00, 
2445.00, 
2446.00, 
2447.00, 
2448.00, 
2449.00, 
2450.00, 
2451.00, 
2452.00, 
2453.00, 
2454.00, 
2455.00, 
2456.00, 
2457.00, 
2458.00, 
2459.00, 
2460.00, 
2461.00, 
2462.00, 
2463.00, 
2464.00, 
2465.00, 
2466.00, 
2467.00, 
2468.00, 
2469.00, 
2470.00, 
2471.00, 
2472.00, 
2473.00, 
2474.00, 
2475.00, 
2476.00, 
2477.00, 
2478.00, 
2479.00, 
2480.00, 
2481.00, 
2482.00, 
2483.00, 
2484.00, 
2485.00, 
2486.00, 
2487.00, 
2488.00, 
2489.00, 
2490.00, 
2491.00, 
2492.00, 
2493.00, 
2494.00, 
2495.00, 
2496.00, 
2497.00, 
2498.00, 
2499.00, 
2500.00, 
2501.00, 
2502.00, 
2503.00, 
2504.00, 
2505.00, 
2506.00, 
2507.00, 
2508.00, 
2509.00, 
2510.00, 
2511.00, 
2512.00, 
2513.00, 
2514.00, 
2515.00, 
2516.00, 
2517.00, 
2518.00, 
2519.00, 
2520.00, 
2521.00, 
2522.00, 
2523.00, 
2524.00, 
2525.00, 
2526.00, 
2527.00, 
2528.00, 
2529.00, 
2530.00, 
2531.00, 
2532.00, 
2533.00, 
2534.00, 
2535.00, 
2536.00, 
2537.00, 
2538.00, 
2539.00, 
2540.00, 
2541.00, 
2542.00, 
2543.00, 
2544.00, 
2545.00, 
2546.00, 
2547.00, 
2548.00, 
2549.00, 
2550.00, 
2551.00, 
2552.00, 
2553.00, 
2554.00, 
2555.00, 
2556.00, 
2557.00, 
2558.00, 
2559.00, 
2560.00, 
2561.00, 
2562.00, 
2563.00, 
2564.00, 
2565.00, 
2566.00, 
2567.00, 
2568.00, 
2569.00, 
2570.00, 
2571.00, 
2572.00, 
2573.00, 
2574.00, 
2575.00, 
2576.00, 
2577.00, 
2578.00, 
2579.00, 
2580.00, 
2581.00, 
2582.00, 
2583.00, 
2584.00, 
2585.00, 
2586.00, 
2587.00, 
2588.00, 
2589.00, 
2590.00, 
2591.00, 
2592.00, 
2593.00, 
2594.00, 
2595.00, 
2596.00, 
2597.00, 
2598.00, 
2599.00, 
2600.00, 
