"2cP5 - RawData"
"Wavelength nm.","T%"
200.00,0.005
201.00,-0.000
202.00,0.002
203.00,0.003
204.00,-0.002
205.00,0.001
206.00,-0.001
207.00,0.004
208.00,0.001
209.00,0.002
210.00,0.004
211.00,0.000
212.00,0.001
213.00,0.001
214.00,-0.000
215.00,-0.000
216.00,0.003
217.00,0.002
218.00,0.000
219.00,-0.001
220.00,0.003
221.00,0.001
222.00,0.003
223.00,0.003
224.00,0.003
225.00,0.002
226.00,0.003
227.00,-0.001
228.00,0.000
229.00,-0.000
230.00,0.003
231.00,-0.000
232.00,0.000
233.00,-0.001
234.00,0.001
235.00,-0.000
236.00,0.002
237.00,0.001
238.00,0.001
239.00,0.001
240.00,-0.001
241.00,0.000
242.00,0.000
243.00,-0.001
244.00,-0.002
245.00,-0.001
246.00,0.001
247.00,-0.001
248.00,0.001
249.00,-0.000
250.00,0.001
251.00,0.000
252.00,0.001
253.00,0.001
254.00,0.001
255.00,0.001
256.00,0.001
257.00,0.001
258.00,0.001
259.00,-0.000
260.00,0.002
261.00,-0.001
262.00,0.001
263.00,0.002
264.00,0.002
265.00,0.001
266.00,0.001
267.00,0.002
268.00,-0.000
269.00,0.001
270.00,-0.001
271.00,0.001
272.00,0.000
273.00,0.001
274.00,0.001
275.00,-0.000
276.00,-0.000
277.00,0.000
278.00,0.001
279.00,0.000
280.00,0.000
281.00,-0.000
282.00,-0.001
283.00,0.000
284.00,-0.001
285.00,0.000
286.00,-0.000
287.00,0.001
288.00,0.000
289.00,0.001
290.00,0.001
291.00,0.003
292.00,-0.000
293.00,-0.002
294.00,0.001
295.00,-0.000
296.00,0.001
297.00,0.000
298.00,0.001
299.00,0.001
300.00,0.002
301.00,0.003
302.00,0.006
303.00,0.008
304.00,0.011
305.00,0.017
306.00,0.024
307.00,0.040
308.00,0.061
309.00,0.099
310.00,0.140
311.00,0.182
312.00,0.252
313.00,0.344
314.00,0.445
315.00,0.581
316.00,0.739
317.00,0.941
318.00,1.167
319.00,1.441
320.00,1.744
321.00,2.075
322.00,2.453
323.00,2.893
324.00,3.366
325.00,3.831
326.00,4.288
327.00,4.858
328.00,5.446
329.00,6.023
330.00,6.614
331.00,7.240
332.00,7.851
333.00,8.529
334.00,9.157
335.00,9.790
336.00,10.411
337.00,11.100
338.00,11.700
339.00,12.333
340.00,12.869
341.00,13.473
342.00,13.901
343.00,14.528
344.00,15.083
345.00,15.537
346.00,16.005
347.00,16.434
348.00,16.847
349.00,17.238
350.00,17.606
351.00,17.940
352.00,18.212
353.00,18.507
354.00,18.783
355.00,19.098
356.00,19.306
357.00,19.492
358.00,19.728
359.00,19.938
360.00,20.143
361.00,20.336
362.00,20.473
363.00,20.610
364.00,20.642
365.00,20.817
366.00,20.877
367.00,20.958
368.00,21.055
369.00,21.082
370.00,21.126
371.00,21.120
372.00,21.127
373.00,21.199
374.00,21.190
375.00,21.130
376.00,21.141
377.00,21.106
378.00,21.044
379.00,20.974
380.00,20.980
381.00,20.949
382.00,20.964
383.00,20.934
384.00,20.990
385.00,21.019
386.00,21.006
387.00,21.094
388.00,21.139
389.00,21.117
390.00,21.185
391.00,21.129
392.00,21.192
393.00,21.185
394.00,21.257
395.00,21.261
396.00,21.243
397.00,21.252
398.00,21.289
399.00,21.265
400.00,21.278
401.00,21.280
402.00,21.282
403.00,21.287
404.00,21.281
405.00,21.332
406.00,21.241
407.00,21.219
408.00,21.243
409.00,21.188
410.00,21.180
411.00,21.128
412.00,21.144
413.00,21.129
414.00,21.193
415.00,21.156
416.00,21.190
417.00,21.175
418.00,21.209
419.00,21.271
420.00,21.304
421.00,21.368
422.00,21.407
423.00,21.463
424.00,21.501
425.00,21.511
426.00,21.528
427.00,21.635
428.00,21.642
429.00,21.715
430.00,21.747
431.00,21.793
432.00,21.837
433.00,21.905
434.00,21.978
435.00,22.026
436.00,22.086
437.00,22.153
438.00,22.218
439.00,22.311
440.00,22.401
441.00,22.482
442.00,22.534
443.00,22.639
444.00,22.739
445.00,22.837
446.00,22.902
447.00,23.017
448.00,23.158
449.00,23.210
450.00,23.297
451.00,23.399
452.00,23.496
453.00,23.678
454.00,23.740
455.00,23.904
456.00,24.018
457.00,24.142
458.00,24.217
459.00,24.351
460.00,24.510
461.00,24.599
462.00,24.738
463.00,24.871
464.00,25.021
465.00,25.118
466.00,25.306
467.00,25.431
468.00,25.508
469.00,25.619
470.00,25.712
471.00,25.838
472.00,25.982
473.00,26.061
474.00,26.199
475.00,26.314
476.00,26.436
477.00,26.551
478.00,26.715
479.00,26.845
480.00,26.980
481.00,27.140
482.00,27.271
483.00,27.419
484.00,27.595
485.00,27.768
486.00,27.875
487.00,28.031
488.00,28.199
489.00,28.354
490.00,28.523
491.00,28.610
492.00,28.775
493.00,28.979
494.00,29.088
495.00,29.177
496.00,29.313
497.00,29.440
498.00,29.595
499.00,29.704
500.00,29.831
501.00,29.984
502.00,30.129
503.00,30.203
504.00,30.330
505.00,30.461
506.00,30.567
507.00,30.687
508.00,30.848
509.00,31.003
510.00,31.130
511.00,31.173
512.00,31.433
513.00,31.596
514.00,31.610
515.00,31.766
516.00,31.838
517.00,31.954
518.00,32.116
519.00,32.159
520.00,32.224
521.00,32.331
522.00,32.417
523.00,32.474
524.00,32.550
525.00,32.677
526.00,32.789
527.00,32.812
528.00,32.896
529.00,33.065
530.00,33.198
531.00,33.347
532.00,33.444
533.00,33.579
534.00,33.628
535.00,33.689
536.00,33.785
537.00,33.844
538.00,33.958
539.00,34.008
540.00,34.076
541.00,34.123
542.00,34.174
543.00,34.248
544.00,34.345
545.00,34.410
546.00,34.450
547.00,34.571
548.00,34.754
549.00,34.715
550.00,34.813
551.00,34.869
552.00,34.948
553.00,35.030
554.00,35.080
555.00,35.112
556.00,35.143
557.00,35.260
558.00,35.329
559.00,35.319
560.00,35.373
561.00,35.506
562.00,35.523
563.00,35.632
564.00,35.661
565.00,35.603
566.00,35.642
567.00,35.738
568.00,35.689
569.00,35.903
570.00,35.894
571.00,35.982
572.00,35.984
573.00,35.937
574.00,36.008
575.00,36.050
576.00,36.023
577.00,36.090
578.00,36.215
579.00,36.275
580.00,36.324
581.00,36.474
582.00,36.530
583.00,36.555
584.00,36.625
585.00,36.663
586.00,36.716
587.00,36.789
588.00,36.792
589.00,36.741
590.00,36.928
591.00,36.954
592.00,36.885
593.00,36.975
594.00,37.061
595.00,37.106
596.00,37.185
597.00,37.304
598.00,37.314
599.00,37.324
600.00,37.386
601.00,37.346
602.00,37.360
603.00,37.470
604.00,37.520
605.00,37.486
606.00,37.630
607.00,37.636
608.00,37.536
609.00,37.790
610.00,37.933
611.00,37.742
612.00,37.850
613.00,37.869
614.00,37.933
615.00,38.093
616.00,38.147
617.00,38.126
618.00,38.093
619.00,38.190
620.00,38.238
621.00,38.336
622.00,38.428
623.00,38.444
624.00,38.542
625.00,38.593
626.00,38.663
627.00,38.745
628.00,38.758
629.00,38.822
630.00,38.817
631.00,38.903
632.00,38.971
633.00,39.106
634.00,39.172
635.00,39.201
636.00,39.358
637.00,39.370
638.00,39.461
639.00,39.544
640.00,39.639
641.00,39.630
642.00,39.727
643.00,39.807
644.00,39.899
645.00,39.928
646.00,40.003
647.00,40.118
648.00,40.181
649.00,40.146
650.00,40.283
651.00,40.480
652.00,40.466
653.00,40.408
654.00,40.630
655.00,40.724
656.00,41.023
657.00,40.962
658.00,40.875
659.00,41.011
660.00,41.224
661.00,41.203
662.00,41.286
663.00,41.440
664.00,41.691
665.00,41.801
666.00,41.761
667.00,41.822
668.00,41.882
669.00,42.050
670.00,42.285
671.00,42.287
672.00,42.436
673.00,42.448
674.00,42.555
675.00,42.648
676.00,42.780
677.00,42.943
678.00,42.797
679.00,42.938
680.00,43.101
681.00,43.324
682.00,43.171
683.00,43.162
684.00,43.621
685.00,43.708
686.00,43.585
687.00,43.752
688.00,43.694
689.00,43.710
690.00,44.014
691.00,44.282
692.00,44.219
693.00,44.232
694.00,44.316
695.00,44.497
696.00,44.563
697.00,44.484
698.00,44.686
699.00,44.878
700.00,44.899
701.00,44.942
702.00,45.085
703.00,45.146
704.00,45.088
705.00,45.240
706.00,45.632
707.00,45.541
708.00,45.378
709.00,45.692
710.00,46.113
711.00,45.665
712.00,45.855
713.00,46.027
714.00,45.972
715.00,45.913
716.00,46.095
717.00,46.505
718.00,46.510
719.00,46.412
720.00,46.505
721.00,51.078
722.00,51.081
723.00,51.078
724.00,51.138
725.00,51.163
726.00,51.166
727.00,51.145
728.00,51.226
729.00,51.217
730.00,51.306
731.00,51.348
732.00,51.299
733.00,51.413
734.00,51.474
735.00,51.567
736.00,51.517
737.00,51.508
738.00,51.675
739.00,51.686
740.00,51.740
741.00,51.763
742.00,51.763
743.00,51.832
744.00,51.760
745.00,51.798
746.00,51.868
747.00,51.793
748.00,51.844
749.00,51.840
750.00,51.870
751.00,51.798
752.00,51.863
753.00,51.857
754.00,51.993
755.00,51.844
756.00,51.959
757.00,51.987
758.00,51.986
759.00,51.978
760.00,52.045
761.00,52.061
762.00,52.002
763.00,52.161
764.00,52.108
765.00,52.151
766.00,52.175
767.00,52.190
768.00,52.145
769.00,52.188
770.00,52.247
771.00,52.256
772.00,52.263
773.00,52.203
774.00,52.278
775.00,52.324
776.00,52.294
777.00,52.358
778.00,52.427
779.00,52.364
780.00,52.271
781.00,52.329
782.00,52.311
783.00,52.311
784.00,52.312
785.00,52.260
786.00,52.330
787.00,52.312
788.00,52.322
789.00,52.295
790.00,52.281
791.00,52.318
792.00,52.268
793.00,52.245
794.00,52.212
795.00,52.312
796.00,52.246
797.00,52.229
798.00,52.250
799.00,52.245
800.00,52.294
801.00,52.224
802.00,52.165
803.00,52.177
804.00,52.139
805.00,52.171
806.00,52.134
807.00,52.137
808.00,52.168
809.00,52.128
810.00,52.061
811.00,52.081
812.00,52.075
813.00,52.100
814.00,52.104
815.00,52.099
816.00,52.049
817.00,52.093
818.00,52.055
819.00,51.990
820.00,52.000
821.00,51.973
822.00,52.092
823.00,51.950
824.00,51.952
825.00,51.929
826.00,51.871
827.00,51.874
828.00,51.958
829.00,51.854
830.00,51.912
831.00,54.056
832.00,54.059
833.00,53.988
834.00,54.024
835.00,54.027
836.00,54.003
837.00,53.998
838.00,53.994
839.00,53.966
840.00,53.905
841.00,53.928
842.00,53.875
843.00,53.882
844.00,53.853
845.00,53.823
846.00,53.811
847.00,53.798
848.00,53.769
849.00,53.740
850.00,53.719
851.00,53.671
852.00,53.674
853.00,53.638
854.00,53.609
855.00,53.553
856.00,53.547
857.00,53.560
858.00,53.504
859.00,53.483
860.00,53.470
861.00,53.505
862.00,53.446
863.00,53.477
864.00,53.431
865.00,53.472
866.00,53.429
867.00,53.453
868.00,53.387
869.00,53.390
870.00,53.359
871.00,53.370
872.00,53.371
873.00,53.328
874.00,53.381
875.00,53.303
876.00,53.363
877.00,53.314
878.00,53.320
879.00,53.271
880.00,53.275
881.00,53.258
882.00,53.262
883.00,53.226
884.00,53.205
885.00,53.153
886.00,53.151
887.00,53.143
888.00,53.171
889.00,52.974
890.00,53.090
891.00,53.057
892.00,53.083
893.00,53.038
894.00,53.052
895.00,53.018
896.00,52.996
897.00,52.953
898.00,52.939
899.00,52.918
900.00,52.912
901.00,52.878
902.00,52.891
903.00,52.847
904.00,52.862
905.00,52.843
906.00,52.827
907.00,52.804
908.00,52.771
909.00,52.746
910.00,52.720
911.00,52.726
912.00,52.729
913.00,52.661
914.00,52.653
915.00,52.641
916.00,52.615
917.00,52.578
918.00,52.557
919.00,52.563
920.00,52.567
921.00,52.528
922.00,52.498
923.00,52.508
924.00,52.496
925.00,52.442
926.00,52.479
927.00,52.439
928.00,52.403
929.00,52.394
930.00,52.359
931.00,52.372
932.00,52.308
933.00,52.345
934.00,52.300
935.00,52.304
936.00,52.269
937.00,52.240
938.00,52.233
939.00,52.226
940.00,52.190
941.00,52.179
942.00,52.186
943.00,52.146
944.00,52.091
945.00,52.103
946.00,52.080
947.00,52.063
948.00,52.039
949.00,52.022
950.00,52.017
951.00,51.986
952.00,51.976
953.00,51.934
954.00,51.919
955.00,51.867
956.00,51.872
957.00,51.835
958.00,51.841
959.00,51.800
960.00,51.784
961.00,51.759
962.00,51.764
963.00,51.725
964.00,51.732
965.00,51.709
966.00,51.708
967.00,51.701
968.00,51.685
969.00,51.712
970.00,51.679
971.00,51.696
972.00,51.678
973.00,51.691
974.00,51.709
975.00,51.686
976.00,51.690
977.00,51.585
978.00,51.711
979.00,51.669
980.00,51.696
981.00,51.685
982.00,51.676
983.00,51.661
984.00,51.652
985.00,51.676
986.00,51.622
987.00,51.661
988.00,51.621
989.00,51.608
990.00,51.594
991.00,51.567
992.00,51.588
993.00,51.557
994.00,51.549
995.00,51.524
996.00,51.537
997.00,51.512
998.00,51.490
999.00,51.519
1000.00,51.465
1001.00,51.475
1002.00,51.464
1003.00,51.455
1004.00,51.431
1005.00,51.416
1006.00,51.458
1007.00,51.419
1008.00,51.404
1009.00,51.377
1010.00,51.376
1011.00,51.354
1012.00,51.323
1013.00,51.331
1014.00,51.285
1015.00,51.308
1016.00,51.268
1017.00,51.253
1018.00,51.242
1019.00,51.213
1020.00,51.221
1021.00,51.201
1022.00,51.187
1023.00,51.147
1024.00,51.155
1025.00,51.133
1026.00,51.116
1027.00,51.094
1028.00,51.088
1029.00,51.078
1030.00,51.055
1031.00,51.045
1032.00,50.999
1033.00,51.017
1034.00,50.988
1035.00,50.946
1036.00,50.922
1037.00,50.912
1038.00,50.896
1039.00,50.859
1040.00,50.865
1041.00,50.833
1042.00,50.830
1043.00,50.818
1044.00,50.819
1045.00,50.813
1046.00,50.796
1047.00,50.813
1048.00,50.831
1049.00,50.825
1050.00,50.834
1051.00,50.880
1052.00,50.885
1053.00,50.893
1054.00,50.886
1055.00,50.895
1056.00,50.873
1057.00,50.910
1058.00,50.893
1059.00,50.887
1060.00,50.899
1061.00,50.902
1062.00,50.877
1063.00,50.876
1064.00,50.858
1065.00,50.854
1066.00,50.846
1067.00,50.835
1068.00,50.856
1069.00,50.830
1070.00,50.806
1071.00,50.793
1072.00,50.814
1073.00,50.792
1074.00,50.782
1075.00,50.763
1076.00,50.773
1077.00,50.736
1078.00,50.719
1079.00,50.713
1080.00,50.719
1081.00,50.709
1082.00,50.692
1083.00,50.681
1084.00,50.682
1085.00,50.657
1086.00,50.670
1087.00,50.674
1088.00,50.652
1089.00,50.643
1090.00,50.650
1091.00,50.634
1092.00,50.626
1093.00,50.607
1094.00,50.607
1095.00,50.578
1096.00,50.557
1097.00,50.555
1098.00,50.554
1099.00,50.543
1100.00,50.538
1101.00,50.528
1102.00,50.530
1103.00,50.529
1104.00,50.516
1105.00,50.496
1106.00,50.489
1107.00,50.467
1108.00,50.460
1109.00,50.479
1110.00,50.474
1111.00,50.436
1112.00,50.431
1113.00,50.430
1114.00,50.427
1115.00,50.430
1116.00,50.425
1117.00,50.399
1118.00,50.393
1119.00,50.388
1120.00,50.395
1121.00,50.376
1122.00,50.347
1123.00,50.346
1124.00,50.338
1125.00,50.333
1126.00,50.324
1127.00,50.326
1128.00,50.318
1129.00,50.274
1130.00,50.283
1131.00,50.289
1132.00,50.291
1133.00,50.300
1134.00,50.291
1135.00,50.260
1136.00,50.256
1137.00,50.261
1138.00,50.252
1139.00,50.273
1140.00,50.270
1141.00,50.235
1142.00,50.228
1143.00,50.231
1144.00,50.212
1145.00,50.210
1146.00,50.221
1147.00,50.201
1148.00,50.199
1149.00,50.211
1150.00,50.216
1151.00,50.212
1152.00,50.198
1153.00,50.191
1154.00,50.165
1155.00,50.177
1156.00,50.162
1157.00,50.171
1158.00,50.176
1159.00,50.164
1160.00,50.150
1161.00,50.160
1162.00,50.149
1163.00,50.153
1164.00,50.151
1165.00,50.153
1166.00,50.151
1167.00,50.148
1168.00,50.171
1169.00,50.153
1170.00,50.148
1171.00,50.117
1172.00,50.127
1173.00,50.109
1174.00,50.117
1175.00,50.129
1176.00,50.118
1177.00,50.105
1178.00,50.107
1179.00,50.125
1180.00,50.110
1181.00,50.125
1182.00,50.115
1183.00,50.113
1184.00,50.102
1185.00,50.133
1186.00,50.136
1187.00,50.104
1188.00,50.089
1189.00,50.095
1190.00,50.091
1191.00,50.089
1192.00,50.099
1193.00,50.090
1194.00,50.106
1195.00,50.088
1196.00,50.103
1197.00,50.103
1198.00,50.099
1199.00,50.078
1200.00,50.097
1201.00,50.120
1202.00,50.076
1203.00,50.081
1204.00,50.060
1205.00,50.083
1206.00,50.072
1207.00,50.070
1208.00,50.059
1209.00,50.065
1210.00,50.070
1211.00,50.055
1212.00,50.069
1213.00,50.051
1214.00,50.062
1215.00,50.040
1216.00,50.065
1217.00,50.052
1218.00,50.030
1219.00,50.060
1220.00,50.038
1221.00,50.047
1222.00,50.043
1223.00,50.064
1224.00,50.070
1225.00,50.051
1226.00,50.058
1227.00,50.058
1228.00,50.071
1229.00,50.071
1230.00,50.095
1231.00,50.084
1232.00,50.096
1233.00,50.103
1234.00,50.102
1235.00,50.091
1236.00,50.082
1237.00,50.078
1238.00,50.089
1239.00,50.081
1240.00,50.081
1241.00,50.092
1242.00,50.104
1243.00,50.115
1244.00,50.099
1245.00,50.127
1246.00,50.140
1247.00,50.134
1248.00,50.109
1249.00,50.122
1250.00,50.126
1251.00,50.119
1252.00,50.128
1253.00,50.106
1254.00,50.135
1255.00,50.146
1256.00,50.137
1257.00,50.100
1258.00,50.139
1259.00,50.149
1260.00,50.164
1261.00,50.158
1262.00,50.159
1263.00,50.140
1264.00,50.146
1265.00,50.148
1266.00,50.153
1267.00,50.165
1268.00,50.173
1269.00,50.153
1270.00,50.174
1271.00,50.186
1272.00,50.180
1273.00,50.194
1274.00,50.210
1275.00,50.203
1276.00,50.211
1277.00,50.218
1278.00,50.216
1279.00,50.208
1280.00,50.206
1281.00,50.214
1282.00,50.229
1283.00,50.206
1284.00,50.220
1285.00,50.226
1286.00,50.217
1287.00,50.224
1288.00,50.227
1289.00,50.225
1290.00,50.262
1291.00,50.251
1292.00,50.254
1293.00,50.249
1294.00,50.270
1295.00,50.288
1296.00,50.270
1297.00,50.268
1298.00,50.277
1299.00,50.286
1300.00,50.295
1301.00,50.304
1302.00,50.309
1303.00,50.303
1304.00,50.294
1305.00,50.315
1306.00,50.327
1307.00,50.360
1308.00,50.336
1309.00,50.353
1310.00,50.344
1311.00,50.322
1312.00,50.319
1313.00,50.323
1314.00,50.353
1315.00,50.368
1316.00,50.379
1317.00,50.417
1318.00,50.427
1319.00,50.397
1320.00,50.415
1321.00,50.577
1322.00,50.550
1323.00,50.547
1324.00,50.528
1325.00,50.527
1326.00,50.552
1327.00,50.533
1328.00,50.531
1329.00,50.538
1330.00,50.532
1331.00,50.557
1332.00,50.535
1333.00,50.536
1334.00,50.556
1335.00,50.586
1336.00,50.610
1337.00,50.657
1338.00,50.678
1339.00,50.730
1340.00,50.785
1341.00,50.853
1342.00,50.947
1343.00,50.979
1344.00,51.027
1345.00,51.093
1346.00,51.130
1347.00,51.149
1348.00,51.160
1349.00,51.196
1350.00,51.201
1351.00,51.250
1352.00,51.227
1353.00,51.326
1354.00,51.229
1355.00,51.204
1356.00,51.273
1357.00,51.254
1358.00,51.246
1359.00,51.287
1360.00,51.217
1361.00,51.193
1362.00,51.184
1363.00,51.303
1364.00,51.400
1365.00,51.278
1366.00,51.355
1367.00,51.460
1368.00,51.212
1369.00,51.244
1370.00,51.259
1371.00,51.191
1372.00,51.233
1373.00,51.242
1374.00,51.228
1375.00,51.239
1376.00,51.208
1377.00,51.210
1378.00,51.237
1379.00,51.243
1380.00,51.253
1381.00,51.377
1382.00,50.922
1383.00,51.240
1384.00,51.183
1385.00,51.186
1386.00,51.235
1387.00,51.193
1388.00,51.173
1389.00,51.164
1390.00,51.250
1391.00,51.219
1392.00,51.221
1393.00,51.168
1394.00,51.234
1395.00,51.177
1396.00,51.147
1397.00,51.146
1398.00,51.303
1399.00,51.243
1400.00,51.186
1401.00,51.153
1402.00,51.276
1403.00,51.252
1404.00,51.200
1405.00,51.257
1406.00,51.259
1407.00,51.279
1408.00,51.287
1409.00,51.256
1410.00,51.276
1411.00,51.300
1412.00,51.328
1413.00,51.560
1414.00,51.281
1415.00,51.305
1416.00,51.305
1417.00,51.348
1418.00,51.324
1419.00,51.339
1420.00,51.367
1421.00,51.414
1422.00,51.405
1423.00,51.392
1424.00,51.399
1425.00,51.417
1426.00,51.420
1427.00,51.456
1428.00,51.463
1429.00,51.436
1430.00,51.459
1431.00,51.479
1432.00,51.489
1433.00,51.524
1434.00,51.514
1435.00,51.546
1436.00,51.568
1437.00,51.554
1438.00,51.569
1439.00,51.603
1440.00,51.603
1441.00,51.617
1442.00,51.632
1443.00,51.657
1444.00,51.682
1445.00,51.660
1446.00,51.679
1447.00,51.731
1448.00,51.726
1449.00,51.729
1450.00,51.724
1451.00,51.759
1452.00,51.784
1453.00,51.780
1454.00,51.791
1455.00,51.836
1456.00,51.834
1457.00,51.851
1458.00,51.878
1459.00,51.880
1460.00,51.898
1461.00,51.912
1462.00,51.927
1463.00,51.946
1464.00,51.964
1465.00,51.957
1466.00,51.975
1467.00,51.994
1468.00,52.047
1469.00,52.024
1470.00,52.015
1471.00,52.048
1472.00,52.043
1473.00,52.078
1474.00,52.115
1475.00,52.105
1476.00,52.102
1477.00,52.107
1478.00,52.134
1479.00,52.153
1480.00,52.152
1481.00,52.148
1482.00,52.194
1483.00,52.208
1484.00,52.216
1485.00,52.244
1486.00,52.220
1487.00,52.240
1488.00,52.269
1489.00,52.267
1490.00,52.282
1491.00,52.289
1492.00,52.300
1493.00,52.297
1494.00,52.329
1495.00,52.312
1496.00,52.349
1497.00,52.342
1498.00,52.346
1499.00,52.386
1500.00,52.374
1501.00, 
1502.00, 
1503.00, 
1504.00, 
1505.00, 
1506.00, 
1507.00, 
1508.00, 
1509.00, 
1510.00, 
1511.00, 
1512.00, 
1513.00, 
1514.00, 
1515.00, 
1516.00, 
1517.00, 
1518.00, 
1519.00, 
1520.00, 
1521.00, 
1522.00, 
1523.00, 
1524.00, 
1525.00, 
1526.00, 
1527.00, 
1528.00, 
1529.00, 
1530.00, 
1531.00, 
1532.00, 
1533.00, 
1534.00, 
1535.00, 
1536.00, 
1537.00, 
1538.00, 
1539.00, 
1540.00, 
1541.00, 
1542.00, 
1543.00, 
1544.00, 
1545.00, 
1546.00, 
1547.00, 
1548.00, 
1549.00, 
1550.00, 
1551.00, 
1552.00, 
1553.00, 
1554.00, 
1555.00, 
1556.00, 
1557.00, 
1558.00, 
1559.00, 
1560.00, 
1561.00, 
1562.00, 
1563.00, 
1564.00, 
1565.00, 
1566.00, 
1567.00, 
1568.00, 
1569.00, 
1570.00, 
1571.00, 
1572.00, 
1573.00, 
1574.00, 
1575.00, 
1576.00, 
1577.00, 
1578.00, 
1579.00, 
1580.00, 
1581.00, 
1582.00, 
1583.00, 
1584.00, 
1585.00, 
1586.00, 
1587.00, 
1588.00, 
1589.00, 
1590.00, 
1591.00, 
1592.00, 
1593.00, 
1594.00, 
1595.00, 
1596.00, 
1597.00, 
1598.00, 
1599.00, 
1600.00, 
1601.00, 
1602.00, 
1603.00, 
1604.00, 
1605.00, 
1606.00, 
1607.00, 
1608.00, 
1609.00, 
1610.00, 
1611.00, 
1612.00, 
1613.00, 
1614.00, 
1615.00, 
1616.00, 
1617.00, 
1618.00, 
1619.00, 
1620.00, 
1621.00, 
1622.00, 
1623.00, 
1624.00, 
1625.00, 
1626.00, 
1627.00, 
1628.00, 
1629.00, 
1630.00, 
1631.00, 
1632.00, 
1633.00, 
1634.00, 
1635.00, 
1636.00, 
1637.00, 
1638.00, 
1639.00, 
1640.00, 
1641.00, 
1642.00, 
1643.00, 
1644.00, 
1645.00, 
1646.00, 
1647.00, 
1648.00, 
1649.00, 
1650.00, 
1651.00, 
1652.00, 
1653.00, 
1654.00, 
1655.00, 
1656.00, 
1657.00, 
1658.00, 
1659.00, 
1660.00, 
1661.00, 
1662.00, 
1663.00, 
1664.00, 
1665.00, 
1666.00, 
1667.00, 
1668.00, 
1669.00, 
1670.00, 
1671.00, 
1672.00, 
1673.00, 
1674.00, 
1675.00, 
1676.00, 
1677.00, 
1678.00, 
1679.00, 
1680.00, 
1681.00, 
1682.00, 
1683.00, 
1684.00, 
1685.00, 
1686.00, 
1687.00, 
1688.00, 
1689.00, 
1690.00, 
1691.00, 
1692.00, 
1693.00, 
1694.00, 
1695.00, 
1696.00, 
1697.00, 
1698.00, 
1699.00, 
1700.00, 
1701.00, 
1702.00, 
1703.00, 
1704.00, 
1705.00, 
1706.00, 
1707.00, 
1708.00, 
1709.00, 
1710.00, 
1711.00, 
1712.00, 
1713.00, 
1714.00, 
1715.00, 
1716.00, 
1717.00, 
1718.00, 
1719.00, 
1720.00, 
1721.00, 
1722.00, 
1723.00, 
1724.00, 
1725.00, 
1726.00, 
1727.00, 
1728.00, 
1729.00, 
1730.00, 
1731.00, 
1732.00, 
1733.00, 
1734.00, 
1735.00, 
1736.00, 
1737.00, 
1738.00, 
1739.00, 
1740.00, 
1741.00, 
1742.00, 
1743.00, 
1744.00, 
1745.00, 
1746.00, 
1747.00, 
1748.00, 
1749.00, 
1750.00, 
1751.00, 
1752.00, 
1753.00, 
1754.00, 
1755.00, 
1756.00, 
1757.00, 
1758.00, 
1759.00, 
1760.00, 
1761.00, 
1762.00, 
1763.00, 
1764.00, 
1765.00, 
1766.00, 
1767.00, 
1768.00, 
1769.00, 
1770.00, 
1771.00, 
1772.00, 
1773.00, 
1774.00, 
1775.00, 
1776.00, 
1777.00, 
1778.00, 
1779.00, 
1780.00, 
1781.00, 
1782.00, 
1783.00, 
1784.00, 
1785.00, 
1786.00, 
1787.00, 
1788.00, 
1789.00, 
1790.00, 
1791.00, 
1792.00, 
1793.00, 
1794.00, 
1795.00, 
1796.00, 
1797.00, 
1798.00, 
1799.00, 
1800.00, 
1801.00, 
1802.00, 
1803.00, 
1804.00, 
1805.00, 
1806.00, 
1807.00, 
1808.00, 
1809.00, 
1810.00, 
1811.00, 
1812.00, 
1813.00, 
1814.00, 
1815.00, 
1816.00, 
1817.00, 
1818.00, 
1819.00, 
1820.00, 
1821.00, 
1822.00, 
1823.00, 
1824.00, 
1825.00, 
1826.00, 
1827.00, 
1828.00, 
1829.00, 
1830.00, 
1831.00, 
1832.00, 
1833.00, 
1834.00, 
1835.00, 
1836.00, 
1837.00, 
1838.00, 
1839.00, 
1840.00, 
1841.00, 
1842.00, 
1843.00, 
1844.00, 
1845.00, 
1846.00, 
1847.00, 
1848.00, 
1849.00, 
1850.00, 
1851.00, 
1852.00, 
1853.00, 
1854.00, 
1855.00, 
1856.00, 
1857.00, 
1858.00, 
1859.00, 
1860.00, 
1861.00, 
1862.00, 
1863.00, 
1864.00, 
1865.00, 
1866.00, 
1867.00, 
1868.00, 
1869.00, 
1870.00, 
1871.00, 
1872.00, 
1873.00, 
1874.00, 
1875.00, 
1876.00, 
1877.00, 
1878.00, 
1879.00, 
1880.00, 
1881.00, 
1882.00, 
1883.00, 
1884.00, 
1885.00, 
1886.00, 
1887.00, 
1888.00, 
1889.00, 
1890.00, 
1891.00, 
1892.00, 
1893.00, 
1894.00, 
1895.00, 
1896.00, 
1897.00, 
1898.00, 
1899.00, 
1900.00, 
1901.00, 
1902.00, 
1903.00, 
1904.00, 
1905.00, 
1906.00, 
1907.00, 
1908.00, 
1909.00, 
1910.00, 
1911.00, 
1912.00, 
1913.00, 
1914.00, 
1915.00, 
1916.00, 
1917.00, 
1918.00, 
1919.00, 
1920.00, 
1921.00, 
1922.00, 
1923.00, 
1924.00, 
1925.00, 
1926.00, 
1927.00, 
1928.00, 
1929.00, 
1930.00, 
1931.00, 
1932.00, 
1933.00, 
1934.00, 
1935.00, 
1936.00, 
1937.00, 
1938.00, 
1939.00, 
1940.00, 
1941.00, 
1942.00, 
1943.00, 
1944.00, 
1945.00, 
1946.00, 
1947.00, 
1948.00, 
1949.00, 
1950.00, 
1951.00, 
1952.00, 
1953.00, 
1954.00, 
1955.00, 
1956.00, 
1957.00, 
1958.00, 
1959.00, 
1960.00, 
1961.00, 
1962.00, 
1963.00, 
1964.00, 
1965.00, 
1966.00, 
1967.00, 
1968.00, 
1969.00, 
1970.00, 
1971.00, 
1972.00, 
1973.00, 
1974.00, 
1975.00, 
1976.00, 
1977.00, 
1978.00, 
1979.00, 
1980.00, 
1981.00, 
1982.00, 
1983.00, 
1984.00, 
1985.00, 
1986.00, 
1987.00, 
1988.00, 
1989.00, 
1990.00, 
1991.00, 
1992.00, 
1993.00, 
1994.00, 
1995.00, 
1996.00, 
1997.00, 
1998.00, 
1999.00, 
2000.00, 
2001.00, 
2002.00, 
2003.00, 
2004.00, 
2005.00, 
2006.00, 
2007.00, 
2008.00, 
2009.00, 
2010.00, 
2011.00, 
2012.00, 
2013.00, 
2014.00, 
2015.00, 
2016.00, 
2017.00, 
2018.00, 
2019.00, 
2020.00, 
2021.00, 
2022.00, 
2023.00, 
2024.00, 
2025.00, 
2026.00, 
2027.00, 
2028.00, 
2029.00, 
2030.00, 
2031.00, 
2032.00, 
2033.00, 
2034.00, 
2035.00, 
2036.00, 
2037.00, 
2038.00, 
2039.00, 
2040.00, 
2041.00, 
2042.00, 
2043.00, 
2044.00, 
2045.00, 
2046.00, 
2047.00, 
2048.00, 
2049.00, 
2050.00, 
2051.00, 
2052.00, 
2053.00, 
2054.00, 
2055.00, 
2056.00, 
2057.00, 
2058.00, 
2059.00, 
2060.00, 
2061.00, 
2062.00, 
2063.00, 
2064.00, 
2065.00, 
2066.00, 
2067.00, 
2068.00, 
2069.00, 
2070.00, 
2071.00, 
2072.00, 
2073.00, 
2074.00, 
2075.00, 
2076.00, 
2077.00, 
2078.00, 
2079.00, 
2080.00, 
2081.00, 
2082.00, 
2083.00, 
2084.00, 
2085.00, 
2086.00, 
2087.00, 
2088.00, 
2089.00, 
2090.00, 
2091.00, 
2092.00, 
2093.00, 
2094.00, 
2095.00, 
2096.00, 
2097.00, 
2098.00, 
2099.00, 
2100.00, 
2101.00, 
2102.00, 
2103.00, 
2104.00, 
2105.00, 
2106.00, 
2107.00, 
2108.00, 
2109.00, 
2110.00, 
2111.00, 
2112.00, 
2113.00, 
2114.00, 
2115.00, 
2116.00, 
2117.00, 
2118.00, 
2119.00, 
2120.00, 
2121.00, 
2122.00, 
2123.00, 
2124.00, 
2125.00, 
2126.00, 
2127.00, 
2128.00, 
2129.00, 
2130.00, 
2131.00, 
2132.00, 
2133.00, 
2134.00, 
2135.00, 
2136.00, 
2137.00, 
2138.00, 
2139.00, 
2140.00, 
2141.00, 
2142.00, 
2143.00, 
2144.00, 
2145.00, 
2146.00, 
2147.00, 
2148.00, 
2149.00, 
2150.00, 
2151.00, 
2152.00, 
2153.00, 
2154.00, 
2155.00, 
2156.00, 
2157.00, 
2158.00, 
2159.00, 
2160.00, 
2161.00, 
2162.00, 
2163.00, 
2164.00, 
2165.00, 
2166.00, 
2167.00, 
2168.00, 
2169.00, 
2170.00, 
2171.00, 
2172.00, 
2173.00, 
2174.00, 
2175.00, 
2176.00, 
2177.00, 
2178.00, 
2179.00, 
2180.00, 
2181.00, 
2182.00, 
2183.00, 
2184.00, 
2185.00, 
2186.00, 
2187.00, 
2188.00, 
2189.00, 
2190.00, 
2191.00, 
2192.00, 
2193.00, 
2194.00, 
2195.00, 
2196.00, 
2197.00, 
2198.00, 
2199.00, 
2200.00, 
2201.00, 
2202.00, 
2203.00, 
2204.00, 
2205.00, 
2206.00, 
2207.00, 
2208.00, 
2209.00, 
2210.00, 
2211.00, 
2212.00, 
2213.00, 
2214.00, 
2215.00, 
2216.00, 
2217.00, 
2218.00, 
2219.00, 
2220.00, 
2221.00, 
2222.00, 
2223.00, 
2224.00, 
2225.00, 
2226.00, 
2227.00, 
2228.00, 
2229.00, 
2230.00, 
2231.00, 
2232.00, 
2233.00, 
2234.00, 
2235.00, 
2236.00, 
2237.00, 
2238.00, 
2239.00, 
2240.00, 
2241.00, 
2242.00, 
2243.00, 
2244.00, 
2245.00, 
2246.00, 
2247.00, 
2248.00, 
2249.00, 
2250.00, 
2251.00, 
2252.00, 
2253.00, 
2254.00, 
2255.00, 
2256.00, 
2257.00, 
2258.00, 
2259.00, 
2260.00, 
2261.00, 
2262.00, 
2263.00, 
2264.00, 
2265.00, 
2266.00, 
2267.00, 
2268.00, 
2269.00, 
2270.00, 
2271.00, 
2272.00, 
2273.00, 
2274.00, 
2275.00, 
2276.00, 
2277.00, 
2278.00, 
2279.00, 
2280.00, 
2281.00, 
2282.00, 
2283.00, 
2284.00, 
2285.00, 
2286.00, 
2287.00, 
2288.00, 
2289.00, 
2290.00, 
2291.00, 
2292.00, 
2293.00, 
2294.00, 
2295.00, 
2296.00, 
2297.00, 
2298.00, 
2299.00, 
2300.00, 
2301.00, 
2302.00, 
2303.00, 
2304.00, 
2305.00, 
2306.00, 
2307.00, 
2308.00, 
2309.00, 
2310.00, 
2311.00, 
2312.00, 
2313.00, 
2314.00, 
2315.00, 
2316.00, 
2317.00, 
2318.00, 
2319.00, 
2320.00, 
2321.00, 
2322.00, 
2323.00, 
2324.00, 
2325.00, 
2326.00, 
2327.00, 
2328.00, 
2329.00, 
2330.00, 
2331.00, 
2332.00, 
2333.00, 
2334.00, 
2335.00, 
2336.00, 
2337.00, 
2338.00, 
2339.00, 
2340.00, 
2341.00, 
2342.00, 
2343.00, 
2344.00, 
2345.00, 
2346.00, 
2347.00, 
2348.00, 
2349.00, 
2350.00, 
2351.00, 
2352.00, 
2353.00, 
2354.00, 
2355.00, 
2356.00, 
2357.00, 
2358.00, 
2359.00, 
2360.00, 
2361.00, 
2362.00, 
2363.00, 
2364.00, 
2365.00, 
2366.00, 
2367.00, 
2368.00, 
2369.00, 
2370.00, 
2371.00, 
2372.00, 
2373.00, 
2374.00, 
2375.00, 
2376.00, 
2377.00, 
2378.00, 
2379.00, 
2380.00, 
2381.00, 
2382.00, 
2383.00, 
2384.00, 
2385.00, 
2386.00, 
2387.00, 
2388.00, 
2389.00, 
2390.00, 
2391.00, 
2392.00, 
2393.00, 
2394.00, 
2395.00, 
2396.00, 
2397.00, 
2398.00, 
2399.00, 
2400.00, 
2401.00, 
2402.00, 
2403.00, 
2404.00, 
2405.00, 
2406.00, 
2407.00, 
2408.00, 
2409.00, 
2410.00, 
2411.00, 
2412.00, 
2413.00, 
2414.00, 
2415.00, 
2416.00, 
2417.00, 
2418.00, 
2419.00, 
2420.00, 
2421.00, 
2422.00, 
2423.00, 
2424.00, 
2425.00, 
2426.00, 
2427.00, 
2428.00, 
2429.00, 
2430.00, 
2431.00, 
2432.00, 
2433.00, 
2434.00, 
2435.00, 
2436.00, 
2437.00, 
2438.00, 
2439.00, 
2440.00, 
2441.00, 
2442.00, 
2443.00, 
2444.00, 
2445.00, 
2446.00, 
2447.00, 
2448.00, 
2449.00, 
2450.00, 
2451.00, 
2452.00, 
2453.00, 
2454.00, 
2455.00, 
2456.00, 
2457.00, 
2458.00, 
2459.00, 
2460.00, 
2461.00, 
2462.00, 
2463.00, 
2464.00, 
2465.00, 
2466.00, 
2467.00, 
2468.00, 
2469.00, 
2470.00, 
2471.00, 
2472.00, 
2473.00, 
2474.00, 
2475.00, 
2476.00, 
2477.00, 
2478.00, 
2479.00, 
2480.00, 
2481.00, 
2482.00, 
2483.00, 
2484.00, 
2485.00, 
2486.00, 
2487.00, 
2488.00, 
2489.00, 
2490.00, 
2491.00, 
2492.00, 
2493.00, 
2494.00, 
2495.00, 
2496.00, 
2497.00, 
2498.00, 
2499.00, 
2500.00, 
2501.00, 
2502.00, 
2503.00, 
2504.00, 
2505.00, 
2506.00, 
2507.00, 
2508.00, 
2509.00, 
2510.00, 
2511.00, 
2512.00, 
2513.00, 
2514.00, 
2515.00, 
2516.00, 
2517.00, 
2518.00, 
2519.00, 
2520.00, 
2521.00, 
2522.00, 
2523.00, 
2524.00, 
2525.00, 
2526.00, 
2527.00, 
2528.00, 
2529.00, 
2530.00, 
2531.00, 
2532.00, 
2533.00, 
2534.00, 
2535.00, 
2536.00, 
2537.00, 
2538.00, 
2539.00, 
2540.00, 
2541.00, 
2542.00, 
2543.00, 
2544.00, 
2545.00, 
2546.00, 
2547.00, 
2548.00, 
2549.00, 
2550.00, 
2551.00, 
2552.00, 
2553.00, 
2554.00, 
2555.00, 
2556.00, 
2557.00, 
2558.00, 
2559.00, 
2560.00, 
2561.00, 
2562.00, 
2563.00, 
2564.00, 
2565.00, 
2566.00, 
2567.00, 
2568.00, 
2569.00, 
2570.00, 
2571.00, 
2572.00, 
2573.00, 
2574.00, 
2575.00, 
2576.00, 
2577.00, 
2578.00, 
2579.00, 
2580.00, 
2581.00, 
2582.00, 
2583.00, 
2584.00, 
2585.00, 
2586.00, 
2587.00, 
2588.00, 
2589.00, 
2590.00, 
2591.00, 
2592.00, 
2593.00, 
2594.00, 
2595.00, 
2596.00, 
2597.00, 
2598.00, 
2599.00, 
2600.00, 
